# Flux units: erg / (cm m2 s)
# Wavelength units: Angstrom
wave	flux
14000.0	1.7402050627239933e+18
14001.0	1.7398872166891517e+18
14002.0	1.739599670306406e+18
14003.0	1.7392937780379648e+18
14004.0	1.7389878505373696e+18
14005.0	1.7386819230367741e+18
14006.0	1.7383751600308221e+18
14007.0	1.7380696905482235e+18
14008.0	1.7377548224692221e+18
14009.0	1.737457572144742e+18
14010.0	1.7371524700831744e+18
14011.0	1.736771929269862e+18
14012.0	1.7365407996313597e+18
14013.0	1.736237012903526e+18
14014.0	1.7359319007756285e+18
14015.0	1.7356265369894907e+18
14016.0	1.7353216194772987e+18
14017.0	1.7350165912354813e+18
14018.0	1.7347116015812605e+18
14019.0	1.7344066740027387e+18
14020.0	1.7341017279692797e+18
14021.0	1.7337968557555707e+18
14022.0	1.7334921697689597e+18
14023.0	1.733187376408166e+18
14024.0	1.7328821602615293e+18
14025.0	1.7325784708415485e+18
14026.0	1.732273887195955e+18
14027.0	1.7319696390946813e+18
14028.0	1.7316652869746688e+18
14029.0	1.7313607016513533e+18
14030.0	1.7310247664222203e+18
14031.0	1.7307494187532285e+18
14032.0	1.7304485445500923e+18
14033.0	1.7301402363625472e+18
14034.0	1.7298408838529021e+18
14035.0	1.7295371524898816e+18
14036.0	1.729233419449139e+18
14037.0	1.7289297434509307e+18
14038.0	1.7286261244952568e+18
14039.0	1.728322584392499e+18
14040.0	1.7280190946213885e+18
14041.0	1.727715655181926e+18
14042.0	1.7274111554224125e+18
14043.0	1.7271045065015293e+18
14044.0	1.7268043369414653e+18
14045.0	1.7265027178299387e+18
14046.0	1.72619964916695e+18
14047.0	1.7258965452718075e+18
14048.0	1.7255937081343995e+18
14049.0	1.7252908609306621e+18
14050.0	1.724988057347686e+18
14051.0	1.7246844534915067e+18
14052.0	1.7243825877549053e+18
14053.0	1.724080096228147e+18
14054.0	1.7237775761801213e+18
14055.0	1.7234751232409595e+18
14056.0	1.7231727357329405e+18
14057.0	1.7228704270778365e+18
14058.0	1.7225681771429888e+18
14059.0	1.7222659926392827e+18
14060.0	1.721963865178112e+18
14061.0	1.721661023007539e+18
14062.0	1.721359796482867e+18
14063.0	1.7210562010152957e+18
14064.0	1.720748879328051e+18
14065.0	1.7204532664598525e+18
14066.0	1.7201526103605248e+18
14067.0	1.7198510013153277e+18
14068.0	1.7195494140805115e+18
14069.0	1.7192478318788605e+18
14070.0	1.718946467781017e+18
14071.0	1.718644786593792e+18
14072.0	1.7183438268268541e+18
14073.0	1.7180425969467387e+18
14074.0	1.7177414358532093e+18
14075.0	1.7174403066363904e+18
14076.0	1.7171391958745085e+18
14077.0	1.7168311158571005e+18
14078.0	1.7165366471950333e+18
14079.0	1.7162359424417787e+18
14080.0	1.715935839990579e+18
14081.0	1.7156351738249213e+18
14082.0	1.715334474104832e+18
14083.0	1.7150337257308157e+18
14084.0	1.7147328330727421e+18
14085.0	1.7144058518437885e+18
14086.0	1.7141308497854461e+18
14087.0	1.7138322723831803e+18
14088.0	1.7135321363775485e+18
14089.0	1.7132321043906557e+18
14090.0	1.7129319818067963e+18
14091.0	1.712632045450035e+18
14092.0	1.7123321107709947e+18
14093.0	1.712032239845376e+18
14094.0	1.7117324142182395e+18
14095.0	1.711432600335155e+18
14096.0	1.7111319962451965e+18
14097.0	1.7108329490808827e+18
14098.0	1.710533324780339e+18
14099.0	1.7102342759383037e+18
14100.0	1.7099335158202363e+18
14101.0	1.709635631316992e+18
14102.0	1.7093363224281085e+18
14103.0	1.709035261997875e+18
14104.0	1.7087380183842813e+18
14105.0	1.708438949409587e+18
14106.0	1.708139939155148e+18
14107.0	1.707840990976409e+18
14108.0	1.70754212668375e+18
14109.0	1.707242824505753e+18
14110.0	1.70694439642071e+18
14111.0	1.7066454700523515e+18
14112.0	1.7063469933133821e+18
14113.0	1.706048657503027e+18
14114.0	1.705750140498739e+18
14115.0	1.7054513164713981e+18
14116.0	1.7051507862011904e+18
14117.0	1.7047954967756797e+18
14118.0	1.7045556698284027e+18
14119.0	1.7042577920360443e+18
14120.0	1.7039599813525496e+18
14121.0	1.7036623669624827e+18
14122.0	1.70336397075415e+18
14123.0	1.7030661281939453e+18
14124.0	1.702766748840755e+18
14125.0	1.702419827890585e+18
14126.0	1.70217232704471e+18
14127.0	1.7018758585384957e+18
14128.0	1.7015783414562813e+18
14129.0	1.7012797154000896e+18
14130.0	1.7009818359300093e+18
14131.0	1.7006860737445885e+18
14132.0	1.7003871826083837e+18
14133.0	1.7000314922074107e+18
14134.0	1.6997927692009467e+18
14135.0	1.6994959852830715e+18
14136.0	1.6992003002728448e+18
14137.0	1.6989034626678781e+18
14138.0	1.6986064119922685e+18
14139.0	1.6983099300642813e+18
14140.0	1.698013072326656e+18
14141.0	1.6977154898132987e+18
14142.0	1.6974170734723072e+18
14143.0	1.6971231718801403e+18
14144.0	1.6968269801979896e+18
14145.0	1.696530573767475e+18
14146.0	1.6962340918394877e+18
14147.0	1.6959379001573376e+18
14148.0	1.6956417302855677e+18
14149.0	1.695345640944435e+18
14150.0	1.6950495432146941e+18
14151.0	1.6947532592578557e+18
14152.0	1.6944575876694016e+18
14153.0	1.694161681199923e+18
14154.0	1.6938629427363837e+18
14155.0	1.6935690260447224e+18
14156.0	1.693274268814541e+18
14157.0	1.6929787213774848e+18
14158.0	1.692682764576358e+18
14159.0	1.6923876013375485e+18
14160.0	1.692090547306496e+18
14161.0	1.6917905706844157e+18
14162.0	1.691489855864832e+18
14163.0	1.6912054770204672e+18
14164.0	1.6909096863137787e+18
14165.0	1.6906139392278525e+18
14166.0	1.690320792610406e+18
14167.0	1.690026043768832e+18
14168.0	1.6897310550130685e+18
14169.0	1.68943632294871e+18
14170.0	1.6891412083638275e+18
14171.0	1.688846469588582e+18
14172.0	1.6885521284333565e+18
14173.0	1.6882554401456125e+18
14174.0	1.6879622331301885e+18
14175.0	1.6876686100398077e+18
14176.0	1.6873742353301504e+18
14177.0	1.6870799277293565e+18
14178.0	1.686785626839449e+18
14179.0	1.6864910004715515e+18
14180.0	1.6861973337604093e+18
14181.0	1.685903272784691e+18
14182.0	1.6856091899985915e+18
14183.0	1.6853152967950333e+18
14184.0	1.685020833166131e+18
14185.0	1.6847272419524603e+18
14186.0	1.684422025805824e+18
14187.0	1.6841364205469693e+18
14188.0	1.6838463793922048e+18
14189.0	1.683552964339302e+18
14190.0	1.6832594452676603e+18
14191.0	1.6829659496841213e+18
14192.0	1.6826717846896635e+18
14193.0	1.682377901552435e+18
14194.0	1.6820860887236603e+18
14195.0	1.6817931115560952e+18
14196.0	1.6815000035262461e+18
14197.0	1.6812069542166525e+18
14198.0	1.6809134284341243e+18
14199.0	1.6806207918440448e+18
14200.0	1.6803219795607547e+18
14201.0	1.6800344935759872e+18
14202.0	1.6797426941689856e+18
14203.0	1.6794496113049597e+18
14204.0	1.6791571391315965e+18
14205.0	1.678864386778726e+18
14206.0	1.678559251162726e+18
14207.0	1.6782794155884541e+18
14208.0	1.6779874702196733e+18
14209.0	1.6776811266441213e+18
14210.0	1.6773917985210365e+18
14211.0	1.6771108892049405e+18
14212.0	1.6768190327554043e+18
14213.0	1.6765271763058688e+18
14214.0	1.6762351067856893e+18
14215.0	1.6759418880262141e+18
14216.0	1.675651588502323e+18
14217.0	1.675359857881907e+18
14218.0	1.6750681641713661e+18
14219.0	1.6747765342142461e+18
14220.0	1.6744849831100413e+18
14221.0	1.6741934370390013e+18
14222.0	1.673902001697587e+18
14223.0	1.6736105948774397e+18
14224.0	1.6733190957826043e+18
14225.0	1.6730068952809467e+18
14226.0	1.6727356882288637e+18
14227.0	1.672445378638643e+18
14228.0	1.6720951894867963e+18
14229.0	1.6718505206349821e+18
14230.0	1.6715726043742205e+18
14231.0	1.6712819357515776e+18
14232.0	1.670991179887411e+18
14233.0	1.6707004575776765e+18
14234.0	1.670409765466931e+18
14235.0	1.670118855252377e+18
14236.0	1.6698285473398781e+18
14237.0	1.669537803219763e+18
14238.0	1.6692471496966136e+18
14239.0	1.6689543403012093e+18
14240.0	1.6684650881613824e+18
14241.0	1.6683720484323323e+18
14242.0	1.66806936396759e+18
14243.0	1.6677569755611133e+18
14244.0	1.6674835438501888e+18
14245.0	1.667193418809344e+18
14246.0	1.666903109219123e+18
14247.0	1.6666139857780733e+18
14248.0	1.6663220353761275e+18
14249.0	1.666034081307033e+18
14250.0	1.6657443656302592e+18
14251.0	1.6654549385216e+18
14252.0	1.6651652849205243e+18
14253.0	1.6648755642105853e+18
14254.0	1.6645857797472253e+18
14255.0	1.664292096258867e+18
14256.0	1.6639865730891776e+18
14257.0	1.6637131447336957e+18
14258.0	1.6634284571885568e+18
14259.0	1.6631394964865024e+18
14260.0	1.6628345689079805e+18
14261.0	1.6625371675885563e+18
14262.0	1.6622698696278013e+18
14263.0	1.6619509347516413e+18
14264.0	1.6616798149410813e+18
14265.0	1.6614032005922813e+18
14266.0	1.6611148908462075e+18
14267.0	1.6608262438780925e+18
14268.0	1.660537553289216e+18
14269.0	1.6602486060089344e+18
14270.0	1.6599602375426048e+18
14271.0	1.6596716056739835e+18
14272.0	1.6593828479762432e+18
14273.0	1.6590926843478016e+18
14274.0	1.658755940456857e+18
14275.0	1.6585094227558397e+18
14276.0	1.6582291090309115e+18
14277.0	1.657941173416755e+18
14278.0	1.657653519659827e+18
14279.0	1.6573653625864192e+18
14280.0	1.6570606245904384e+18
14281.0	1.6567667263537147e+18
14282.0	1.656478815905382e+18
14283.0	1.6561909155233787e+18
14284.0	1.655903057084416e+18
14285.0	1.6556152288444413e+18
14286.0	1.6553273989267453e+18
14287.0	1.6550395169996797e+18
14288.0	1.654750049625702e+18
14289.0	1.654335023244902e+18
14290.0	1.6541751699308541e+18
14291.0	1.653889323080089e+18
14292.0	1.6536022296821757e+18
14293.0	1.653314433318912e+18
14294.0	1.6530125491273725e+18
14295.0	1.6527385855787005e+18
14296.0	1.6523508003635197e+18
14297.0	1.6521615818883067e+18
14298.0	1.6518593856405504e+18
14299.0	1.6515914786668541e+18
14300.0	1.6513056737591293e+18
14301.0	1.6510189410713597e+18
14302.0	1.650731851028889e+18
14303.0	1.6504228734304253e+18
14304.0	1.6501339529936893e+18
14305.0	1.649848631269785e+18
14306.0	1.6495616838336507e+18
14307.0	1.649275026643353e+18
14308.0	1.648988854314598e+18
14309.0	1.6487020259966976e+18
14310.0	1.648413484725043e+18
14311.0	1.648126762103603e+18
14312.0	1.6478401250459643e+18
14313.0	1.647539742415257e+18
14314.0	1.647270944571392e+18
14315.0	1.6469848175411197e+18
14316.0	1.6466936154030077e+18
14317.0	1.646412719508684e+18
14318.0	1.6461274447609853e+18
14319.0	1.645841784137318e+18
14320.0	1.6455559708409853e+18
14321.0	1.645270246463897e+18
14322.0	1.6449805475643387e+18
14323.0	1.6446964270891003e+18
14324.0	1.6444134575308797e+18
14325.0	1.6441280569540605e+18
14326.0	1.6438426513440765e+18
14327.0	1.643557255800422e+18
14328.0	1.6432587404738552e+18
14329.0	1.6429627551514621e+18
14330.0	1.642676547590553e+18
14331.0	1.64239128962007e+18
14332.0	1.6421061625118715e+18
14333.0	1.6418210421145595e+18
14334.0	1.6415359787597816e+18
14335.0	1.6412495195406339e+18
14336.0	1.640963828717977e+18
14337.0	1.6406810453868541e+18
14338.0	1.6403960692735997e+18
14339.0	1.6401112760319995e+18
14340.0	1.639826752903577e+18
14341.0	1.639542048581222e+18
14342.0	1.639257537196851e+18
14343.0	1.6389729687699453e+18
14344.0	1.638688479195955e+18
14345.0	1.6384040466644987e+18
14346.0	1.638119333953536e+18
14347.0	1.637834081016217e+18
14348.0	1.6375509470412797e+18
14349.0	1.6372668668313597e+18
14350.0	1.6369809679712253e+18
14351.0	1.6366969280266235e+18
14352.0	1.6364146547228672e+18
14353.0	1.63613070369751e+18
14354.0	1.6358464624263163e+18
14355.0	1.6355622916194304e+18
14356.0	1.6352618838228987e+18
14357.0	1.634971760459776e+18
14358.0	1.6346879956615163e+18
14359.0	1.6344041754984443e+18
14360.0	1.6341204023115768e+18
14361.0	1.633836852261683e+18
14362.0	1.6335533458325504e+18
14363.0	1.633269706863411e+18
14364.0	1.6329812746436603e+18
14365.0	1.6327009709850621e+18
14366.0	1.6324185517195261e+18
14367.0	1.6321363472023547e+18
14368.0	1.6318530941091837e+18
14369.0	1.6315699752337403e+18
14370.0	1.6312868580360187e+18
14371.0	1.6310037962031107e+18
14372.0	1.630720761213747e+18
14373.0	1.6304377765560315e+18
14374.0	1.630154897594777e+18
14375.0	1.629872038766182e+18
14376.0	1.6295892336246781e+18
14377.0	1.6293063982841853e+18
14378.0	1.6290234555695096e+18
14379.0	1.6287411285786621e+18
14380.0	1.628458467721216e+18
14381.0	1.6281757145890816e+18
14382.0	1.6278933188116477e+18
14383.0	1.6276109263896576e+18
14384.0	1.6273265945214976e+18
14385.0	1.6270464267583485e+18
14386.0	1.6267641651986424e+18
14387.0	1.626481908672102e+18
14388.0	1.6261858210086912e+18
14389.0	1.625894128975872e+18
14390.0	1.625611837217177e+18
14391.0	1.6253299917324285e+18
14392.0	1.6250478794899453e+18
14393.0	1.6247659853512701e+18
14394.0	1.6244793818480637e+18
14395.0	1.624200932071833e+18
14396.0	1.6239203096461307e+18
14397.0	1.623638511137587e+18
14398.0	1.6233567294062587e+18
14399.0	1.623074971163033e+18
14400.0	1.622790932896153e+18
14401.0	1.6225105067638781e+18
14402.0	1.6222286445019133e+18
14403.0	1.621912739590963e+18
14404.0	1.621313927197491e+18
14405.0	1.6211567246835704e+18
14406.0	1.6211005847633923e+18
14407.0	1.6207798312370176e+18
14408.0	1.6205397559869437e+18
14409.0	1.6202584171741181e+18
14410.0	1.6199796033323005e+18
14411.0	1.6196990127833088e+18
14412.0	1.619417791410995e+18
14413.0	1.6191373736673275e+18
14414.0	1.6188562529583101e+18
14415.0	1.6185755265138685e+18
14416.0	1.6182949024104443e+18
14417.0	1.6180140115492861e+18
14418.0	1.617732912650649e+18
14419.0	1.6174525636935675e+18
14420.0	1.6171714798944253e+18
14421.0	1.6168914044059648e+18
14422.0	1.6166104246255608e+18
14423.0	1.6163260390703101e+18
14424.0	1.6158790520930304e+18
14425.0	1.6157460490354688e+18
14426.0	1.6154657722204157e+18
14427.0	1.6151860154990587e+18
14428.0	1.6149030140641275e+18
14429.0	1.6146253310066688e+18
14430.0	1.6143452236414968e+18
14431.0	1.6140559676604416e+18
14432.0	1.6137843327893501e+18
14433.0	1.613472051757056e+18
14434.0	1.613222842990592e+18
14435.0	1.6129435409317885e+18
14436.0	1.6126656498368507e+18
14437.0	1.6123859669352448e+18
14438.0	1.6121047891836925e+18
14439.0	1.6118260760051712e+18
14440.0	1.611546789045862e+18
14441.0	1.611265925028249e+18
14442.0	1.6109854116544512e+18
14443.0	1.610700965701222e+18
14444.0	1.610427460170547e+18
14445.0	1.6101478359891963e+18
14446.0	1.6097450653646843e+18
14447.0	1.6095848714731515e+18
14448.0	1.609310884436377e+18
14449.0	1.6090320588505085e+18
14450.0	1.6087529564405757e+18
14451.0	1.6084738657746944e+18
14452.0	1.608194726454886e+18
14453.0	1.607915427751526e+18
14454.0	1.6076367481274368e+18
14455.0	1.6073571910549507e+18
14456.0	1.6070788805296125e+18
14457.0	1.6067999861571581e+18
14458.0	1.6065188520263675e+18
14459.0	1.6062370669395965e+18
14460.0	1.6059580635152381e+18
14461.0	1.605676993137868e+18
14462.0	1.6053984259211261e+18
14463.0	1.605121581724467e+18
14464.0	1.6048439070556157e+18
14465.0	1.604562576631398e+18
14466.0	1.6042687035604987e+18
14467.0	1.6039846350946301e+18
14468.0	1.6037072389275648e+18
14469.0	1.6034260242661368e+18
14470.0	1.6031469336002557e+18
14471.0	1.6028712101216253e+18
14472.0	1.6025944481333243e+18
14473.0	1.602316312091033e+18
14474.0	1.6020381961814016e+18
14475.0	1.6017599510872061e+18
14476.0	1.6014800366600187e+18
14477.0	1.6012039424049147e+18
14478.0	1.6009260680871933e+18
14479.0	1.6006481065279485e+18
14480.0	1.6003690158620672e+18
14481.0	1.6000923746697216e+18
14482.0	1.5998139399929853e+18
14483.0	1.599535543903846e+18
14484.0	1.5992568944787453e+18
14485.0	1.5989756395519997e+18
14486.0	1.5986671703031803e+18
14487.0	1.5984253804216315e+18
14488.0	1.598148581523456e+18
14489.0	1.5978703951495165e+18
14490.0	1.5975935207538685e+18
14491.0	1.597316273904025e+18
14492.0	1.597039136106086e+18
14493.0	1.596761788592947e+18
14494.0	1.5964818003460093e+18
14495.0	1.5962063486582781e+18
14496.0	1.5959140694228992e+18
14497.0	1.5956525176586237e+18
14498.0	1.595375941897421e+18
14499.0	1.5950989332840443e+18
14500.0	1.5948218156187643e+18
14501.0	1.5945432517574653e+18
14502.0	1.5942400455213053e+18
14503.0	1.593989269762867e+18
14504.0	1.5937133919338496e+18
14505.0	1.5934364135194624e+18
14506.0	1.5931578664353787e+18
14507.0	1.592853945489817e+18
14508.0	1.592606810387251e+18
14509.0	1.5923307916296192e+18
14510.0	1.592054289688166e+18
14511.0	1.5917775595765757e+18
14512.0	1.5914994336006144e+18
14513.0	1.5912241463296e+18
14514.0	1.5909440020545533e+18
14515.0	1.590662396483993e+18
14516.0	1.5900342289956864e+18
14517.0	1.5900859313422333e+18
14518.0	1.5898184991637501e+18
14519.0	1.589543020632473e+18
14520.0	1.5892669800644603e+18
14521.0	1.5889908237336576e+18
14522.0	1.588714554995507e+18
14523.0	1.588436174005862e+18
14524.0	1.588160219001651e+18
14525.0	1.5878855524876288e+18
14526.0	1.587610112543948e+18
14527.0	1.5873300001456125e+18
14528.0	1.5870411669504e+18
14529.0	1.5867806771838976e+18
14530.0	1.5865045745401853e+18
14531.0	1.5862303190679547e+18
14532.0	1.5859522971107325e+18
14533.0	1.5856788033241088e+18
14534.0	1.5854033180819453e+18
14535.0	1.585127539238502e+18
14536.0	1.584851827503923e+18
14537.0	1.584574909487513e+18
14538.0	1.5843006724702203e+18
14539.0	1.5840251452850179e+18
14540.0	1.5837495946117115e+18
14541.0	1.5834734919679995e+18
14542.0	1.5831984395780096e+18
14543.0	1.5829219007266813e+18
14544.0	1.582647058051891e+18
14545.0	1.5823701668790272e+18
14546.0	1.5818379365449723e+18
14547.0	1.5815675415101435e+18
14548.0	1.5815422246911995e+18
14549.0	1.581256273821696e+18
14550.0	1.580995210274406e+18
14551.0	1.580720823939891e+18
14552.0	1.580445669208883e+18
14553.0	1.5801695816646653e+18
14554.0	1.5798957724663805e+18
14555.0	1.5796206848442365e+18
14556.0	1.579345528435507e+18
14557.0	1.5790701405011965e+18
14558.0	1.5787917813219325e+18
14559.0	1.5782704360456184e+18
14560.0	1.5782416832528381e+18
14561.0	1.5779697665245181e+18
14562.0	1.577693189085593e+18
14563.0	1.577421579380326e+18
14564.0	1.5771466511417341e+18
14565.0	1.5768725047214075e+18
14566.0	1.5765978918944765e+18
14567.0	1.5763231884705792e+18
14568.0	1.5760484011606013e+18
14569.0	1.5757725652746235e+18
14570.0	1.575430895593062e+18
14571.0	1.575223643288371e+18
14572.0	1.574924817583308e+18
14573.0	1.5746484666367997e+18
14574.0	1.574377543119667e+18
14575.0	1.5741037523763197e+18
14576.0	1.573829496904089e+18
14577.0	1.573555345450598e+18
14578.0	1.5732807460454397e+18
14579.0	1.5730066717671421e+18
14580.0	1.5727323911290875e+18
14581.0	1.5724577447477243e+18
14582.0	1.5721837392560128e+18
14583.0	1.5719094737174528e+18
14584.0	1.5716339448545277e+18
14585.0	1.5713609728393216e+18
14586.0	1.5710865110073341e+18
14587.0	1.5708126531551232e+18
14588.0	1.5705387047059453e+18
14589.0	1.5702655833735165e+18
14590.0	1.5699926214246397e+18
14591.0	1.5697195739119613e+18
14592.0	1.569445989528371e+18
14593.0	1.5691594481008637e+18
14594.0	1.5689004330516477e+18
14595.0	1.5686273536622587e+18
14596.0	1.5683497628794877e+18
14597.0	1.5680758916055037e+18
14598.0	1.5678088151039997e+18
14599.0	1.5675369705177085e+18
14600.0	1.567264238416691e+18
14601.0	1.5669915147042813e+18
14602.0	1.5667186987171835e+18
14603.0	1.5664459733270525e+18
14604.0	1.5661683959660544e+18
14605.0	1.5658998179037181e+18
14606.0	1.5656172325437435e+18
14607.0	1.5653548100419581e+18
14608.0	1.5650830040432637e+18
14609.0	1.5648102132219896e+18
14610.0	1.564537169064755e+18
14611.0	1.5642647775412221e+18
14612.0	1.5639928943673341e+18
14613.0	1.5637205514977277e+18
14614.0	1.5634476851789821e+18
14615.0	1.563175620811161e+18
14616.0	1.562903306462822e+18
14617.0	1.5626308411195392e+18
14618.0	1.5623583053119485e+18
14619.0	1.5620802112126976e+18
14620.0	1.561801018205798e+18
14621.0	1.5615412297269243e+18
14622.0	1.5612691368378363e+18
14623.0	1.5609966714945533e+18
14624.0	1.5607176445820925e+18
14625.0	1.5604518649593853e+18
14626.0	1.560179860989542e+18
14627.0	1.5599073369260024e+18
14628.0	1.559635361477427e+18
14629.0	1.5593631075270653e+18
14630.0	1.5590907629797373e+18
14631.0	1.558818445275955e+18
14632.0	1.5585317830524928e+18
14633.0	1.5582712832196605e+18
14634.0	1.5580016330932221e+18
14635.0	1.5577285184716795e+18
14636.0	1.5574536070103035e+18
14637.0	1.5571652804870141e+18
14638.0	1.556890189509427e+18
14639.0	1.5566167359881213e+18
14640.0	1.5563443494977533e+18
14641.0	1.5560187037351933e+18
14642.0	1.5557996855689213e+18
14643.0	1.5555290539753472e+18
14644.0	1.5552569174654973e+18
14645.0	1.5549821871980541e+18
14646.0	1.5547117032439803e+18
14647.0	1.5544398469136381e+18
14648.0	1.5541679234744315e+18
