# Flux units: erg / (cm m2 s)
# Wavelength units: Angstrom
wave	flux
14000.0	1.8902331038892024e+18
14001.0	1.8898643037716475e+18
14002.0	1.8895763446693883e+18
14003.0	1.8892020785348605e+18
14004.0	1.8888250844250112e+18
14005.0	1.8884479661637627e+18
14006.0	1.888064128627507e+18
14007.0	1.8876861228515325e+18
14008.0	1.8872290762555387e+18
14009.0	1.8869384176992256e+18
14010.0	1.88655146631168e+18
14011.0	1.8856288553271293e+18
14012.0	1.8858097439145981e+18
14013.0	1.8854336557744125e+18
14014.0	1.8850522039582715e+18
14015.0	1.8846788739923963e+18
14016.0	1.8843047454310397e+18
14017.0	1.8839286975561725e+18
14018.0	1.883552466809651e+18
14019.0	1.8829852559802365e+18
14020.0	1.8825306303365115e+18
14021.0	1.8821542435618816e+18
14022.0	1.8817672720416765e+18
14023.0	1.8813664643514363e+18
14024.0	1.8809978806599675e+18
14025.0	1.8806509496434688e+18
14026.0	1.8802766784757755e+18
14027.0	1.8799033099223037e+18
14028.0	1.8795281092968443e+18
14029.0	1.8791519624364032e+18
14030.0	1.8757365406892052e+18
14031.0	1.878300555634278e+18
14032.0	1.8780245150662653e+18
14033.0	1.8775877789679613e+18
14034.0	1.877272959542886e+18
14035.0	1.876904817092198e+18
14036.0	1.876522442529177e+18
14037.0	1.876155778151219e+18
14038.0	1.8757829397577725e+18
14039.0	1.8754052141613053e+18
14040.0	1.875027755322572e+18
14041.0	1.8746575895396347e+18
14042.0	1.874276109202227e+18
14043.0	1.8738779657338877e+18
14044.0	1.873529338540851e+18
14045.0	1.8731627664375805e+18
14046.0	1.8727890237521917e+18
14047.0	1.8724026495008763e+18
14048.0	1.872040174393753e+18
14049.0	1.8716729412681725e+18
14050.0	1.8713000089223163e+18
14051.0	1.870919218128486e+18
14052.0	1.870553978136166e+18
14053.0	1.8701812487946237e+18
14054.0	1.8698085546852347e+18
14055.0	1.8694358958079992e+18
14056.0	1.8690632906178555e+18
14057.0	1.868690844811264e+18
14058.0	1.8683184224927744e+18
14059.0	1.8679461192925181e+18
14060.0	1.8675738848788477e+18
14061.0	1.8671956844871677e+18
14062.0	1.8668296358330365e+18
14063.0	1.8664432414490621e+18
14064.0	1.8655400014381053e+18
14065.0	1.8657062519046141e+18
14066.0	1.8653419111710715e+18
14067.0	1.8649320370733056e+18
14068.0	1.8645991334871037e+18
14069.0	1.8642204801105915e+18
14070.0	1.8638541646987261e+18
14071.0	1.8634824201797627e+18
14072.0	1.86311376937943e+18
14073.0	1.862742654006067e+18
14074.0	1.862371592319795e+18
14075.0	1.8619826595430392e+18
14076.0	1.861587500741427e+18
14077.0	1.8605558328197123e+18
14078.0	1.8608353513046013e+18
14079.0	1.8605085445586941e+18
14080.0	1.8601473881407488e+18
14081.0	1.8597770461970427e+18
14082.0	1.859402568669593e+18
14083.0	1.859035124151091e+18
14084.0	1.8586656915324923e+18
14085.0	1.8577323347410944e+18
14086.0	1.8578688526254075e+18
14087.0	1.8575561471295488e+18
14088.0	1.8571669106851837e+18
14089.0	1.856785462224486e+18
14090.0	1.856435368702771e+18
14091.0	1.856077569405747e+18
14092.0	1.8557083079147515e+18
14093.0	1.855338905495142e+18
14094.0	1.8549694980423675e+18
14095.0	1.8545997063913464e+18
14096.0	1.8540889357942781e+18
14097.0	1.853824934556467e+18
14098.0	1.853428019180339e+18
14099.0	1.8531239891828733e+18
14100.0	1.8527449163759613e+18
14101.0	1.8523872412303355e+18
14102.0	1.8520184746672128e+18
14103.0	1.85163682152448e+18
14104.0	1.8512817753686013e+18
14105.0	1.850912978606489e+18
14106.0	1.8505450592927736e+18
14107.0	1.8501756149301245e+18
14108.0	1.8497932370116605e+18
14109.0	1.8494356541407232e+18
14110.0	1.8490653474291712e+18
14111.0	1.8486930727501821e+18
14112.0	1.8483282320556027e+18
14113.0	1.8479498102046717e+18
14114.0	1.8475884843368443e+18
14115.0	1.84722792686551e+18
14116.0	1.8467656860434427e+18
14117.0	1.841267609488589e+18
14118.0	1.846126895221964e+18
14119.0	1.8456747995824125e+18
14120.0	1.8453238537781245e+18
14121.0	1.845006734196736e+18
14122.0	1.84455351280599e+18
14123.0	1.8442154653253627e+18
14124.0	1.8438352114024445e+18
14125.0	1.843145332280524e+18
14126.0	1.8431792323231736e+18
14127.0	1.8428306755944443e+18
14128.0	1.8424634626015224e+18
14129.0	1.842087711683379e+18
14130.0	1.8417141267038205e+18
14131.0	1.8413634728230907e+18
14132.0	1.8409943807819768e+18
14133.0	1.8401477202542587e+18
14134.0	1.8402677931114493e+18
14135.0	1.8398696815198205e+18
14136.0	1.8393903782690813e+18
14137.0	1.8391584299024381e+18
14138.0	1.8387427257221117e+18
14139.0	1.8384395043864576e+18
14140.0	1.8380658371985403e+18
14141.0	1.837676003485286e+18
14142.0	1.8369291472601083e+18
14143.0	1.836971209418342e+18
14144.0	1.8366142976360443e+18
14145.0	1.8362486382133245e+18
14146.0	1.83587617898496e+18
14147.0	1.8355141165973504e+18
14148.0	1.8351383690346493e+18
14149.0	1.8347751775404032e+18
14150.0	1.8344269580337147e+18
14151.0	1.834036035479142e+18
14152.0	1.8336983252205565e+18
14153.0	1.8333339492548603e+18
14154.0	1.8329474474967037e+18
14155.0	1.8322436902617088e+18
14156.0	1.8321748516667384e+18
14157.0	1.8318773043855355e+18
14158.0	1.831508979063193e+18
14159.0	1.831150095958016e+18
14160.0	1.8307789789069307e+18
14161.0	1.8303713999323133e+18
14162.0	1.829964025639731e+18
14163.0	1.829693013203353e+18
14164.0	1.8291616401850365e+18
14165.0	1.8288583366410235e+18
14166.0	1.8281740074221568e+18
14167.0	1.8278005986033661e+18
14168.0	1.8274349240811515e+18
14169.0	1.8270876306767872e+18
14170.0	1.826713552447078e+18
14171.0	1.8263584492486653e+18
14172.0	1.8259995426553853e+18
14173.0	1.8255871989514235e+18
14174.0	1.825265980696166e+18
14175.0	1.8249111559995387e+18
14176.0	1.8245475266199547e+18
14177.0	1.8241865614622715e+18
14178.0	1.8237955801874432e+18
14179.0	1.8234032802234365e+18
14180.0	1.8230511247818752e+18
14181.0	1.822689022128947e+18
14182.0	1.8223262584537085e+18
14183.0	1.8219649778843643e+18
14184.0	1.8215983286059005e+18
14185.0	1.8212398766751741e+18
14186.0	1.8199293345136643e+18
14187.0	1.8204927335596027e+18
14188.0	1.8201551759736827e+18
14189.0	1.81978581214167e+18
14190.0	1.8194259593134075e+18
14191.0	1.819060477729177e+18
14192.0	1.8187031515496445e+18
14193.0	1.8181881010847744e+18
14194.0	1.8179796039106555e+18
14195.0	1.8176282135101435e+18
14196.0	1.817238896535142e+18
14197.0	1.8168566343794685e+18
14198.0	1.8164915185385464e+18
14199.0	1.8161323183439864e+18
14200.0	1.815192436893287e+18
14201.0	1.8153727114346493e+18
14202.0	1.8150517347713021e+18
14203.0	1.814681793803059e+18
14204.0	1.8143298094891005e+18
14205.0	1.8139696748036093e+18
14206.0	1.8134989799423997e+18
14207.0	1.8132514287648765e+18
14208.0	1.8128918225616896e+18
14209.0	1.812414272530022e+18
14210.0	1.8120861068296187e+18
14211.0	1.8118078650908664e+18
14212.0	1.8114517317713917e+18
14213.0	1.811084926464819e+18
14214.0	1.8107325076209661e+18
14215.0	1.810359991350067e+18
14216.0	1.8099775429672955e+18
14217.0	1.809606105471385e+18
14218.0	1.8092363473747963e+18
14219.0	1.8088873494052861e+18
14220.0	1.8085226244734979e+18
14221.0	1.8081585739857917e+18
14222.0	1.8077432053497853e+18
14223.0	1.8074477669646333e+18
14224.0	1.8070911454281725e+18
14225.0	1.8049401486311437e+18
14226.0	1.8063619874881533e+18
14227.0	1.8060146051645435e+18
14228.0	1.801366413718324e+18
14229.0	1.8042836897234906e+18
14230.0	1.8049395513622528e+18
14231.0	1.8045188760928253e+18
14232.0	1.8042232749686781e+18
14233.0	1.8038607814066176e+18
14234.0	1.8035071747358715e+18
14235.0	1.803146835368345e+18
14236.0	1.8027910090719224e+18
14237.0	1.8024300690800635e+18
14238.0	1.8020729073172477e+18
14239.0	1.8016579329458176e+18
14240.0	1.7998874668957693e+18
14241.0	1.800938863145779e+18
14242.0	1.8005887746572285e+18
14243.0	1.8000989420257275e+18
14244.0	1.7998808684167165e+18
14245.0	1.799507890772377e+18
14246.0	1.7991465883926523e+18
14247.0	1.7988046888632315e+18
14248.0	1.7984370916720637e+18
14249.0	1.7980926604607485e+18
14250.0	1.7976343958388733e+18
14251.0	1.7972252985262077e+18
14252.0	1.7968683297013752e+18
14253.0	1.7965106998542333e+18
14254.0	1.7961523502645243e+18
14255.0	1.7957666420686848e+18
14256.0	1.7936137007923213e+18
14257.0	1.794977153259929e+18
14258.0	1.7947277968539648e+18
14259.0	1.7943547772665853e+18
14260.0	1.793957308242329e+18
14261.0	1.793641953624064e+18
14262.0	1.7933202689622008e+18
14263.0	1.7903235259957263e+18
14264.0	1.7920125688610806e+18
14265.0	1.7921998579564544e+18
14266.0	1.7918517240135677e+18
14267.0	1.7914976341590013e+18
14268.0	1.791140079809331e+18
14269.0	1.7907811111403517e+18
14270.0	1.7904306065768443e+18
14271.0	1.7900735018565627e+18
14272.0	1.7897182510186493e+18
14273.0	1.789357081178931e+18
14274.0	1.7849414152355853e+18
14275.0	1.7882748836380672e+18
14276.0	1.7882800526983165e+18
14277.0	1.7879276590202875e+18
14278.0	1.7875879623393277e+18
14279.0	1.7872321125548032e+18
14280.0	1.7868723436126205e+18
14281.0	1.7865238640590843e+18
14282.0	1.7861694067834875e+18
14283.0	1.7858147230154747e+18
14284.0	1.785460004015308e+18
14285.0	1.7851044746756093e+18
14286.0	1.7847440983982075e+18
14287.0	1.7843963788525565e+18
14288.0	1.7840420205625344e+18
14289.0	1.7827747602628593e+18
14290.0	1.7833320322695165e+18
14291.0	1.7829750164684797e+18
14292.0	1.7825806612955133e+18
14293.0	1.7822244474454013e+18
14294.0	1.7817470081433597e+18
14295.0	1.7815058994167803e+18
14296.0	1.7804268291489797e+18
14297.0	1.7808078212694013e+18
14298.0	1.77985134044119e+18
14299.0	1.7800818660999165e+18
14300.0	1.7797439595479037e+18
14301.0	1.7793926345785341e+18
14302.0	1.7790407526055933e+18
14303.0	1.778657252291379e+18
14304.0	1.7783184833904635e+18
14305.0	1.7779777163231232e+18
14306.0	1.777577779370393e+18
14307.0	1.777238327636787e+18
14308.0	1.7769054861262843e+18
14309.0	1.7765308458598397e+18
14310.0	1.7759936830242813e+18
14311.0	1.7751823351807997e+18
14312.0	1.7753439752683515e+18
14313.0	1.7750350043807736e+18
14314.0	1.7747670084878333e+18
14315.0	1.7744424398225405e+18
14316.0	1.7740498613567485e+18
14317.0	1.7736720451633147e+18
14318.0	1.7733959139983355e+18
14319.0	1.7730457047138296e+18
14320.0	1.772693706978099e+18
14321.0	1.7723403016339453e+18
14322.0	1.7719559708475387e+18
14323.0	1.771615564490342e+18
14324.0	1.7712423989411837e+18
14325.0	1.7708833916846077e+18
14326.0	1.7705403529822203e+18
14327.0	1.7701827935993853e+18
14328.0	1.7698310961758203e+18
14329.0	1.7694855543128061e+18
14330.0	1.7691339575525376e+18
14331.0	1.7687756952043515e+18
14332.0	1.7684311683629056e+18
14333.0	1.7680798719148027e+18
14334.0	1.7677286006325243e+18
14335.0	1.7673644259934205e+18
14336.0	1.766835103150899e+18
14337.0	1.7666745753927677e+18
14338.0	1.7663222236577787e+18
14339.0	1.765959486826086e+18
14340.0	1.765620825299353e+18
14341.0	1.7649709246054395e+18
14342.0	1.7643776822476795e+18
14343.0	1.7640241695293437e+18
14344.0	1.7636718865809405e+18
14345.0	1.7633265611440125e+18
14346.0	1.7629673559162877e+18
14347.0	1.7625392315629565e+18
14348.0	1.762270559548211e+18
14349.0	1.7619249941970941e+18
14350.0	1.7614269507960824e+18
14351.0	1.7610614272688123e+18
14352.0	1.7608676386799613e+18
14353.0	1.7605239037231096e+18
14354.0	1.7601561790251003e+18
14355.0	1.759770972468019e+18
14356.0	1.7594338158575613e+18
14357.0	1.7591262576115707e+18
14358.0	1.7587762731417597e+18
14359.0	1.7584138315890688e+18
14360.0	1.758041135801958e+18
14361.0	1.757676776613478e+18
14362.0	1.7573329678368763e+18
14363.0	1.7569828256612347e+18
14364.0	1.7561791114510333e+18
14365.0	1.756180507315404e+18
14366.0	1.755850506187571e+18
14367.0	1.7555863573102587e+18
14368.0	1.7552366479867904e+18
14369.0	1.7548879285190653e+18
14370.0	1.7545391469756408e+18
14371.0	1.7541907060097021e+18
14372.0	1.7538358712467456e+18
14373.0	1.7534891096801275e+18
14374.0	1.7531432188510203e+18
14375.0	1.7527932712910843e+18
14376.0	1.7524460600950781e+18
14377.0	1.7520967416807421e+18
14378.0	1.7517461683306493e+18
14379.0	1.7513999855779837e+18
14380.0	1.7510500279517181e+18
14381.0	1.75069283263447e+18
14382.0	1.7503530201907197e+18
14383.0	1.7499998849597437e+18
14384.0	1.7496407971725307e+18
14385.0	1.7493094991659003e+18
14386.0	1.748948101156044e+18
14387.0	1.7486129628446717e+18
14388.0	1.7482631125925885e+18
14389.0	1.74791670670295e+18
14390.0	1.7475672641372157e+18
14391.0	1.7472209807212541e+18
14392.0	1.7468715398332413e+18
14393.0	1.7465257496674304e+18
14394.0	1.74614402606039e+18
14395.0	1.74580814619607e+18
14396.0	1.7454820508041213e+18
14397.0	1.7451355425734653e+18
14398.0	1.7447870999298048e+18
14399.0	1.7444397310279675e+18
14400.0	1.74407137886208e+18
14401.0	1.7437091218587643e+18
14402.0	1.743352946596249e+18
14403.0	1.7413883346026473e+18
14404.0	1.7374271886065646e+18
14405.0	1.7407236934467556e+18
14406.0	1.7419639944380413e+18
14407.0	1.7393859185082376e+18
14408.0	1.7412142022000635e+18
14409.0	1.7409065936224253e+18
14410.0	1.7405425565564925e+18
14411.0	1.7402286514896893e+18
14412.0	1.7398813832511485e+18
14413.0	1.7395381801320443e+18
14414.0	1.739189099954176e+18
14415.0	1.7388435195035643e+18
14416.0	1.7384821315600381e+18
14417.0	1.7381070433419261e+18
14418.0	1.7377349196578813e+18
14419.0	1.737456268555059e+18
14420.0	1.7371067404255232e+18
14421.0	1.7367644264988672e+18
14422.0	1.7364131266953216e+18
14423.0	1.7360445832691707e+18
14424.0	1.726540761844937e+18
14425.0	1.7353663861227515e+18
14426.0	1.7350334405935104e+18
14427.0	1.7346879121522685e+18
14428.0	1.7343239304511488e+18
14429.0	1.7339918036500477e+18
14430.0	1.7336504477024256e+18
14431.0	1.7324918282649597e+18
14432.0	1.7329520709206013e+18
14433.0	1.7309293409730547e+18
14434.0	1.7322506138419197e+18
14435.0	1.731810570954342e+18
14436.0	1.7315764667154427e+18
14437.0	1.7312321713995768e+18
14438.0	1.7307677898047488e+18
14439.0	1.7305220790878203e+18
14440.0	1.7301954317254653e+18
14441.0	1.729842422323609e+18
14442.0	1.7294929411702781e+18
14443.0	1.7291099475279872e+18
14444.0	1.7288102393413627e+18
14445.0	1.7284694152314877e+18
14446.0	1.7258262571253768e+18
14447.0	1.7277631783239675e+18
14448.0	1.7274351048982525e+18
14449.0	1.7270903213654013e+18
14450.0	1.7267256685756416e+18
14451.0	1.7263562208575488e+18
14452.0	1.7260104323694587e+18
14453.0	1.7256389780963325e+18
14454.0	1.7253202646794237e+18
14455.0	1.7249681109155837e+18
14456.0	1.724617369793331e+18
14457.0	1.724274819307929e+18
14458.0	1.7239314031181821e+18
14459.0	1.7235825142005757e+18
14460.0	1.7232230422151165e+18
14461.0	1.7227641803243515e+18
14462.0	1.7219249219043325e+18
14463.0	1.7221510871646205e+18
14464.0	1.7218553115574272e+18
14465.0	1.721500431495987e+18
14466.0	1.7211830300573693e+18
14467.0	1.720804957172531e+18
14468.0	1.720491624208793e+18
14469.0	1.7200702744952827e+18
14470.0	1.7197806158610432e+18
14471.0	1.7194561847689213e+18
14472.0	1.7191171122003965e+18
14473.0	1.718776642089779e+18
14474.0	1.7184358079135741e+18
14475.0	1.7180878971076603e+18
14476.0	1.7172333579993085e+18
14477.0	1.7167349740208125e+18
14478.0	1.71639248561111e+18
14479.0	1.7160457039118328e+18
14480.0	1.7156898574827515e+18
14481.0	1.7153641311895547e+18
14482.0	1.715016577738342e+18
14483.0	1.7146668130500605e+18
14484.0	1.714322081526579e+18
14485.0	1.7139549440311293e+18
14486.0	1.7133610121297915e+18
14487.0	1.713293557655142e+18
14488.0	1.7128853411463163e+18
14489.0	1.712535992532992e+18
14490.0	1.7122534944145403e+18
14491.0	1.7119267363225597e+18
14492.0	1.7115836003123197e+18
14493.0	1.7112273394860027e+18
14494.0	1.7108740801036285e+18
14495.0	1.7105539305570304e+18
14496.0	1.7100828078768128e+18
14497.0	1.7098667089461243e+18
14498.0	1.7095245493698552e+18
14499.0	1.709181671728742e+18
14500.0	1.7088380911222784e+18
14501.0	1.7084434373148672e+18
14502.0	1.7078797513785341e+18
14503.0	1.7077717379842043e+18
14504.0	1.7074595374825472e+18
14505.0	1.7070747620999165e+18
14506.0	1.7066721810579453e+18
14507.0	1.7061590448734205e+18
14508.0	1.7060501187985403e+18
14509.0	1.7056711885979643e+18
14510.0	1.7053251518070781e+18
14511.0	1.7049846061989885e+18
14512.0	1.7046267028832253e+18
14513.0	1.704298585836748e+18
14514.0	1.7039213249691643e+18
14515.0	1.7036114783109115e+18
14516.0	1.7009612720963594e+18
14517.0	1.7029242634108928e+18
14518.0	1.7025833671589885e+18
14519.0	1.7022405515935741e+18
14520.0	1.7018968938119165e+18
14521.0	1.7015537695457275e+18
14522.0	1.7012045383729147e+18
14523.0	1.700687727978086e+18
14524.0	1.7004143700869112e+18
14525.0	1.700177843218022e+18
14526.0	1.6998382102904827e+18
14527.0	1.6994696685420544e+18
14528.0	1.6990247720058877e+18
14529.0	1.6988010461528061e+18
14530.0	1.6984528232906747e+18
14531.0	1.6981243606335485e+18
14532.0	1.697634023007846e+18
14533.0	1.6974397663346685e+18
14534.0	1.697099371721523e+18
14535.0	1.6967464730492928e+18
14536.0	1.6964104086355963e+18
14537.0	1.6960596775796733e+18
14538.0	1.695728970131046e+18
14539.0	1.6953865639297021e+18
14540.0	1.69504406545367e+18
14541.0	1.6946802297143293e+18
14542.0	1.6943568706863104e+18
14543.0	1.6939393948319741e+18
14544.0	1.6936730162626557e+18
14545.0	1.6933200504815613e+18
14546.0	1.6816903443972045e+18
14547.0	1.6823246791901115e+18
14548.0	1.69228891104215e+18
14549.0	1.691845480834662e+18
14550.0	1.691610415261286e+18
14551.0	1.6912762819051515e+18
14552.0	1.6909320520204285e+18
14553.0	1.6905838761345021e+18
14554.0	1.6902488753963003e+18
14555.0	1.689905835016192e+18
14556.0	1.6895609390759933e+18
14557.0	1.6892207508226048e+18
14558.0	1.6888764924166141e+18
14559.0	1.6868015299624937e+18
14560.0	1.6881584930029568e+18
14561.0	1.6878427323760637e+18
14562.0	1.6874679025270781e+18
14563.0	1.6871583310151675e+18
14564.0	1.6867476449001472e+18
14565.0	1.6864797479927805e+18
14566.0	1.6861372042182653e+18
14567.0	1.6857895618478077e+18
14568.0	1.6853698730786813e+18
14569.0	1.685106101688729e+18
14570.0	1.684236312091033e+18
14571.0	1.6839716213096438e+18
14572.0	1.683160609010483e+18
14573.0	1.682835161219072e+18
14574.0	1.6823721989767165e+18
14575.0	1.6821818430062587e+18
14576.0	1.6818355075809275e+18
14577.0	1.6815140343119867e+18
14578.0	1.6811719217119232e+18
14579.0	1.6808332786401277e+18
14580.0	1.6804891108311037e+18
14581.0	1.6801365225373693e+18
14582.0	1.6797917373267965e+18
14583.0	1.6794599930462203e+18
14584.0	1.6790774775545853e+18
14585.0	1.6787735113105405e+18
14586.0	1.6784277530214397e+18
14587.0	1.6780853451423736e+18
14588.0	1.677743673783091e+18
14589.0	1.67740824354816e+18
14590.0	1.6770731740233725e+18
14591.0	1.6767283871350781e+18
14592.0	1.676393987021209e+18
14593.0	1.67595360691159e+18
14594.0	1.6757294683389952e+18
14595.0	1.675388194599731e+18
14596.0	1.6746265895239672e+18
14597.0	1.6742096136306678e+18
14598.0	1.6743369828990976e+18
14599.0	1.674048166481101e+18
14600.0	1.6736985410437112e+18
14601.0	1.673369180805529e+18
14602.0	1.6730010920419325e+18
14603.0	1.6726952450719741e+18
14604.0	1.672284389507072e+18
14605.0	1.6719238102253563e+18
14606.0	1.6716141397278715e+18
14607.0	1.6713412499210235e+18
14608.0	1.671013562371276e+18
14609.0	1.6706606670544893e+18
14610.0	1.6701703059406848e+18
14611.0	1.6699755375624187e+18
14612.0	1.669668638661017e+18
14613.0	1.6693369111576576e+18
14614.0	1.668998335194726e+18
14615.0	1.6686597122555904e+18
14616.0	1.6683289712525307e+18
14617.0	1.6679917223673853e+18
14618.0	1.6676179410944e+18
14619.0	1.6669776906551283e+18
14620.0	1.665904794402816e+18
14621.0	1.6666423661166587e+18
14622.0	1.66630272312279e+18
14623.0	1.6659681804025856e+18
14624.0	1.6655742480154621e+18
14625.0	1.66528963093463e+18
14626.0	1.6649515918426107e+18
14627.0	1.6646088534523904e+18
14628.0	1.6642781158047741e+18
14629.0	1.6639393771028477e+18
14630.0	1.6635899412479997e+18
14631.0	1.6632617319268347e+18
14632.0	1.6622071731716096e+18
14633.0	1.6624537344933885e+18
14634.0	1.6622288124248067e+18
14635.0	1.6613321406939118e+18
14636.0	1.660337792011468e+18
14637.0	1.6612280514904056e+18
14638.0	1.6608626470813693e+18
14639.0	1.6605149929668603e+18
14640.0	1.6602036061601792e+18
14641.0	1.6570292931395564e+18
14642.0	1.659520553687449e+18
14643.0	1.6591815146733565e+18
14644.0	1.6588264651620347e+18
14645.0	1.6584781131153405e+18
14646.0	1.6581136163536893e+18
14647.0	1.657722911902924e+18
