# Flux units: erg / (cm m2 s)
# Wavelength units: Angstrom
wave	flux
14000.0	1.9938988521422843e+18
14001.0	1.9934364838133752e+18
14002.0	1.993102979602841e+18
14003.0	1.992699029540044e+18
14004.0	1.992293829574656e+18
14005.0	1.991888572566732e+18
14006.0	1.991477272405606e+18
14007.0	1.9910707722059773e+18
14008.0	1.9905901955645437e+18
14009.0	1.9902670177304573e+18
14010.0	1.9898520651694077e+18
14011.0	1.9889515044798461e+18
14012.0	1.989053798521241e+18
14013.0	1.9886498954346493e+18
14014.0	1.9882406722928635e+18
14015.0	1.9878392589451261e+18
14016.0	1.9874370486796283e+18
14017.0	1.98703301305303e+18
14018.0	1.9866288465641472e+18
14019.0	1.986225102861107e+18
14020.0	1.9858206511595517e+18
14021.0	1.9854163202539517e+18
14022.0	1.985012054779494e+18
14023.0	1.9845981625384952e+18
14024.0	1.9841934424014845e+18
14025.0	1.9838032026796027e+18
14026.0	1.983398693935513e+18
14027.0	1.9829972252229632e+18
14028.0	1.9825941727412221e+18
14029.0	1.982190818269593e+18
14030.0	1.9813277529800701e+18
14031.0	1.981360648067481e+18
14032.0	1.980980654191411e+18
14033.0	1.98054278898647e+18
14034.0	1.9801768040857592e+18
14035.0	1.979775518244864e+18
14036.0	1.9793733817991163e+18
14037.0	1.9789712570974205e+18
14038.0	1.978569206215475e+18
14039.0	1.978163640506777e+18
14040.0	1.9777587794411515e+18
14041.0	1.9773605688639483e+18
14042.0	1.9769518658158587e+18
14043.0	1.9765275884781563e+18
14044.0	1.97614929748951e+18
14045.0	1.9757551906193405e+18
14046.0	1.9753521616257021e+18
14047.0	1.9749483860459515e+18
14048.0	1.974552215578214e+18
14049.0	1.9741527483875325e+18
14050.0	1.9737518618443773e+18
14051.0	1.9733436671459325e+18
14052.0	1.9729501961322493e+18
14053.0	1.972549606545817e+18
14054.0	1.9721490891014141e+18
14055.0	1.9717486521876477e+18
14056.0	1.97134828741591e+18
14057.0	1.970948063572787e+18
14058.0	1.970547905160806e+18
14059.0	1.9701478507675643e+18
14060.0	1.9697478819381245e+18
14061.0	1.9693425125228541e+18
14062.0	1.9689482043260925e+18
14063.0	1.968535248253747e+18
14064.0	1.9680715780128765e+18
14065.0	1.967742429167616e+18
14066.0	1.967350055383859e+18
14067.0	1.966945481208627e+18
14068.0	1.9665515991531517e+18
14069.0	1.966150974334566e+18
14070.0	1.9657531546664952e+18
14071.0	1.9653521993367547e+18
14072.0	1.9649556916469755e+18
14073.0	1.9645569710424061e+18
14074.0	1.9641583913664507e+18
14075.0	1.963744916878131e+18
14076.0	1.9633550697431037e+18
14077.0	1.9628588265373693e+18
14078.0	1.9625567896731643e+18
14079.0	1.9621579986042877e+18
14080.0	1.9617686010986493e+18
14081.0	1.961370645535129e+18
14082.0	1.9609689503301632e+18
14083.0	1.960573719386521e+18
14084.0	1.9601769533276155e+18
14085.0	1.9595377145544701e+18
14086.0	1.959372992492339e+18
14087.0	1.9589847459037181e+18
14088.0	1.9585772290047997e+18
14089.0	1.9581854172577787e+18
14090.0	1.9577914882260987e+18
14091.0	1.9573961952067581e+18
14092.0	1.95699932177367e+18
14093.0	1.9566024852504573e+18
14094.0	1.95620571751383e+18
14095.0	1.9558089044787197e+18
14096.0	1.955389115046297e+18
14097.0	1.955003353163366e+18
14098.0	1.9546096674013181e+18
14099.0	1.954223308249497e+18
14100.0	1.953817371764326e+18
14101.0	1.9534312776925181e+18
14102.0	1.9530350921252861e+18
14103.0	1.9526274561081341e+18
14104.0	1.9522436336713728e+18
14105.0	1.95184750011351e+18
14106.0	1.951452208771891e+18
14107.0	1.9510555383431165e+18
14108.0	1.9506514137972733e+18
14109.0	1.95026176966656e+18
14110.0	1.9498657283833853e+18
14111.0	1.9494645566275581e+18
14112.0	1.9490737481580541e+18
14113.0	1.9486854243942392e+18
14114.0	1.9482793402695677e+18
14115.0	1.947894355171737e+18
14116.0	1.9474770789662712e+18
14117.0	1.9463141511397373e+18
14118.0	1.9467108215685117e+18
14119.0	1.94630015558615e+18
14120.0	1.9459119173861373e+18
14121.0	1.9455167552290816e+18
14122.0	1.945120177074995e+18
14123.0	1.9447278603337725e+18
14124.0	1.9443323844427773e+18
14125.0	1.9435625132326907e+18
14126.0	1.9435589212307453e+18
14127.0	1.9431659099127805e+18
14128.0	1.9427713869676541e+18
14129.0	1.9420213967585277e+18
14130.0	1.94156856124375e+18
14131.0	1.94119312909271e+18
14132.0	1.9407947691982845e+18
14133.0	1.9399745847951355e+18
14134.0	1.940012974420787e+18
14135.0	1.939607529508044e+18
14136.0	1.9392071496368125e+18
14137.0	1.9388332945440763e+18
14138.0	1.938433342491852e+18
14139.0	1.9380496794386424e+18
14140.0	1.9376500780302333e+18
14141.0	1.9372590548123645e+18
14142.0	1.936808994249113e+18
14143.0	1.9364747216420861e+18
14144.0	1.9360890151239677e+18
14145.0	1.935478636517785e+18
14146.0	1.93505283580887e+18
14147.0	1.9346613428289528e+18
14148.0	1.934268547937075e+18
14149.0	1.9338772076298235e+18
14150.0	1.9334882681421821e+18
14151.0	1.9330912571359227e+18
14152.0	1.932705834152755e+18
14153.0	1.9323145861201915e+18
14154.0	1.9319020947767293e+18
14155.0	1.9314933615296507e+18
14156.0	1.9311352602427387e+18
14157.0	1.9307511408492541e+18
14158.0	1.930356961837056e+18
14159.0	1.929969921530265e+18
14160.0	1.929573125272371e+18
14161.0	1.92913958020055e+18
14162.0	1.9287091540131835e+18
14163.0	1.9284067916709883e+18
14164.0	1.927984759124787e+18
14165.0	1.9275477529133053e+18
14166.0	1.9272360641167355e+18
14167.0	1.9268364392202235e+18
14168.0	1.9264562725388288e+18
14169.0	1.926069396648755e+18
14170.0	1.9256764943826941e+18
14171.0	1.9252880548560893e+18
14172.0	1.9249009910611965e+18
14173.0	1.9244654058799104e+18
14174.0	1.9241179816132603e+18
14175.0	1.9237335249977341e+18
14176.0	1.9233445569888253e+18
14177.0	1.9229556443447293e+18
14178.0	1.9225655908499453e+18
14179.0	1.9221412833132541e+18
14180.0	1.9217056746438653e+18
14181.0	1.9213168911843325e+18
14182.0	1.9209275221999616e+18
14183.0	1.920539545724518e+18
14184.0	1.9201466484916221e+18
14185.0	1.9197621834874872e+18
14186.0	1.9192134611501053e+18
14187.0	1.9189647255011328e+18
14188.0	1.9185967508226043e+18
14189.0	1.9182075949088765e+18
14190.0	1.9178202878443517e+18
14191.0	1.9174319842131965e+18
14192.0	1.917038749758259e+18
14193.0	1.9166336756219904e+18
14194.0	1.9162685799137275e+18
14195.0	1.9158831216984061e+18
14196.0	1.915495447212851e+18
14197.0	1.915078766598553e+18
14198.0	1.9146328516853752e+18
14199.0	1.914247163622195e+18
14200.0	1.9137742441021437e+18
14201.0	1.9134698416504824e+18
14202.0	1.9130876919021565e+18
14203.0	1.9126904544034816e+18
14204.0	1.9123110393413632e+18
14205.0	1.911924235593318e+18
14206.0	1.9114336865746944e+18
14207.0	1.9111527218937856e+18
14208.0	1.9107664298508283e+18
14209.0	1.910268092848537e+18
14210.0	1.9099136976486397e+18
14211.0	1.909602802414387e+18
14212.0	1.9092200184872955e+18
14213.0	1.908833671079526e+18
14214.0	1.908447823632793e+18
14215.0	1.908052606110924e+18
14216.0	1.9076768182829056e+18
14217.0	1.9072466991185915e+18
14218.0	1.9068114377375741e+18
14219.0	1.9064355224027133e+18
14220.0	1.9060497789747192e+18
14221.0	1.9056594100682747e+18
14222.0	1.9052377734643707e+18
14223.0	1.904867147985715e+18
14224.0	1.9044817803673597e+18
14225.0	1.9038321028104195e+18
14226.0	1.903710009976422e+18
14227.0	1.903326274781184e+18
14228.0	1.9023126574661632e+18
14229.0	1.902423390447206e+18
14230.0	1.9021711114502144e+18
14231.0	1.9017777410998272e+18
14232.0	1.9014013375479803e+18
14233.0	1.9010125473775613e+18
14234.0	1.900632048507289e+18
14235.0	1.9002453521334272e+18
14236.0	1.899862819864576e+18
14237.0	1.8994773784264704e+18
14238.0	1.8990937287950333e+18
14239.0	1.898704720520806e+18
14240.0	1.8969786453065728e+18
14241.0	1.8978570130948096e+18
14242.0	1.8974735798894587e+18
14243.0	1.89695882470359e+18
14244.0	1.8967057538220032e+18
14245.0	1.896307848590131e+18
14246.0	1.8959202160476155e+18
14247.0	1.8955500787859456e+18
14248.0	1.8951573996568579e+18
14249.0	1.8947850075373563e+18
14250.0	1.8944012236881915e+18
14251.0	1.8940198440140797e+18
14252.0	1.8936363319558141e+18
14253.0	1.8932522981261307e+18
14254.0	1.8928676200513533e+18
14255.0	1.8924589438468093e+18
14256.0	1.8918241392918525e+18
14257.0	1.8917038550417403e+18
14258.0	1.8913372829384696e+18
14259.0	1.8909378493022203e+18
14260.0	1.8905606471548925e+18
14261.0	1.8901718888611837e+18
14262.0	1.8898262647898107e+18
14263.0	1.8890356955283459e+18
14264.0	1.8889736718385147e+18
14265.0	1.8886305945485307e+18
14266.0	1.8882154977034237e+18
14267.0	1.887833178505216e+18
14268.0	1.887450876084224e+18
14269.0	1.88706642282414e+18
14270.0	1.8866863198961661e+18
14271.0	1.8863029688991741e+18
14272.0	1.8859217804853243e+18
14273.0	1.885537701357158e+18
14274.0	1.884531076785766e+18
14275.0	1.8847173206605824e+18
14276.0	1.8843786155130877e+18
14277.0	1.8839989605367805e+18
14278.0	1.8836311183982587e+18
14279.0	1.883248738802073e+18
14280.0	1.8828624031383547e+18
14281.0	1.8824870901055483e+18
14282.0	1.8821060828856315e+18
14283.0	1.8817248961495035e+18
14284.0	1.881343759745024e+18
14285.0	1.880962534421299e+18
14286.0	1.8805807571271675e+18
14287.0	1.8802007062085627e+18
14288.0	1.8798193131126781e+18
14289.0	1.8786118837207025e+18
14290.0	1.8790563742482427e+18
14291.0	1.878677024617267e+18
14292.0	1.878297421650329e+18
14293.0	1.8775014887129083e+18
14294.0	1.8766810560069627e+18
14295.0	1.876405431513907e+18
14296.0	1.8754298800242683e+18
14297.0	1.8756541914021883e+18
14298.0	1.8751000533794813e+18
14299.0	1.874883707823718e+18
14300.0	1.8745091262775293e+18
14301.0	1.8741314644344824e+18
14302.0	1.8737535207342077e+18
14303.0	1.873345342812979e+18
14304.0	1.8729807101558784e+18
14305.0	1.8726136481579003e+18
14306.0	1.872214597042176e+18
14307.0	1.871845825445888e+18
14308.0	1.871473819202355e+18
14309.0	1.871089730007859e+18
14310.0	1.8706178053767163e+18
14311.0	1.8702517936324603e+18
14312.0	1.8699152544235517e+18
14313.0	1.8695027010043907e+18
14314.0	1.869195572255129e+18
14315.0	1.8688208699129853e+18
14316.0	1.8683988289781755e+18
14317.0	1.8680517738102781e+18
14318.0	1.8676860237905917e+18
14319.0	1.8673081170001917e+18
14320.0	1.8669292522307584e+18
14321.0	1.8665512783314941e+18
14322.0	1.8661391460204541e+18
14323.0	1.8657778990055421e+18
14324.0	1.86541644227543e+18
14325.0	1.864956825409945e+18
14326.0	1.8645779522519037e+18
14327.0	1.8641939637207035e+18
14328.0	1.8638158841249787e+18
14329.0	1.8634432655130621e+18
14330.0	1.8630651691401208e+18
14331.0	1.8626868781514747e+18
14332.0	1.8623091475218432e+18
14333.0	1.8619312994516987e+18
14334.0	1.8615534815805437e+18
14335.0	1.8611646293344253e+18
14336.0	1.8607669975711741e+18
14337.0	1.8604199591804925e+18
14338.0	1.8600411782971387e+18
14339.0	1.859655636195737e+18
14340.0	1.8592877185597437e+18
14341.0	1.8589087531270141e+18
14342.0	1.8585334652600312e+18
14343.0	1.8581524060307456e+18
14344.0	1.8577740697436152e+18
14345.0	1.857402055111475e+18
14346.0	1.857022180353638e+18
14347.0	1.8566314524147707e+18
14348.0	1.856270485579366e+18
14349.0	1.855894613865267e+18
14350.0	1.855496186861977e+18
14351.0	1.855113132821708e+18
14352.0	1.8547574105440253e+18
14353.0	1.8543869998137336e+18
14354.0	1.8540085913845755e+18
14355.0	1.8536275002785787e+18
14356.0	1.8532532676984827e+18
14357.0	1.852883439137587e+18
14358.0	1.85250712953815e+18
14359.0	1.852118136363417e+18
14360.0	1.8517529366364155e+18
14361.0	1.851358410335846e+18
14362.0	1.850923179153817e+18
14363.0	1.8505467940569088e+18
14364.0	1.8501010519490555e+18
14365.0	1.8497800484421627e+18
14366.0	1.849406862760345e+18
14367.0	1.8490435236265981e+18
14368.0	1.8486673398562808e+18
14369.0	1.8482921140649981e+18
14370.0	1.8479165510516733e+18
14371.0	1.8475411038011387e+18
14372.0	1.847161096503296e+18
14373.0	1.8467899291205632e+18
14374.0	1.8464144902586365e+18
14375.0	1.8460382813224952e+18
14376.0	1.845664337310515e+18
14377.0	1.8452886434349053e+18
14378.0	1.8449117936091133e+18
14379.0	1.8445390441349117e+18
14380.0	1.844162955994726e+18
14381.0	1.8437792459653115e+18
14382.0	1.843412972496486e+18
14383.0	1.8430338275475453e+18
14384.0	1.8426484532183037e+18
14385.0	1.8422902361686008e+18
14386.0	1.8419028049526784e+18
14387.0	1.8415409271144443e+18
14388.0	1.8411648188415997e+18
14389.0	1.8407919737372664e+18
14390.0	1.8404162144305147e+18
14391.0	1.8400435773636605e+18
14392.0	1.839667932141977e+18
14393.0	1.8392955551219702e+18
14394.0	1.8388891824291835e+18
14395.0	1.8385366914433021e+18
14396.0	1.838173427807027e+18
14397.0	1.8377997052542976e+18
14398.0	1.8374250448551933e+18
14399.0	1.8370518222635003e+18
14400.0	1.8366621345120253e+18
14401.0	1.8362984967438333e+18
14402.0	1.8358953905750016e+18
14403.0	1.8340672545226732e+18
14404.0	1.8303989296660465e+18
14405.0	1.833346283864061e+18
14406.0	1.8343563192434685e+18
14407.0	1.8320239070543875e+18
14408.0	1.8335914979753981e+18
14409.0	1.8332217113575421e+18
14410.0	1.8328593637572605e+18
14411.0	1.8324910065582077e+18
14412.0	1.8321155928621053e+18
14413.0	1.831745522709299e+18
14414.0	1.831370051970662e+18
14415.0	1.8309978846658555e+18
14416.0	1.8306238785781755e+18
14417.0	1.8302443125211133e+18
14418.0	1.8298627231318013e+18
14419.0	1.8295049825550333e+18
14420.0	1.8291288323391488e+18
14421.0	1.8287596782223355e+18
14422.0	1.828382549894758e+18
14423.0	1.8279991284334587e+18
14424.0	1.8196674304278484e+18
14425.0	1.827254629407129e+18
14426.0	1.826895898974617e+18
14427.0	1.8265247517245437e+18
14428.0	1.8256466506940413e+18
14429.0	1.8251428208312317e+18
14430.0	1.8247749686263805e+18
14431.0	1.8242821731385341e+18
14432.0	1.824022745369804e+18
14433.0	1.8222677395242998e+18
14434.0	1.8232696379539456e+18
14435.0	1.8228896960872443e+18
14436.0	1.822541389339033e+18
14437.0	1.8221694871142397e+18
14438.0	1.821749917463347e+18
14439.0	1.8214131718946813e+18
14440.0	1.8210528744701947e+18
14441.0	1.8206747428651e+18
14442.0	1.8202989785251837e+18
14443.0	1.8198925253017592e+18
14444.0	1.8195618480521216e+18
14445.0	1.8191935512510461e+18
14446.0	1.8167838900486152e+18
14447.0	1.8184363132846075e+18
14448.0	1.818079951794995e+18
14449.0	1.817708730725171e+18
14450.0	1.817332458035609e+18
14451.0	1.8169557256503293e+18
14452.0	1.8165142902538237e+18
14453.0	1.816119190172467e+18
14454.0	1.815772765827891e+18
14455.0	1.815393609134899e+18
14456.0	1.8150237184983035e+18
14457.0	1.8146494104207355e+18
14458.0	1.8142837929410555e+18
14459.0	1.8139099294597115e+18
14460.0	1.8135374014447608e+18
14461.0	1.8131388687450107e+18
14462.0	1.8127208191098875e+18
14463.0	1.8124157069819904e+18
14464.0	1.8120547451797496e+18
14465.0	1.811666169757696e+18
14466.0	1.811312633551257e+18
14467.0	1.8109114064306176e+18
14468.0	1.8105680338616317e+18
14469.0	1.8101772136480765e+18
14470.0	1.8098061737721853e+18
14471.0	1.8094511494266877e+18
14472.0	1.8090840974950397e+18
14473.0	1.8087178508697592e+18
14474.0	1.8083485189144576e+18
14475.0	1.8079743131779072e+18
14476.0	1.8075136594804733e+18
14477.0	1.8072367615967227e+18
14478.0	1.8068665186385915e+18
14479.0	1.8064948395507707e+18
14480.0	1.806109995381555e+18
14481.0	1.8057552294051837e+18
14482.0	1.80538131391447e+18
14483.0	1.8050049053294587e+18
14484.0	1.804633717814067e+18
14485.0	1.8042395572568061e+18
14486.0	1.803636763629977e+18
14487.0	1.8035313272160253e+18
14488.0	1.8031523835936763e+18
14489.0	1.8027811642015741e+18
14490.0	1.8024190112169981e+18
14491.0	1.8020503889379323e+18
14492.0	1.8016817884692477e+18
14493.0	1.8013073948278781e+18
14494.0	1.8009227217862653e+18
14495.0	1.8005709421543421e+18
14496.0	1.8000808981299197e+18
14497.0	1.7998300200304637e+18
14498.0	1.7994609766432763e+18
14499.0	1.7990912789446653e+18
14500.0	1.7987208883470339e+18
14501.0	1.7983036607954944e+18
14502.0	1.797760382664704e+18
14503.0	1.797593736255897e+18
14504.0	1.7972354739077117e+18
14505.0	1.796827681862451e+18
14506.0	1.7964132426842112e+18
14507.0	1.795911568693657e+18
14508.0	1.7956872304721915e+18
14509.0	1.7953174404988925e+18
14510.0	1.794944744711782e+18
14511.0	1.794577068667699e+18
14512.0	1.7941929845063677e+18
14513.0	1.7938370491580413e+18
14514.0	1.7934354260951037e+18
14515.0	1.793095685793382e+18
14516.0	1.7906405801459725e+18
14517.0	1.7923539415859197e+18
14518.0	1.7919868024127485e+18
14519.0	1.7916171483348987e+18
14520.0	1.7912472375656443e+18
14521.0	1.790876575177113e+18
14522.0	1.7905059295657981e+18
14523.0	1.790032337279385e+18
14524.0	1.7896664563974141e+18
14525.0	1.7893923250765821e+18
14526.0	1.7890276521541627e+18
14527.0	1.7886346861346813e+18
14528.0	1.7881744870998013e+18
14529.0	1.7879074676408317e+18
14530.0	1.787531886172569e+18
14531.0	1.7871756622561275e+18
14532.0	1.7866739278675963e+18
14533.0	1.785681318982451e+18
14534.0	1.785305576452915e+18
14535.0	1.7849256849178621e+18
14536.0	1.784561854211686e+18
14537.0	1.7841843047759872e+18
14538.0	1.7838253931495421e+18
14539.0	1.783455467280793e+18
14540.0	1.7830853887393787e+18
14541.0	1.7826947581083648e+18
14542.0	1.7823430237749243e+18
14543.0	1.781904648542617e+18
14544.0	1.78160367870935e+18
14545.0	1.7812269782007803e+18
14546.0	1.771415962596142e+18
14547.0	1.771883078877178e+18
14548.0	1.780109320336179e+18
14549.0	1.7796461953548285e+18
14550.0	1.779378333679616e+18
14551.0	1.7790142144053243e+18
14552.0	1.7786426812792832e+18
14553.0	1.7782673548247035e+18
14554.0	1.777903787520819e+18
14555.0	1.777533126810009e+18
14556.0	1.777160774955827e+18
14557.0	1.7767927734337533e+18
14558.0	1.7764211916537856e+18
14559.0	1.7745199673376742e+18
14560.0	1.7756758118236155e+18
14561.0	1.7753053138518016e+18
14562.0	1.7749186862645243e+18
14563.0	1.7745696278970365e+18
14564.0	1.7741897363619837e+18
14565.0	1.7738304086605821e+18
14566.0	1.773460039873331e+18
14567.0	1.773088682908057e+18
14568.0	1.772703956179353e+18
14569.0	1.7723475342917632e+18
14570.0	1.7715472912875515e+18
14571.0	1.7716038858702848e+18
14572.0	1.7711793786847227e+18
14573.0	1.7707494356811776e+18
14574.0	1.770395506887884e+18
14575.0	1.77004602237911e+18
14576.0	1.7696732645163005e+18
14577.0	1.7693018320535547e+18
14578.0	1.7689352079409147e+18
14579.0	1.7685659498053627e+18
14580.0	1.7681949686497275e+18
14581.0	1.7678194828115963e+18
14582.0	1.7674519057530875e+18
14583.0	1.767081186322022e+18
14584.0	1.7666975954108413e+18
14585.0	1.7663383046193147e+18
14586.0	1.7659639713759227e+18
14587.0	1.7655937670053885e+18
14588.0	1.7652241028612093e+18
14589.0	1.7648606999740416e+18
14590.0	1.7644974749253627e+18
14591.0	1.7641327449604093e+18
14592.0	1.7637652064894976e+18
14593.0	1.7633019523235835e+18
14594.0	1.7630429708287997e+18
14595.0	1.7626743418388475e+18
14596.0	1.7622475177197565e+18
14597.0	1.7618769039851515e+18
14598.0	1.7615802794508285e+18
14599.0	1.7612240890888187e+18
14600.0	1.7608582333726715e+18
14601.0	1.760494666068787e+18
14602.0	1.7601257636102141e+18
14603.0	1.7597652145274875e+18
14604.0	1.7593602511208443e+18
14605.0	1.759022208673382e+18
14606.0	1.7586132153794557e+18
14607.0	1.758297001767731e+18
14608.0	1.7579391789826048e+18
14609.0	1.7575677985292285e+18
14610.0	1.7571903766003707e+18
14611.0	1.7568392848343035e+18
14612.0	1.7564808714911744e+18
14613.0	1.756116643164979e+18
14614.0	1.7557482389897213e+18
14615.0	1.7553848042258424e+18
14616.0	1.7550203057864704e+18
14617.0	1.754654257132339e+18
14618.0	1.7542831434366976e+18
14619.0	1.7538732693389307e+18
14620.0	1.7533907264077824e+18
14621.0	1.7531903376621565e+18
14622.0	1.7528215107010557e+18
14623.0	1.7524578746105853e+18
14624.0	1.752038578428313e+18
14625.0	1.7517217021165565e+18
14626.0	1.751355317918105e+18
14627.0	1.7509841924784123e+18
14628.0	1.750281668368793e+18
14629.0	1.7498122334765053e+18
14630.0	1.749443312562995e+18
14631.0	1.7490767790473213e+18
14632.0	1.7480770717220867e+18
14633.0	1.7482519876206587e+18
14634.0	1.747970205889331e+18
14635.0	1.7475484233236472e+18
14636.0	1.747103154333286e+18
14637.0	1.7468692379992061e+18
14638.0	1.7464968190361597e+18
14639.0	1.746120239323545e+18
14640.0	1.745757123326771e+18
14641.0	1.7429096891940844e+18
14642.0	1.7450172699115517e+18
14643.0	1.7446535717453821e+18
14644.0	1.7442738949586941e+18
14645.0	1.7438936192253947e+18
14646.0	1.7435332211376125e+18
14647.0	1.7431567186001915e+18
14648.0	1.7428001759166461e+18
