# Flux units: erg / (cm m2 s)
# Wavelength units: Angstrom
wave	flux
14000.0	2.141733862873497e+18
14001.0	2.1414124432916477e+18
14002.0	2.1410594053685245e+18
14003.0	2.140634176762675e+18
14004.0	2.1402071865491453e+18
14005.0	2.1397795353133053e+18
14006.0	2.1393456479862781e+18
14007.0	2.1389154432581627e+18
14008.0	2.13841296228352e+18
14009.0	2.1380632764481533e+18
14010.0	2.1376262350045181e+18
14011.0	2.1367009111441403e+18
14012.0	2.136781841078681e+18
14013.0	2.1363589126291448e+18
14014.0	2.1359268892508157e+18
14015.0	2.135503301456691e+18
14016.0	2.1350782909546493e+18
14017.0	2.1346515943423992e+18
14018.0	2.1342247450574843e+18
14019.0	2.133798102132326e+18
14020.0	2.1333707344314365e+18
14021.0	2.1329432996216827e+18
14022.0	2.132512135236812e+18
14023.0	2.1320720051077115e+18
14024.0	2.1316470969466872e+18
14025.0	2.1312374526967805e+18
14026.0	2.1308114338840573e+18
14027.0	2.1303867505377277e+18
14028.0	2.1299535879864312e+18
14029.0	2.129523024225894e+18
14030.0	2.1273135907078152e+18
14031.0	2.1285724674326525e+18
14032.0	2.1282513213194237e+18
14033.0	2.127786350844313e+18
14034.0	2.127403734689382e+18
14035.0	2.126983034254131e+18
14036.0	2.1265524772044795e+18
14037.0	2.1261194572595195e+18
14038.0	2.12569138659328e+18
14039.0	2.1252629199847424e+18
14040.0	2.1248377098338296e+18
14041.0	2.1244161252392957e+18
14042.0	2.1239843333865464e+18
14043.0	2.1235366115672061e+18
14044.0	2.123136063923814e+18
14045.0	2.122719099774566e+18
14046.0	2.1222924165840893e+18
14047.0	2.1218609300766715e+18
14048.0	2.121447834753433e+18
14049.0	2.121026206538137e+18
14050.0	2.1206029073121275e+18
14051.0	2.1201721841680381e+18
14052.0	2.1197519333621763e+18
14053.0	2.1193329660133368e+18
14054.0	2.1189100845400061e+18
14055.0	2.1184870805929981e+18
14056.0	2.1180641538211835e+18
14057.0	2.1176413595893755e+18
14058.0	2.117218635821875e+18
14059.0	2.1167960143953917e+18
14060.0	2.1163734332342272e+18
14061.0	2.1159454179328e+18
14062.0	2.115528205480755e+18
14063.0	2.1150904359059453e+18
14064.0	2.114386599818035e+18
14065.0	2.114254328247091e+18
14066.0	2.1138402111913981e+18
14067.0	2.113404881023795e+18
14068.0	2.1129966527709176e+18
14069.0	2.1125716254916603e+18
14070.0	2.1121520122200061e+18
14071.0	2.1117297263378435e+18
14072.0	2.1113108344864763e+18
14073.0	2.110889531749171e+18
14074.0	2.110468130026291e+18
14075.0	2.1100296776187901e+18
14076.0	2.109607839688294e+18
14077.0	2.1087998741315584e+18
14078.0	2.108750336045875e+18
14079.0	2.1083529660071933e+18
14080.0	2.1079430617104376e+18
14081.0	2.1075230373969915e+18
14082.0	2.1071008471449597e+18
14083.0	2.106680546007449e+18
14084.0	2.1062568055406584e+18
14085.0	2.1054506636673021e+18
14086.0	2.1053814022864886e+18
14087.0	2.1050003631898621e+18
14088.0	2.1045675512823805e+18
14089.0	2.1041501878353917e+18
14090.0	2.1037387014471677e+18
14091.0	2.1033238730375165e+18
14092.0	2.1029050365509627e+18
14093.0	2.1024856262836214e+18
14094.0	2.1020657227661312e+18
14095.0	2.1016434419171325e+18
14096.0	2.1011582163091456e+18
14097.0	2.1007685889556477e+18
14098.0	2.100355923129139e+18
14099.0	2.0999694247264253e+18
14100.0	2.099543419335475e+18
14101.0	2.099135649100595e+18
14102.0	2.0987173444517888e+18
14103.0	2.0982874903674875e+18
14104.0	2.097867551617843e+18
14105.0	2.0974295723278333e+18
14106.0	2.0970116921425917e+18
14107.0	2.096593223077068e+18
14108.0	2.0961648588095483e+18
14109.0	2.0957533539663872e+18
14110.0	2.095336431760179e+18
14111.0	2.0949124933222397e+18
14112.0	2.0944967220330493e+18
14113.0	2.0940792260460536e+18
14114.0	2.0936548279123968e+18
14115.0	2.09324218557399e+18
14116.0	2.0927472728014843e+18
14117.0	2.0892587929894917e+18
14118.0	2.0919688066236416e+18
14119.0	2.0915230242504701e+18
14120.0	2.0911223239344128e+18
14121.0	2.090727057758617e+18
14122.0	2.0903050923212797e+18
14123.0	2.0898823232552955e+18
14124.0	2.089461132925337e+18
14125.0	2.0886786100166648e+18
14126.0	2.088658386760499e+18
14127.0	2.0882542924136445e+18
14128.0	2.087838739228262e+18
14129.0	2.0874137404702717e+18
14130.0	2.0869891443654653e+18
14131.0	2.0865933614514173e+18
14132.0	2.0861675271880701e+18
14133.0	2.085290934429285e+18
14134.0	2.085340594988646e+18
14135.0	2.084907830057369e+18
14136.0	2.0844775095664635e+18
14137.0	2.0840883033210875e+18
14138.0	2.0836565617999867e+18
14139.0	2.0832693537210363e+18
14140.0	2.0828482070118397e+18
14141.0	2.082386845315891e+18
14142.0	2.081827878810419e+18
14143.0	2.081601696772915e+18
14144.0	2.081199407654502e+18
14145.0	2.0807874397601787e+18
14146.0	2.0803682392080381e+18
14147.0	2.0799570631983107e+18
14148.0	2.0795400722055163e+18
14149.0	2.0791271446544376e+18
14150.0	2.0787204682940416e+18
14151.0	2.0782956154978301e+18
14152.0	2.0778938548617216e+18
14153.0	2.0774804273496061e+18
14154.0	2.0770433590624253e+18
14155.0	2.0765964761038843e+18
14156.0	2.0762320967827448e+18
14157.0	2.075827707156889e+18
14158.0	2.0754115986456573e+18
14159.0	2.075002152366899e+18
14160.0	2.0745805543505917e+18
14161.0	2.0741253633146877e+18
14162.0	2.0736698333790205e+18
14163.0	2.073341416020377e+18
14164.0	2.0728458673913853e+18
14165.0	2.0724762183467003e+18
14166.0	2.0721103139766267e+18
14167.0	2.0716889474859008e+18
14168.0	2.0712873210675197e+18
14169.0	2.070879904831897e+18
14170.0	2.0704642862153725e+18
14171.0	2.0700547191406592e+18
14172.0	2.069645521164697e+18
14173.0	2.0692040757018621e+18
14174.0	2.068816522012262e+18
14175.0	2.0684119662919675e+18
14176.0	2.0680004950032381e+18
14177.0	2.0675899649163261e+18
14178.0	2.0671783560544253e+18
14179.0	2.066762479068774e+18
14180.0	2.0663576012259328e+18
14181.0	2.0659468832342008e+18
14182.0	2.0655354639548408e+18
14183.0	2.0651250764742653e+18
14184.0	2.0647087481815037e+18
14185.0	2.0642937419333627e+18
14186.0	2.0633138921209853e+18
14187.0	2.0634364043853821e+18
14188.0	2.0630678441820155e+18
14189.0	2.0626585019219963e+18
14190.0	2.062249661300736e+18
14191.0	2.0618375793213437e+18
14192.0	2.0614240880558077e+18
14193.0	2.060928702165811e+18
14194.0	2.0606109182066688e+18
14195.0	2.0602075134033912e+18
14196.0	2.059798709692006e+18
14197.0	2.0593896694218752e+18
14198.0	2.0589762452652027e+18
14199.0	2.0585682518933501e+18
14200.0	2.0578131446333437e+18
14201.0	2.0577215544557565e+18
14202.0	2.0573446425542653e+18
14203.0	2.0569307587018747e+18
14204.0	2.056526114062336e+18
14205.0	2.0561172365311997e+18
14206.0	2.055471778444083e+18
14207.0	2.0551613596827645e+18
14208.0	2.0547544350195707e+18
14209.0	2.054229470897766e+18
14210.0	2.0538535572406264e+18
14211.0	2.0535253663743997e+18
14212.0	2.0531218743295997e+18
14213.0	2.0527126612541437e+18
14214.0	2.0523061241446397e+18
14215.0	2.051889480440217e+18
14216.0	2.0514919594065915e+18
14217.0	2.0510843938537467e+18
14218.0	2.0506655204573181e+18
14219.0	2.050269287913881e+18
14220.0	2.0498577662935035e+18
14221.0	2.0494224344481787e+18
14222.0	2.0489877569142781e+18
14223.0	2.0486102997532667e+18
14224.0	2.0480708870930427e+18
14225.0	2.0466063753871365e+18
14226.0	2.047218482046566e+18
14227.0	2.0468311649157117e+18
14228.0	2.0439645577805827e+18
14229.0	2.045544350770788e+18
14230.0	2.0456144795336701e+18
14231.0	2.0451876621254653e+18
14232.0	2.0448052070318075e+18
14233.0	2.0443960140890107e+18
14234.0	2.0439927485366267e+18
14235.0	2.0435843290234877e+18
14236.0	2.0431800903925755e+18
14237.0	2.042772598659481e+18
14238.0	2.0423664054829048e+18
14239.0	2.041947684759142e+18
14240.0	2.0402436984274944e+18
14241.0	2.0411262823301115e+18
14242.0	2.0407343162327037e+18
14243.0	2.0401987723984893e+18
14244.0	2.0397845546795003e+18
14245.0	2.0393688454660093e+18
14246.0	2.0389613419888635e+18
14247.0	2.0385638477987835e+18
14248.0	2.0381498381172733e+18
14249.0	2.037755372214681e+18
14250.0	2.0373497360416763e+18
14251.0	2.0369462725181437e+18
14252.0	2.0365404283076605e+18
14253.0	2.0361334533128184e+18
14254.0	2.0357244113649661e+18
14255.0	2.0352821085863933e+18
14256.0	2.0338012760047619e+18
14257.0	2.0343589171101693e+18
14258.0	2.0341007241445373e+18
14259.0	2.0336827550400507e+18
14260.0	2.0332598584672256e+18
14261.0	2.0328691976372224e+18
14262.0	2.0324940590874621e+18
14263.0	2.030479927463117e+18
14264.0	2.0312251361656827e+18
14265.0	2.0312820209942525e+18
14266.0	2.030867622081331e+18
14267.0	2.0303444061454333e+18
14268.0	2.0299410214748155e+18
14269.0	2.0295282449186819e+18
14270.0	2.0291317221294075e+18
14271.0	2.0287248964517883e+18
14272.0	2.0283143948861437e+18
14273.0	2.027870593902182e+18
14274.0	2.0249258552721416e+18
14275.0	2.026774246457344e+18
14276.0	2.026678022412697e+18
14277.0	2.026290299273216e+18
14278.0	2.025900688696934e+18
14279.0	2.0254978241200125e+18
14280.0	2.0250904934481917e+18
14281.0	2.0246938179862525e+18
14282.0	2.024291153058201e+18
14283.0	2.0238881307754493e+18
14284.0	2.0234850145402875e+18
14285.0	2.0230814335762427e+18
14286.0	2.0226773476179963e+18
14287.0	2.0222752799588347e+18
14288.0	2.0218679123771387e+18
14289.0	2.020627574475979e+18
14290.0	2.021062496957235e+18
14291.0	2.020664142095974e+18
14292.0	2.0201142587752445e+18
14293.0	2.0197040071901181e+18
14294.0	2.0191831450976253e+18
14295.0	2.0188823010934776e+18
14296.0	2.017819051740365e+18
14297.0	2.018078409044787e+18
14298.0	2.0172954734166016e+18
14299.0	2.0172675645177853e+18
14300.0	2.0168798849990656e+18
14301.0	2.0164813120339965e+18
14302.0	2.0160809606840315e+18
14303.0	2.015646299927347e+18
14304.0	2.0152608282902525e+18
14305.0	2.0148697178308605e+18
14306.0	2.0144433383079933e+18
14307.0	2.014042879583846e+18
14308.0	2.0136493666271227e+18
14309.0	2.0132313270583296e+18
14310.0	2.0127508611465216e+18
14311.0	2.0123081758474235e+18
14312.0	2.011963758057881e+18
14313.0	2.011561529337446e+18
14314.0	2.0112325600083963e+18
14315.0	2.01084864865239e+18
14316.0	2.0104081091592187e+18
14317.0	2.0100191428280315e+18
14318.0	2.0096567348297725e+18
14319.0	2.00922289447895e+18
14320.0	2.0086957006651387e+18
14321.0	2.0082933880586237e+18
14322.0	2.0078616532484093e+18
14323.0	2.007477344272384e+18
14324.0	2.0070960619061243e+18
14325.0	2.0066864461774843e+18
14326.0	2.0062960823042045e+18
14327.0	2.0058894931853307e+18
14328.0	2.0054901652455421e+18
14329.0	2.005095771484979e+18
14330.0	2.0046957590347773e+18
14331.0	2.0042927703064573e+18
14332.0	2.0038957442007037e+18
14333.0	2.0034958290583547e+18
14334.0	2.003095759565619e+18
14335.0	2.00268405842903e+18
14336.0	2.0021815740989437e+18
14337.0	2.0018928214343677e+18
14338.0	2.0014940286877693e+18
14339.0	2.0010860218941435e+18
14340.0	2.0006958979350525e+18
14341.0	2.0002923706580987e+18
14342.0	1.9998966380756987e+18
14343.0	1.9994973202022397e+18
14344.0	1.9990949958516733e+18
14345.0	1.9986999226138621e+18
14346.0	1.9982949894062075e+18
14347.0	1.997869829586944e+18
14348.0	1.9974970448805883e+18
14349.0	1.9971029363326973e+18
14350.0	1.9966115803299835e+18
14351.0	1.996176426323148e+18
14352.0	1.995745664591462e+18
14353.0	1.995354391393075e+18
14354.0	1.99494481257431e+18
14355.0	1.994524001409433e+18
14356.0	1.9941318457294843e+18
14357.0	1.9937608796733437e+18
14358.0	1.9933629257875453e+18
14359.0	1.9929493204369403e+18
14360.0	1.9925581294469115e+18
14361.0	1.9921631233179643e+18
14362.0	1.9917685315862525e+18
14363.0	1.9913676232327163e+18
14364.0	1.9906856797339645e+18
14365.0	1.990491423060787e+18
14366.0	1.9901250002747387e+18
14367.0	1.989778433323827e+18
14368.0	1.9893806824423421e+18
14369.0	1.9889834550099965e+18
14370.0	1.988585987663462e+18
14371.0	1.98818872164352e+18
14372.0	1.987786050004582e+18
14373.0	1.9873915069267965e+18
14374.0	1.98699555791831e+18
14375.0	1.9865970503843837e+18
14376.0	1.9862007591206907e+18
14377.0	1.98580277168046e+18
14378.0	1.98540360983511e+18
14379.0	1.9850086154502136e+18
14380.0	1.9846105038585853e+18
14381.0	1.9842028829409275e+18
14382.0	1.9838156228526077e+18
14383.0	1.9834169626460152e+18
14384.0	1.9830050685714427e+18
14385.0	1.982626272588595e+18
14386.0	1.9822119206518781e+18
14387.0	1.9818323613057021e+18
14388.0	1.9813588847820797e+18
14389.0	1.9808844469239803e+18
14390.0	1.980485984688537e+18
14391.0	1.9800907520671744e+18
14392.0	1.9796928451575805e+18
14393.0	1.9792969229926397e+18
14394.0	1.978863540659814e+18
14395.0	1.9784902744473597e+18
14396.0	1.9781060040589307e+18
14397.0	1.9777097530605565e+18
14398.0	1.9773124383866875e+18
14399.0	1.9769155095887872e+18
14400.0	1.9765019327594493e+18
14401.0	1.9761142297526272e+18
14402.0	1.9757161970139133e+18
14403.0	1.9745622751969265e+18
14404.0	1.9715451093254124e+18
14405.0	1.9731199480037343e+18
14406.0	1.9741231147909115e+18
14407.0	1.9727133655957507e+18
14408.0	1.9733085390110717e+18
14409.0	1.972933972564377e+18
14410.0	1.9725352939028475e+18
14411.0	1.972159704045977e+18
14412.0	1.9717631057592315e+18
14413.0	1.971370715198259e+18
14414.0	1.9709726623268861e+18
14415.0	1.9705777249845245e+18
14416.0	1.9701774977859581e+18
14417.0	1.969763905857126e+18
14418.0	1.9693600967229437e+18
14419.0	1.9689918401871872e+18
14420.0	1.9685936832970747e+18
14421.0	1.9682003246907387e+18
14422.0	1.9677934251933693e+18
14423.0	1.967340915156582e+18
14424.0	1.962761058988849e+18
14425.0	1.966563178787635e+18
14426.0	1.9662197256880128e+18
14427.0	1.9658318783971325e+18
14428.0	1.9654170365657088e+18
14429.0	1.964946974205542e+18
14430.0	1.964487956286668e+18
14431.0	1.9636110917369859e+18
14432.0	1.9636917633024e+18
14433.0	1.9625244348121083e+18
14434.0	1.9628897167474683e+18
14435.0	1.9624612769824765e+18
14436.0	1.9621213051551741e+18
14437.0	1.9617306577469437e+18
14438.0	1.9612718176665597e+18
14439.0	1.9609290742431741e+18
14440.0	1.9605472080297981e+18
14441.0	1.9601471821578235e+18
14442.0	1.959747996824371e+18
14443.0	1.959317619290931e+18
14444.0	1.958963249256857e+18
14445.0	1.95856823306158e+18
14446.0	1.9568141516406787e+18
14447.0	1.9577546639147e+18
14448.0	1.9573895463960573e+18
14449.0	1.9569967213051901e+18
14450.0	1.956596739053977e+18
14451.0	1.9562036807598077e+18
14452.0	1.9558104832147453e+18
14453.0	1.9554064677208061e+18
14454.0	1.9550222577303547e+18
14455.0	1.9546189770784765e+18
14456.0	1.9542239306842107e+18
14457.0	1.9538303472631803e+18
14458.0	1.95343382782935e+18
14459.0	1.9530317064830968e+18
14460.0	1.952623099065139e+18
14461.0	1.952171263472435e+18
14462.0	1.9517068667781115e+18
14463.0	1.9514150791151616e+18
14464.0	1.9510566456393728e+18
14465.0	1.95065602417623e+18
14466.0	1.9502850044329981e+18
14467.0	1.9498722882748416e+18
14468.0	1.9495000236621821e+18
14469.0	1.94906613130199e+18
14470.0	1.9486894962245632e+18
14471.0	1.9483219963412475e+18
14472.0	1.9479333034786816e+18
14473.0	1.9475445250523133e+18
14474.0	1.9471550956699645e+18
14475.0	1.9467594033528827e+18
14476.0	1.946320407363584e+18
14477.0	1.9459745853210621e+18
14478.0	1.945556223629721e+18
14479.0	1.9450384032464893e+18
14480.0	1.9446294820945915e+18
14481.0	1.944254400587366e+18
14482.0	1.9438571765104637e+18
14483.0	1.9434581690155005e+18
14484.0	1.9430529086521336e+18
14485.0	1.9426329581584384e+18
14486.0	1.9420003480633341e+18
14487.0	1.9418816391938045e+18
14488.0	1.9414600109785088e+18
14489.0	1.9410533060968443e+18
14490.0	1.9406949397299197e+18
14491.0	1.9403128436686843e+18
14492.0	1.9399212684804093e+18
14493.0	1.9395167362482173e+18
14494.0	1.939113757586227e+18
14495.0	1.9387386878230525e+18
14496.0	1.9382238470733821e+18
14497.0	1.9379423857868797e+18
14498.0	1.9375224386486264e+18
14499.0	1.9371297611972605e+18
14500.0	1.9367361559658493e+18
14501.0	1.936313287914291e+18
14502.0	1.935736899947725e+18
14503.0	1.935533045029273e+18
14504.0	1.9351588074160125e+18
14505.0	1.9347467657019387e+18
14506.0	1.9343308870385661e+18
14507.0	1.9337578427711483e+18
14508.0	1.9335932566044672e+18
14509.0	1.9332027803238397e+18
14510.0	1.932807621522227e+18
14511.0	1.9324172022841341e+18
14512.0	1.932010782615142e+18
14513.0	1.931631139382886e+18
14514.0	1.9312085397667837e+18
14515.0	1.930838436059545e+18
14516.0	1.9283173640765455e+18
14517.0	1.9300377887244283e+18
14518.0	1.9296683628167168e+18
14519.0	1.9292781449052155e+18
14520.0	1.9288862744379387e+18
14521.0	1.9284933755273208e+18
14522.0	1.92809616319447e+18
14523.0	1.9276203965808637e+18
14524.0	1.927257295683584e+18
14525.0	1.9269185804697592e+18
14526.0	1.9265302348955645e+18
14527.0	1.9261185102708733e+18
14528.0	1.9256290584821755e+18
14529.0	1.9253457265360893e+18
14530.0	1.9249474756935677e+18
14531.0	1.9245697735852032e+18
14532.0	1.9241132873482235e+18
14533.0	1.923786544355737e+18
14534.0	1.923397692109619e+18
14535.0	1.9228511004786683e+18
14536.0	1.922463964541747e+18
14537.0	1.9220643178348544e+18
14538.0	1.9216832971931645e+18
14539.0	1.921291017361817e+18
14540.0	1.920898405341593e+18
14541.0	1.92048241091543e+18
14542.0	1.9201097134505981e+18
14543.0	1.9196757036498941e+18
14544.0	1.9193228720865277e+18
14545.0	1.918912690965708e+18
14546.0	1.9136299097128934e+18
14547.0	1.913597395468284e+18
14548.0	1.9177282966913021e+18
14549.0	1.9172484498587645e+18
14550.0	1.9169619621183483e+18
14551.0	1.916581533712384e+18
14552.0	1.916188814317977e+18
14553.0	1.9157912295309312e+18
14554.0	1.9154053669847037e+18
14555.0	1.9150124647186427e+18
14556.0	1.9146186044735483e+18
14557.0	1.914225878368256e+18
14558.0	1.9138238425858045e+18
14559.0	1.9118584470962145e+18
14560.0	1.9130316241240061e+18
14561.0	1.9126478587297787e+18
14562.0	1.9122315505696763e+18
14563.0	1.9118606080016381e+18
14564.0	1.911444252865331e+18
14565.0	1.9110857573138424e+18
14566.0	1.9106945143144445e+18
14567.0	1.910297788520857e+18
14568.0	1.9098865990893568e+18
14569.0	1.9095097878511616e+18
14570.0	1.9086725494079488e+18
14571.0	1.9087242869866493e+18
14572.0	1.9082947181150203e+18
14573.0	1.907888820217446e+18
14574.0	1.9074833400725504e+18
14575.0	1.907136870429491e+18
14576.0	1.906744350683955e+18
14577.0	1.9063701432696832e+18
14578.0	1.905982218803609e+18
14579.0	1.9055938379972603e+18
14580.0	1.9052015447441403e+18
14581.0	1.904801205138227e+18
14582.0	1.9044060463366136e+18
14583.0	1.9040226382970877e+18
14584.0	1.903603390768742e+18
14585.0	1.903235828809728e+18
14586.0	1.902842250421862e+18
14587.0	1.90245185299415e+18
14588.0	1.9020599489724413e+18
14589.0	1.9016718852554747e+18
14590.0	1.9012839272349696e+18
14591.0	1.9008919410049021e+18
14592.0	1.9004982132998136e+18
14593.0	1.900008273294131e+18
14594.0	1.8997286088474616e+18
14595.0	1.8993326329954304e+18
14596.0	1.898694174362828e+18
14597.0	1.8982514353766397e+18
14598.0	1.898142695528857e+18
14599.0	1.8977675821449208e+18
14600.0	1.8972539292221437e+18
14601.0	1.8968657279320061e+18
14602.0	1.8964710774800384e+18
14603.0	1.896084560622387e+18
14604.0	1.8956480677937147e+18
14605.0	1.8952695620567037e+18
14606.0	1.8948490562371584e+18
14607.0	1.894523334977126e+18
14608.0	1.8941379489038333e+18
14609.0	1.893741035205427e+18
14610.0	1.8933283727343613e+18
14611.0	1.8929576533032955e+18
14612.0	1.892584403868057e+18
14613.0	1.892200249242419e+18
14614.0	1.8918100799848443e+18
14615.0	1.8914235899707387e+18
14616.0	1.8910365748297728e+18
14617.0	1.8906464038944763e+18
14618.0	1.8902377276899325e+18
14619.0	1.889614814825676e+18
14620.0	1.88878945297367e+18
14621.0	1.8890830894858237e+18
14622.0	1.8886963444580352e+18
14623.0	1.888310416480665e+18
14624.0	1.8878665265774587e+18
14625.0	1.8875270815547387e+18
14626.0	1.887140375114547e+18
14627.0	1.8867474325831675e+18
14628.0	1.8863616388235261e+18
14629.0	1.885970449511219e+18
14630.0	1.8855754819698683e+18
14631.0	1.8851887184871421e+18
14632.0	1.8844639746326525e+18
14633.0	1.8843463546044416e+18
14634.0	1.8840081091526653e+18
14635.0	1.883557805319782e+18
14636.0	1.8830382837268475e+18
14637.0	1.8828458658365437e+18
14638.0	1.8824382382079997e+18
14639.0	1.882038036175257e+18
14640.0	1.881656862860902e+18
14641.0	1.879964343756389e+18
14642.0	1.8808709660540928e+18
14643.0	1.8804921365168125e+18
14644.0	1.8800875254317053e+18
14645.0	1.8796900111089661e+18
14646.0	1.8792938255417341e+18
14647.0	1.8788781616267256e+18
14648.0	1.8785135457468413e+18
