# Flux units: erg / (cm m2 s)
# Wavelength units: Angstrom
wave	flux
14000.0	2.41527385227264e+18
14001.0	2.4147536646242304e+18
14002.0	2.414237362579046e+18
14003.0	2.4137181161324534e+18
14004.0	2.413198953571942e+18
14005.0	2.4126799067742203e+18
14006.0	2.412160569730662e+18
14007.0	2.411641870221312e+18
14008.0	2.4111178087137275e+18
14009.0	2.410604528245145e+18
14010.0	2.410086431037849e+18
14011.0	2.409534994146918e+18
14012.0	2.4090498943680507e+18
14013.0	2.40853225350103e+18
14014.0	2.408014423051469e+18
14015.0	2.4074965758246907e+18
14016.0	2.40697911279616e+18
14017.0	2.4064616598339584e+18
14018.0	2.4059443226345467e+18
14019.0	2.4054271330746363e+18
14020.0	2.404910013979033e+18
14021.0	2.404393029101158e+18
14022.0	2.403876257293926e+18
14023.0	2.403359425088717e+18
14024.0	2.402842524096921e+18
14025.0	2.4023266599370747e+18
14026.0	2.4018102823944187e+18
14027.0	2.4012942403960827e+18
14028.0	2.400778218530406e+18
14029.0	2.400262201697894e+18
14030.0	2.39972664779735e+18
14031.0	2.3992296412282875e+18
14032.0	2.3987153893588987e+18
14033.0	2.3981998020231163e+18
14034.0	2.3976848505438203e+18
14035.0	2.397169791690342e+18
14036.0	2.396654835177881e+18
14037.0	2.396140006172262e+18
14038.0	2.3956253080289275e+18
14039.0	2.3951107172597755e+18
14040.0	2.3945962892296187e+18
14041.0	2.394081965218201e+18
14042.0	2.3935674197475323e+18
14043.0	2.393052330695065e+18
14044.0	2.392539231420415e+18
14045.0	2.392026029804749e+18
14046.0	2.3915123668156406e+18
14047.0	2.39099876254679e+18
14048.0	2.3904854267133947e+18
14049.0	2.3899721714106363e+18
14050.0	2.389459025159782e+18
14051.0	2.3889455131656187e+18
14052.0	2.388433113500877e+18
14053.0	2.3879203933913083e+18
14054.0	2.3874077806559227e+18
14055.0	2.3868952954273787e+18
14056.0	2.386382929317068e+18
14057.0	2.3858707091685376e+18
14058.0	2.385358606460518e+18
14059.0	2.3848466312593403e+18
14060.0	2.3843348204748795e+18
14061.0	2.3838227295109115e+18
14062.0	2.383311485796352e+18
14063.0	2.3827990844538875e+18
14064.0	2.382285711710617e+18
14065.0	2.3817770701422587e+18
14066.0	2.381266475705958e+18
14067.0	2.380755554113945e+18
14068.0	2.3802447499624443e+18
14069.0	2.3797340045312e+18
14070.0	2.3792235208245243e+18
14071.0	2.3787129565872123e+18
14072.0	2.3782028369461243e+18
14073.0	2.3776926736842747e+18
14074.0	2.377182653028761e+18
14075.0	2.376672741425152e+18
14076.0	2.3761629455843323e+18
14077.0	2.3756490242260987e+18
14078.0	2.3751434226892795e+18
14079.0	2.3746340211130363e+18
14080.0	2.3741251849289723e+18
14081.0	2.373616065209958e+18
14082.0	2.373106869993472e+18
14083.0	2.372598077430169e+18
14084.0	2.372089247956992e+18
14085.0	2.371565476695245e+18
14086.0	2.3710715588116475e+18
14087.0	2.370563965819289e+18
14088.0	2.3700557436813307e+18
14089.0	2.3695477144813563e+18
14090.0	2.3690397154803707e+18
14091.0	2.368531922839142e+18
14092.0	2.3680242258280443e+18
14093.0	2.3675166261247995e+18
14094.0	2.367009167350169e+18
14095.0	2.3665018008502267e+18
14096.0	2.3659939394224123e+18
14097.0	2.365487294342758e+18
14098.0	2.3649802583539707e+18
14099.0	2.3644737844019195e+18
14100.0	2.3639665001103355e+18
14101.0	2.3634606200717307e+18
14102.0	2.362954179674112e+18
14103.0	2.362447148718489e+18
14104.0	2.361941716631552e+18
14105.0	2.3614356621099003e+18
14106.0	2.3609297602609147e+18
14107.0	2.360423910421299e+18
14108.0	2.359918313917645e+18
14109.0	2.35941247582208e+18
14110.0	2.3589070403796987e+18
14111.0	2.358401455620096e+18
14112.0	2.3578967801855995e+18
14113.0	2.3573918749032443e+18
14114.0	2.3568869629100027e+18
14115.0	2.3563819905187835e+18
14116.0	2.3558760282718203e+18
14117.0	2.355336848814899e+18
14118.0	2.354868175608217e+18
14119.0	2.354363743443353e+18
14120.0	2.3538597172871163e+18
14121.0	2.353355969632665e+18
14122.0	2.3528520609169403e+18
14123.0	2.352348033082982e+18
14124.0	2.351843944851046e+18
14125.0	2.351313340229222e+18
14126.0	2.350837686022963e+18
14127.0	2.350334809106022e+18
14128.0	2.349831677175398e+18
14129.0	2.349328780125798e+18
14130.0	2.3488259015311355e+18
14131.0	2.3483231017893883e+18
14132.0	2.347819998380032e+18
14133.0	2.3472851877101563e+18
14134.0	2.346815111928217e+18
14135.0	2.3463124615036923e+18
14136.0	2.3458107757690875e+18
14137.0	2.34530920244183e+18
14138.0	2.3448072298168315e+18
14139.0	2.344305731987046e+18
14140.0	2.3438037207744507e+18
14141.0	2.343301984708198e+18
14142.0	2.3427991816110075e+18
14143.0	2.3422996920139776e+18
14144.0	2.341799081698918e+18
14145.0	2.341298150939033e+18
14146.0	2.3407972403118075e+18
14147.0	2.340296569598771e+18
14148.0	2.33979600961536e+18
14149.0	2.3392955872051195e+18
14150.0	2.3387952486809595e+18
14151.0	2.3382948933795835e+18
14152.0	2.337794957508608e+18
14153.0	2.3372949830500347e+18
14154.0	2.336795151197798e+18
14155.0	2.336294931791872e+18
14156.0	2.3357957592842235e+18
14157.0	2.3352963737059323e+18
14158.0	2.334796791834214e+18
14159.0	2.3342978223308795e+18
14160.0	2.333798017322189e+18
14161.0	2.3332962393128955e+18
14162.0	2.3327943807729664e+18
14163.0	2.332301872175513e+18
14164.0	2.3318026107486203e+18
14165.0	2.331300649867673e+18
14166.0	2.3308063528189947e+18
14167.0	2.3303086164410363e+18
14168.0	2.329810485798502e+18
14169.0	2.329312628624588e+18
14170.0	2.3288146305220603e+18
14171.0	2.328316936087142e+18
14172.0	2.327819456400588e+18
14173.0	2.327319341013401e+18
14174.0	2.326824158127718e+18
14175.0	2.326327500524748e+18
14176.0	2.3258304251691003e+18
14177.0	2.3253334739648507e+18
14178.0	2.324836537860096e+18
14179.0	2.3243394121728e+18
14180.0	2.3238433417723904e+18
14181.0	2.323346887173734e+18
14182.0	2.322850494650777e+18
14183.0	2.322354316876185e+18
14184.0	2.321857885765632e+18
14185.0	2.321362083800678e+18
14186.0	2.320858453586739e+18
14187.0	2.320368726651699e+18
14188.0	2.3197925551112187e+18
14189.0	2.319129340018688e+18
14190.0	2.3186334726225915e+18
14191.0	2.318137665624473e+18
14192.0	2.317641543214694e+18
14193.0	2.3171454593925115e+18
14194.0	2.3166510650359803e+18
14195.0	2.3161558955720704e+18
14196.0	2.315660731141325e+18
14197.0	2.31516570428375e+18
14198.0	2.3146705113317376e+18
14199.0	2.3141758032412667e+18
14200.0	2.313677382352896e+18
14201.0	2.313186314918297e+18
14202.0	2.3126922712055803e+18
14203.0	2.3121974020538363e+18
14204.0	2.311703603288473e+18
14205.0	2.3112094924668923e+18
14206.0	2.310621877187379e+18
14207.0	2.309958873487769e+18
14208.0	2.3094646854909947e+18
14209.0	2.3089627212546043e+18
14210.0	2.308470440827289e+18
14211.0	2.307982446978662e+18
14212.0	2.3074886599573494e+18
14213.0	2.3069949954097147e+18
14214.0	2.3065013795160064e+18
14215.0	2.3060073056043003e+18
14216.0	2.305514624201523e+18
14217.0	2.3050213841174528e+18
14218.0	2.304528266507059e+18
14219.0	2.3040352562708477e+18
14220.0	2.3035423970295805e+18
14221.0	2.3030495965085696e+18
14222.0	2.302556960404275e+18
14223.0	2.3020644266409981e+18
14224.0	2.301571981796966e+18
14225.0	2.3010683733934075e+18
14226.0	2.3004403032129533e+18
14227.0	2.2997951202721787e+18
14228.0	2.2992781924368381e+18
14229.0	2.2988049658937336e+18
14230.0	2.298317745474764e+18
14231.0	2.2978255506112512e+18
14232.0	2.2973334413115387e+18
14233.0	2.2968414242865147e+18
14234.0	2.2963495297351675e+18
14235.0	2.295857610017996e+18
14236.0	2.295366076176793e+18
14237.0	2.2948744433500155e+18
14238.0	2.2943830068166656e+18
14239.0	2.293891055222784e+18
14240.0	2.2933168885596157e+18
14241.0	2.2929085780983805e+18
14242.0	2.2924180710227968e+18
14243.0	2.2919182878244861e+18
14244.0	2.2914368337346555e+18
14245.0	2.2909463132372987e+18
14246.0	2.2904557994508285e+18
14247.0	2.2899653812944896e+18
14248.0	2.289474263528243e+18
14249.0	2.2887924508917757e+18
14250.0	2.2882070720151547e+18
14251.0	2.2877165481623547e+18
14252.0	2.2872259723001848e+18
14253.0	2.2867354534805501e+18
14254.0	2.286244984992563e+18
14255.0	2.285752929379942e+18
14256.0	2.2852527233957883e+18
14257.0	2.284772752411852e+18
14258.0	2.2842848374161403e+18
14259.0	2.28379516249047e+18
14260.0	2.283305148665036e+18
14261.0	2.282816980333363e+18
14262.0	2.2823503841460221e+18
14263.0	2.281843485730406e+18
14264.0	2.281365885367091e+18
14265.0	2.2808828558966781e+18
14266.0	2.2803940584194043e+18
14267.0	2.2799052340985856e+18
14268.0	2.2794164835975165e+18
14269.0	2.278927684442521e+18
14270.0	2.2784392678080512e+18
14271.0	2.2779507538657275e+18
14272.0	2.2774623691079677e+18
14273.0	2.2769734978109432e+18
14274.0	2.276311698715443e+18
14275.0	2.2756959463669755e+18
14276.0	2.275210870076211e+18
14277.0	2.2747224903516155e+18
14278.0	2.274234352218931e+18
14279.0	2.2737459473285115e+18
14280.0	2.2732573998317568e+18
14281.0	2.2727696710631424e+18
14282.0	2.272281643660083e+18
14283.0	2.271793701820825e+18
14284.0	2.2713058640003067e+18
14285.0	2.270818115099033e+18
14286.0	2.27033044001751e+18
14287.0	2.269842863921561e+18
14288.0	2.2693550512668667e+18
14289.0	2.268814299784806e+18
14290.0	2.268380479566643e+18
14291.0	2.2678937037438973e+18
14292.0	2.267406807125196e+18
14293.0	2.2669196907249661e+18
14294.0	2.266424793051955e+18
14295.0	2.2659459025207296e+18
14296.0	2.265416556190105e+18
14297.0	2.2649723827519483e+18
14298.0	2.2644775085670395e+18
14299.0	2.2640004719181824e+18
14300.0	2.263514724538777e+18
14301.0	2.2630286919467005e+18
14302.0	2.2623076994777083e+18
14303.0	2.2617510398394365e+18
14304.0	2.2612637942546427e+18
14305.0	2.2607779126575101e+18
14306.0	2.2602906033192952e+18
14307.0	2.259804797219635e+18
14308.0	2.259319116949094e+18
14309.0	2.258832810888396e+18
14310.0	2.2583425135280123e+18
14311.0	2.2578604688801787e+18
14312.0	2.2573742970372093e+18
14313.0	2.2568866152447995e+18
14314.0	2.256404276995686e+18
14315.0	2.255918865160601e+18
14316.0	2.2554305609334784e+18
14317.0	2.254947835130675e+18
14318.0	2.2544633158434813e+18
14319.0	2.2539783687372795e+18
14320.0	2.2534934132424701e+18
14321.0	2.2530085785436155e+18
14322.0	2.2525214520770555e+18
14323.0	2.2520377984942077e+18
14324.0	2.2515546264174587e+18
14325.0	2.2510701926940672e+18
14326.0	2.2505858378235901e+18
14327.0	2.2501015718723584e+18
14328.0	2.2496170592960512e+18
14329.0	2.2491333889359864e+18
14330.0	2.2486494417518592e+18
14331.0	2.2481655767760893e+18
14332.0	2.2476818275631101e+18
14333.0	2.247198195790643e+18
14334.0	2.2464679892746237e+18
14335.0	2.245917582504755e+18
14336.0	2.245432702507417e+18
14337.0	2.2449498340982784e+18
14338.0	2.2444657325637627e+18
14339.0	2.243981827322675e+18
14340.0	2.243498099920076e+18
14341.0	2.2430143389630461e+18
14342.0	2.242530767588556e+18
14343.0	2.242047102261657e+18
14344.0	2.241563708725657e+18
14345.0	2.2410804628291581e+18
14346.0	2.2405970340610045e+18
14347.0	2.2401133687341053e+18
14348.0	2.2396308157366264e+18
14349.0	2.239147851697356e+18
14350.0	2.2386639145795581e+18
14351.0	2.23818109985751e+18
14352.0	2.23769939410944e+18
14353.0	2.237216748837273e+18
14354.0	2.23673402303447e+18
14355.0	2.2362513156866043e+18
14356.0	2.2357689875038203e+18
14357.0	2.2352869864767483e+18
14358.0	2.234804792511692e+18
14359.0	2.234322645522841e+18
14360.0	2.2338405555765245e+18
14361.0	2.233358678700851e+18
14362.0	2.232876882355814e+18
14363.0	2.2323950658781176e+18
14364.0	2.2319102328569853e+18
14365.0	2.2314308356538365e+18
14366.0	2.2309498429374461e+18
14367.0	2.2304690247041024e+18
14368.0	2.2299876964433915e+18
14369.0	2.2295065141444603e+18
14370.0	2.2289839038660603e+18
14371.0	2.228224647600537e+18
14372.0	2.2277427539476477e+18
14373.0	2.2272609425031168e+18
14374.0	2.2267792552099837e+18
14375.0	2.2262976434143227e+18
14376.0	2.2258161138270203e+18
14377.0	2.2253346463154168e+18
14378.0	2.2248531771260923e+18
14379.0	2.224372072002355e+18
14380.0	2.2238908393717755e+18
14381.0	2.2234095681535995e+18
14382.0	2.2229285620154365e+18
14383.0	2.222447431725875e+18
14384.0	2.2219667560988672e+18
14385.0	2.221486020073881e+18
14386.0	2.2210052890820603e+18
14387.0	2.2205246251991037e+18
14388.0	2.2200439713824765e+18
14389.0	2.2195635390251005e+18
14390.0	2.2190830563360765e+18
14391.0	2.2186028605374461e+18
14392.0	2.218122560720076e+18
14393.0	2.2176424924282877e+18
14394.0	2.2171624174256123e+18
14395.0	2.2166823759773693e+18
14396.0	2.2162025509552123e+18
14397.0	2.215722732643942e+18
14398.0	2.2152429394984955e+18
14399.0	2.21476330405888e+18
14400.0	2.2142826586308603e+18
14401.0	2.213803620460134e+18
14402.0	2.2133238575136765e+18
14403.0	2.212765390969241e+18
14404.0	2.2120939751735296e+18
14405.0	2.2117960202059773e+18
14406.0	2.2114064532504568e+18
14407.0	2.2108255505350656e+18
14408.0	2.2104469760114683e+18
14409.0	2.2099698370215933e+18
14410.0	2.2094920151990267e+18
14411.0	2.2089100538413053e+18
14412.0	2.2081772435013624e+18
14413.0	2.2076979285065723e+18
14414.0	2.2072183282991096e+18
14415.0	2.2067390233706493e+18
14416.0	2.2062597905842173e+18
14417.0	2.205780356471193e+18
14418.0	2.2053006774108155e+18
14419.0	2.2048220888694781e+18
14420.0	2.2043427638083581e+18
14421.0	2.2038638850211837e+18
14422.0	2.203384390510182e+18
14423.0	2.2029013274853373e+18
14424.0	2.2019987703070715e+18
14425.0	2.201942757893734e+18
14426.0	2.2014693770002427e+18
14427.0	2.2009913907609595e+18
14428.0	2.20051309414318e+18
14429.0	2.2000347505491965e+18
14430.0	2.1995562878369787e+18
14431.0	2.19907261244375e+18
14432.0	2.1985986024046587e+18
14433.0	2.198043560090009e+18
14434.0	2.1976419588374523e+18
14435.0	2.1971646168432637e+18
14436.0	2.1966877496442877e+18
14437.0	2.196209879167795e+18
14438.0	2.1957300356907003e+18
14439.0	2.1952535493345277e+18
14440.0	2.1947767375003643e+18
14441.0	2.1942989240664061e+18
14442.0	2.1938211794190333e+18
14443.0	2.1933413996953595e+18
14444.0	2.1928665071747067e+18
14445.0	2.1923889554653181e+18
14446.0	2.1917980384296957e+18
14447.0	2.1914322766659581e+18
14448.0	2.1909580736888827e+18
14449.0	2.1904812702433277e+18
14450.0	2.190004387944857e+18
14451.0	2.1895274939023355e+18
14452.0	2.1890503750451195e+18
14453.0	2.1885727495159803e+18
14454.0	2.1880971204755448e+18
14455.0	2.1876201895231485e+18
14456.0	2.187143562238361e+18
14457.0	2.1866669047545853e+18
14458.0	2.1861906113363963e+18
14459.0	2.1857139723075581e+18
14460.0	2.1852375480270843e+18
14461.0	2.184467643262566e+18
14462.0	2.1839619377070077e+18
14463.0	2.1834851040624632e+18
14464.0	2.1830083794698237e+18
14465.0	2.1825302606905336e+18
14466.0	2.182054490721484e+18
14467.0	2.1815763098664957e+18
14468.0	2.1811004342009853e+18
14469.0	2.1806224529948667e+18
14470.0	2.180145248573849e+18
14471.0	2.179669689997721e+18
14472.0	2.1791935895175163e+18
14473.0	2.1787169907539965e+18
14474.0	2.1782403735355387e+18
14475.0	2.1777635415687165e+18
14476.0	2.1772823945019384e+18
14477.0	2.1768107550834683e+18
14478.0	2.1763343995895803e+18
14479.0	2.1758580457734136e+18
14480.0	2.175381321180774e+18
14481.0	2.1749055445008381e+18
14482.0	2.1744290531115003e+18
14483.0	2.1739525147459581e+18
14484.0	2.1734760569110525e+18
14485.0	2.1729981814013947e+18
14486.0	2.1725060066705403e+18
14487.0	2.1720487386152955e+18
14488.0	2.1715730072338427e+18
14489.0	2.171096680261222e+18
14490.0	2.1706211367845885e+18
14491.0	2.1701454406352893e+18
14492.0	2.16966982837207e+18
14493.0	2.169194115445555e+18
14494.0	2.1687184847273981e+18
14495.0	2.168242637583155e+18
14496.0	2.1677588330053627e+18
14497.0	2.1672670357618683e+18
14498.0	2.16678600278016e+18
14499.0	2.1663106052653056e+18
14500.0	2.1658351926509565e+18
14501.0	2.1653574899466237e+18
14502.0	2.1648711285211133e+18
14503.0	2.1644081646010365e+18
14504.0	2.1639336713781243e+18
14505.0	2.1634562018770936e+18
14506.0	2.162978886726451e+18
14507.0	2.1624933859721208e+18
14508.0	2.1620339083575293e+18
14509.0	2.1615591953530877e+18
14510.0	2.161084361552691e+18
14511.0	2.1606093901791227e+18
14512.0	2.160133563167539e+18
14513.0	2.1596595548061693e+18
14514.0	2.1591826959958016e+18
14515.0	2.1587093889220603e+18
14516.0	2.1581014815997947e+18
14517.0	2.1574881015496701e+18
14518.0	2.156942301803315e+18
14519.0	2.156466813691494e+18
14520.0	2.1559912349827067e+18
14521.0	2.1555156311080955e+18
14522.0	2.1550399064375296e+18
14523.0	2.1545586989727744e+18
14524.0	2.15408304979968e+18
14525.0	2.1536127877906427e+18
14526.0	2.1531375949578232e+18
14527.0	2.152660360337817e+18
14528.0	2.152179047176601e+18
14529.0	2.1517100854018045e+18
14530.0	2.1512343590535163e+18
14531.0	2.1507595957174267e+18
14532.0	2.1502773614870528e+18
14533.0	2.1498086060720125e+18
14534.0	2.1493335038361595e+18
14535.0	2.148858050956492e+18
14536.0	2.1483826316312573e+18
14537.0	2.14790647578624e+18
14538.0	2.1474318617673725e+18
14539.0	2.1469564676079616e+18
14540.0	2.1464810885480443e+18
14541.0	2.1460053974319101e+18
14542.0	2.1455302364758016e+18
14543.0	2.1450517133656061e+18
14544.0	2.144579266963046e+18
14545.0	2.1441029769003005e+18
14546.0	2.1431740274835448e+18
14547.0	2.1427355918532603e+18
14548.0	2.142676608194969e+18
14549.0	2.142196058397081e+18
14550.0	2.141728286126899e+18
14551.0	2.1412534187720701e+18
14552.0	2.1407782393610237e+18
14553.0	2.1403028301021184e+18
14554.0	2.1398281053536253e+18
14555.0	2.139352966207897e+18
14556.0	2.1388777549201405e+18
14557.0	2.1384027130822653e+18
14558.0	2.1379269313691643e+18
14559.0	2.1373535263916027e+18
14560.0	2.1369765473812477e+18
14561.0	2.136501862898073e+18
14562.0	2.1360271498936317e+18
14563.0	2.1355521030225915e+18
14564.0	2.1350768682467325e+18
14565.0	2.1346021837635576e+18
14566.0	2.1341271788355576e+18
14567.0	2.133652051433881e+18
14568.0	2.133176816658022e+18
14569.0	2.132701622147481e+18
14570.0	2.1321992753905661e+18
14571.0	2.1317513388228605e+18
14572.0	2.1312742451314688e+18
14573.0	2.130799463340441e+18
14574.0	2.1303258660208637e+18
14575.0	2.1298511983149048e+18
14576.0	2.129376220230451e+18
14577.0	2.1289012337573888e+18
14578.0	2.128425983882035e+18
14579.0	2.1279509336555515e+18
14580.0	2.1274757123014656e+18
14581.0	2.1269971808026621e+18
14582.0	2.12622141072343e+18
14583.0	2.1257452582338552e+18
14584.0	2.1252684078120955e+18
14585.0	2.1247929314443261e+18
14586.0	2.1243166078271488e+18
14587.0	2.1238405962661888e+18
14588.0	2.1233651635191805e+18
14589.0	2.1228947622592504e+18
14590.0	2.1224252803907581e+18
14591.0	2.1219557498683387e+18
14592.0	2.1214860364742653e+18
14593.0	2.1210092481282043e+18
14594.0	2.1205470509268987e+18
14595.0	2.1200772100259835e+18
14596.0	2.119605008570777e+18
14597.0	2.1191350300966904e+18
14598.0	2.1186682141278205e+18
14599.0	2.1181989553963003e+18
14600.0	2.1177291899928573e+18
14601.0	2.1172592702390267e+18
14602.0	2.1167892112343037e+18
14603.0	2.1163192109498363e+18
14604.0	2.1158465867087867e+18
14605.0	2.1153786265337853e+18
14606.0	2.1149049872711677e+18
14607.0	2.1144382132453373e+18
14608.0	2.1139683723444221e+18
14609.0	2.1134978855206904e+18
14610.0	2.1130277728288763e+18
14611.0	2.1125574068011005e+18
14612.0	2.1120873008201725e+18
14613.0	2.111616956602777e+18
14614.0	2.1111463120732157e+18
14615.0	2.1106759309459453e+18
14616.0	2.110205355202969e+18
14617.0	2.1097346855075837e+18
14618.0	2.10926392353751e+18
14619.0	2.1087901433462776e+18
14620.0	2.1083147693195261e+18
14621.0	2.1078514010685437e+18
14622.0	2.1073805753450493e+18
14623.0	2.106909563394457e+18
14624.0	2.1064348000583675e+18
14625.0	2.1059672291147773e+18
14626.0	2.105495891686195e+18
14627.0	2.1050242874998781e+18
14628.0	2.1045532570943483e+18
14629.0	2.1040817502158843e+18
14630.0	2.103610102408806e+18
14631.0	2.1031383656824827e+18
14632.0	2.1026339419062264e+18
14633.0	2.1021894564118525e+18
14634.0	2.1017230263189501e+18
14635.0	2.101250752721715e+18
14636.0	2.1007775664439293e+18
14637.0	2.1003071500845053e+18
14638.0	2.0998347036819453e+18
14639.0	2.0993617673846781e+18
14640.0	2.0988885928509435e+18
14641.0	2.0982864115924987e+18
14642.0	2.097943416510873e+18
14643.0	2.097472325707366e+18
14644.0	2.09699965281239e+18
14645.0	2.0965254078922747e+18
14646.0	2.0960533423325181e+18
14647.0	2.0955802651066365e+18
14648.0	2.095107194591641e+18
14649.0	2.094634036835123e+18
14650.0	2.0941604579704827e+18
