# Flux units: erg / (cm m2 s)
# Wavelength units: Angstrom
wave	flux
14000.0	1.640729115466137e+18
14001.0	1.640453693977395e+18
14002.0	1.6403860012662781e+18
14003.0	1.6401074525044739e+18
14004.0	1.63982416585687e+18
14005.0	1.639538005272166e+18
14006.0	1.639245511288422e+18
14007.0	1.6389524905000957e+18
14008.0	1.638606748988211e+18
14009.0	1.6383649993719805e+18
14010.0	1.6380531528695805e+18
14011.0	1.6372826206371837e+18
14012.0	1.6374672035676157e+18
14013.0	1.637244949076377e+18
14014.0	1.6369623905599485e+18
14015.0	1.6366844776546304e+18
14016.0	1.6364011859738621e+18
14017.0	1.6361172433371133e+18
14018.0	1.6358131596525568e+18
14019.0	1.6355476719534075e+18
14020.0	1.635262281442918e+18
14021.0	1.6349770201169915e+18
14022.0	1.6346921597665275e+18
14023.0	1.63439690425303e+18
14024.0	1.6341149279059965e+18
14025.0	1.6338373572558848e+18
14026.0	1.6335520590200832e+18
14027.0	1.6332665292587005e+18
14028.0	1.6329721260277752e+18
14029.0	1.632671832316313e+18
14030.0	1.6321629088907261e+18
14031.0	1.6320137242083325e+18
14032.0	1.6318318642200576e+18
14033.0	1.6315222222438397e+18
14034.0	1.6312780046991357e+18
14035.0	1.6309956693196797e+18
14036.0	1.6307031988240381e+18
14037.0	1.6304248245452797e+18
14038.0	1.630145710391296e+18
14039.0	1.6298580801224701e+18
14040.0	1.6295771758395387e+18
14041.0	1.6292933103779837e+18
14042.0	1.6290002677792765e+18
14043.0	1.6286958049296384e+18
14044.0	1.6284225376354301e+18
14045.0	1.628145970262835e+18
14046.0	1.6278739092504576e+18
14047.0	1.6275883392237565e+18
14048.0	1.6273117097754624e+18
14049.0	1.6270291328040957e+18
14050.0	1.6267457790476285e+18
14051.0	1.626456764658483e+18
14052.0	1.626174981249433e+18
14053.0	1.6258975313952765e+18
14054.0	1.6256151003856893e+18
14055.0	1.6253324898598907e+18
14056.0	1.625049872623206e+18
14057.0	1.6247673375948797e+18
14058.0	1.6244847522349053e+18
14059.0	1.6241846128738304e+18
14060.0	1.6239192929468416e+18
14061.0	1.6236313489440765e+18
14062.0	1.6233515234361341e+18
14063.0	1.6230560498188285e+18
14064.0	1.622712685638451e+18
14065.0	1.622498440590131e+18
14066.0	1.6222236398583805e+18
14067.0	1.621944772329472e+18
14068.0	1.6216630577070075e+18
14069.0	1.6213810796822525e+18
14070.0	1.6210994841780221e+18
14071.0	1.6208156505931776e+18
14072.0	1.6205362260606976e+18
14073.0	1.6202547312197632e+18
14074.0	1.6199728941236221e+18
14075.0	1.6196734107516923e+18
14076.0	1.6194039636295677e+18
14077.0	1.6190691776397312e+18
14078.0	1.6188287634898941e+18
14079.0	1.618556717577011e+18
14080.0	1.6182752126697467e+18
14081.0	1.618001368239308e+18
14082.0	1.6177205981741053e+18
14083.0	1.6174348637306877e+18
14084.0	1.6171350263595005e+18
14085.0	1.6167174817185787e+18
14086.0	1.6165481006235643e+18
14087.0	1.6162976956415997e+18
14088.0	1.6160247269818363e+18
14089.0	1.615757323324621e+18
14090.0	1.6154777494749181e+18
14091.0	1.615197955843686e+18
14092.0	1.6149178971324416e+18
14093.0	1.6146376102510587e+18
14094.0	1.614357031446118e+18
14095.0	1.6140757446426621e+18
14096.0	1.6137915335704576e+18
14097.0	1.6134972746235904e+18
14098.0	1.6132342246539267e+18
14099.0	1.6129546977804288e+18
14100.0	1.612667543984537e+18
14101.0	1.6123973787975683e+18
14102.0	1.6121154343272448e+18
14103.0	1.6118246499418107e+18
14104.0	1.611555885652377e+18
14105.0	1.6112800413777915e+18
14106.0	1.611000611812147e+18
14107.0	1.6107061095956475e+18
14108.0	1.6104300119851005e+18
14109.0	1.6101594625998843e+18
14110.0	1.609880840018329e+18
14111.0	1.609597784896307e+18
14112.0	1.6093141241167867e+18
14113.0	1.6090393485508605e+18
14114.0	1.6087444101267453e+18
14115.0	1.60846353268736e+18
14116.0	1.608090086958694e+18
14117.0	1.6074322271535104e+18
14118.0	1.6075815594754043e+18
14119.0	1.6073443950723067e+18
14120.0	1.6070800012476413e+18
14121.0	1.6067959025827837e+18
14122.0	1.6065244505833472e+18
14123.0	1.6062385399791613e+18
14124.0	1.6059093441576952e+18
14125.0	1.6053986759016448e+18
14126.0	1.6053700405493752e+18
14127.0	1.6051308763021307e+18
14128.0	1.604859379004211e+18
14129.0	1.6045722906394621e+18
14130.0	1.6042779293515776e+18
14131.0	1.6040128409501696e+18
14132.0	1.6036815395880957e+18
14133.0	1.603126064421273e+18
14134.0	1.6031155182632957e+18
14135.0	1.602899422688051e+18
14136.0	1.6026368877789181e+18
14137.0	1.6023631624667133e+18
14138.0	1.602086184052326e+18
14139.0	1.6018104253415421e+18
14140.0	1.6015320309301248e+18
14141.0	1.6012496200531965e+18
14142.0	1.600969245930291e+18
14143.0	1.6007005034512381e+18
14144.0	1.6004270180532221e+18
14145.0	1.6001490044846077e+18
14146.0	1.5998728984854528e+18
14147.0	1.5995986530795515e+18
14148.0	1.5993225319809021e+18
14149.0	1.599046221299712e+18
14150.0	1.5987693083164672e+18
14151.0	1.5984918148415488e+18
14152.0	1.5982148129390584e+18
14153.0	1.5979403427184635e+18
14154.0	1.5976387185737728e+18
14155.0	1.5973783579918333e+18
14156.0	1.5971102966677504e+18
14157.0	1.596833427305267e+18
14158.0	1.5965551385903096e+18
14159.0	1.5962776736366587e+18
14160.0	1.5959825070424064e+18
14161.0	1.5956833625702397e+18
14162.0	1.5953849177079805e+18
14163.0	1.5951465084354557e+18
14164.0	1.5948813411811328e+18
14165.0	1.5946164188741632e+18
14166.0	1.594348384393625e+18
14167.0	1.594060789356953e+18
14168.0	1.593797715899187e+18
14169.0	1.5935251431817213e+18
14170.0	1.5932472957075453e+18
14171.0	1.5929694264229885e+18
14172.0	1.5926978905374715e+18
14173.0	1.592415380674969e+18
14174.0	1.5921422173995005e+18
14175.0	1.5918731796414464e+18
14176.0	1.591599081875046e+18
14177.0	1.5913243197308928e+18
14178.0	1.5910490056163325e+18
14179.0	1.590772159741952e+18
14180.0	1.5904994427404288e+18
14181.0	1.5902245296013307e+18
14182.0	1.5899489369849853e+18
14183.0	1.589673305781043e+18
14184.0	1.5893936044244987e+18
14185.0	1.5891109486002176e+18
14186.0	1.5887628280791037e+18
14187.0	1.588528500703232e+18
14188.0	1.5882891485511677e+18
14189.0	1.588024256443187e+18
14190.0	1.5877522122080253e+18
14191.0	1.5874769098375163e+18
14192.0	1.5871960256872448e+18
14193.0	1.5869218943664128e+18
14194.0	1.5866554419773437e+18
14195.0	1.5863839060918272e+18
14196.0	1.5861104559259648e+18
14197.0	1.5858363615150077e+18
14198.0	1.5855585308180483e+18
14199.0	1.585279780729651e+18
14200.0	1.5849680030138365e+18
14201.0	1.5847187455934464e+18
14202.0	1.5844623662448637e+18
14203.0	1.5841896710537216e+18
14204.0	1.5839161973997568e+18
14205.0	1.5836337345134587e+18
14206.0	1.5832937828188157e+18
14207.0	1.5830779657453563e+18
14208.0	1.5828120770707456e+18
14209.0	1.582456643361177e+18
14210.0	1.5821955613589501e+18
14211.0	1.581990740072857e+18
14212.0	1.5817332467171325e+18
14213.0	1.581463299633971e+18
14214.0	1.5811895810326523e+18
14215.0	1.580908834455552e+18
14216.0	1.5806453348564987e+18
14217.0	1.5803750841057275e+18
14218.0	1.5800908294127616e+18
14219.0	1.5798300426895357e+18
14220.0	1.5795560808185853e+18
14221.0	1.5792843268292605e+18
14222.0	1.579003442678988e+18
14223.0	1.5787359115149312e+18
14224.0	1.5784516836655104e+18
14225.0	1.578006871015424e+18
14226.0	1.5778687408406525e+18
14227.0	1.5776143747579904e+18
14228.0	1.5767974736560125e+18
14229.0	1.5768345177489403e+18
14230.0	1.5768175509503997e+18
14231.0	1.5765584654368765e+18
14232.0	1.5762899712606205e+18
14233.0	1.5760172794249213e+18
14234.0	1.575747006863769e+18
14235.0	1.5754732580634624e+18
14236.0	1.575200863184486e+18
14237.0	1.574923035842969e+18
14238.0	1.5746358552035325e+18
14239.0	1.5742725747900413e+18
14240.0	1.572651014920601e+18
14241.0	1.5736425299312637e+18
14242.0	1.5735127648763901e+18
14243.0	1.5732033074495488e+18
14244.0	1.5730166122676221e+18
14245.0	1.572753532098969e+18
14246.0	1.572489015800627e+18
14247.0	1.572216243434291e+18
14248.0	1.5719372064555003e+18
14249.0	1.571678131008307e+18
14250.0	1.571410792782233e+18
14251.0	1.571141008438067e+18
14252.0	1.5708691688849405e+18
14253.0	1.5705936802873341e+18
14254.0	1.5703141953568763e+18
14255.0	1.5699963291893757e+18
14256.0	1.569622006012313e+18
14257.0	1.569409913480806e+18
14258.0	1.5692153095192568e+18
14259.0	1.5689376902152184e+18
14260.0	1.5686758247170043e+18
14261.0	1.5683895550803965e+18
14262.0	1.5681227537252347e+18
14263.0	1.5676560837181437e+18
14264.0	1.5674505779216381e+18
14265.0	1.567320910174617e+18
14266.0	1.5670851265363965e+18
14267.0	1.5668241653301243e+18
14268.0	1.566555674509312e+18
14269.0	1.566280003040051e+18
14270.0	1.5660158390632443e+18
14271.0	1.5657386979098621e+18
14272.0	1.5654526849646587e+18
14273.0	1.565111847433011e+18
14274.0	1.564538083423027e+18
14275.0	1.5644875051499515e+18
14276.0	1.5643416239013888e+18
14277.0	1.5641100731547643e+18
14278.0	1.5638537592373243e+18
14279.0	1.5635879997472765e+18
14280.0	1.5633202790006781e+18
14281.0	1.5630563834593275e+18
14282.0	1.5627888422289403e+18
14283.0	1.562520257455718e+18
14284.0	1.5622510435368957e+18
14285.0	1.561980774331187e+18
14286.0	1.5617081026281472e+18
14287.0	1.5614272755204093e+18
14288.0	1.5610777826230272e+18
14289.0	1.5599661175799803e+18
14290.0	1.5605471461244928e+18
14291.0	1.560351228506931e+18
14292.0	1.5600892908666875e+18
14293.0	1.5598139482308603e+18
14294.0	1.5594725536956413e+18
14295.0	1.5592065878458365e+18
14296.0	1.5583124981284864e+18
14297.0	1.5585755212546048e+18
14298.0	1.5583222758899707e+18
14299.0	1.5581714889834493e+18
14300.0	1.557937220327833e+18
14301.0	1.557679060916633e+18
14302.0	1.5574138651410432e+18
14303.0	1.5571121671766013e+18
14304.0	1.5568691223592957e+18
14305.0	1.5566136858902525e+18
14306.0	1.5563463359201277e+18
14307.0	1.5560775984742397e+18
14308.0	1.5558107971190781e+18
14309.0	1.5555415630675965e+18
14310.0	1.5552697067372541e+18
14311.0	1.5549919632818176e+18
14312.0	1.5546987009015803e+18
14313.0	1.5543232603619325e+18
14314.0	1.5542045649141752e+18
14315.0	1.5539324384706557e+18
14316.0	1.5536477005938685e+18
14317.0	1.5534045081370621e+18
14318.0	1.5531424161464315e+18
14319.0	1.5528717694533632e+18
14320.0	1.5526054294716413e+18
14321.0	1.5523337946005504e+18
14322.0	1.552049727812403e+18
14323.0	1.5517886239997947e+18
14324.0	1.5515393464467453e+18
14325.0	1.5512665120047101e+18
14326.0	1.551010463167283e+18
14327.0	1.5507369844801533e+18
14328.0	1.550472322220032e+18
14329.0	1.5502128306978816e+18
14330.0	1.5499473228660733e+18
14331.0	1.549681341916774e+18
14332.0	1.5494156008816635e+18
14333.0	1.549149643420467e+18
14334.0	1.5488829997711357e+18
14335.0	1.5486050767994877e+18
14336.0	1.5483334436061181e+18
14337.0	1.548081768588902e+18
14338.0	1.5478189300121595e+18
14339.0	1.5475451761786875e+18
14340.0	1.5472900937089021e+18
14341.0	1.5470234114719744e+18
14342.0	1.5467536338386941e+18
14343.0	1.546494024876032e+18
14344.0	1.5462091309711357e+18
14345.0	1.5459503927459835e+18
14346.0	1.5456880826515453e+18
14347.0	1.5454189744291837e+18
14348.0	1.5451577196216315e+18
14349.0	1.5448925154574339e+18
14350.0	1.5446134096920573e+18
14351.0	1.544343227727872e+18
14352.0	1.5440862913757181e+18
14353.0	1.5438322641928192e+18
14354.0	1.5435683384524797e+18
14355.0	1.5433017753337853e+18
14356.0	1.5430340982079485e+18
14357.0	1.5427731823001597e+18
14358.0	1.5425137444651005e+18
14359.0	1.542234794727833e+18
14360.0	1.5419839552159741e+18
14361.0	1.5417195748130813e+18
14362.0	1.5414544830562304e+18
14363.0	1.5411849436594176e+18
14364.0	1.540886314247782e+18
14365.0	1.5406325974433792e+18
14366.0	1.5403839624577021e+18
14367.0	1.540134431568691e+18
14368.0	1.539869829706547e+18
14369.0	1.5396094389256192e+18
14370.0	1.5393460953546747e+18
14371.0	1.5390817216626685e+18
14372.0	1.5388038238568448e+18
14373.0	1.5385450537549821e+18
14374.0	1.5382810374176765e+18
14375.0	1.5380115265421307e+18
14376.0	1.5377564356837373e+18
14377.0	1.5374923488821243e+18
14378.0	1.5372276849442813e+18
14379.0	1.536965759048089e+18
14380.0	1.5367017510993915e+18
14381.0	1.5364283730755581e+18
14382.0	1.5361749045739515e+18
14383.0	1.5359126481666043e+18
14384.0	1.5356319150112763e+18
14385.0	1.5353872226713597e+18
14386.0	1.5351058872139773e+18
14387.0	1.5348608140312573e+18
14388.0	1.5345955813457915e+18
14389.0	1.5343340581027835e+18
14390.0	1.5340707447308285e+18
14391.0	1.5338091795447803e+18
14392.0	1.5335462101057533e+18
14393.0	1.533283576211046e+18
14394.0	1.5329796921753597e+18
14395.0	1.5327470559428603e+18
14396.0	1.5324920137383933e+18
14397.0	1.5322301666951165e+18
14398.0	1.5319654557810688e+18
14399.0	1.5316969548939264e+18
14400.0	1.5314166898229243e+18
14401.0	1.5311479238557693e+18
14402.0	1.530856084183449e+18
14403.0	1.5303968280281085e+18
14404.0	1.5280559752216568e+18
14405.0	1.528030529218149e+18
14406.0	1.5296821924462587e+18
14407.0	1.5294428637822976e+18
14408.0	1.5292876544016381e+18
14409.0	1.5290438059556856e+18
14410.0	1.528801984197427e+18
14411.0	1.5285478328631293e+18
14412.0	1.5282877994369021e+18
14413.0	1.5280309721366525e+18
14414.0	1.5277695780782075e+18
14415.0	1.5275090799230973e+18
14416.0	1.527246878880563e+18
14417.0	1.5269867749900285e+18
14418.0	1.5267242316922875e+18
14419.0	1.5264621128581115e+18
14420.0	1.5261974640197632e+18
14421.0	1.5259368970780672e+18
14422.0	1.525662950306611e+18
14423.0	1.5253563768831997e+18
14424.0	1.5247532862996477e+18
14425.0	1.5248267537285115e+18
14426.0	1.5246242997075965e+18
14427.0	1.5243707406090237e+18
14428.0	1.5240882290687995e+18
14429.0	1.5238482494488573e+18
14430.0	1.5235764115734525e+18
14431.0	1.5232546698690557e+18
14432.0	1.5230501505728507e+18
14433.0	1.5227188492107773e+18
14434.0	1.522526932959232e+18
14435.0	1.5222787090153472e+18
14436.0	1.5220298123051005e+18
14437.0	1.5217716461830141e+18
14438.0	1.5215045361270781e+18
14439.0	1.5212454439026688e+18
14440.0	1.5209903849209853e+18
14441.0	1.5207087441182715e+18
14442.0	1.520440949551923e+18
14443.0	1.5201501332897792e+18
14444.0	1.5199147892146173e+18
14445.0	1.5196283987820541e+18
14446.0	1.5186862675066877e+18
14447.0	1.5190108227502075e+18
14448.0	1.5188834065055741e+18
14449.0	1.5186388769046525e+18
14450.0	1.5183774107041787e+18
14451.0	1.5181224674852864e+18
14452.0	1.5178670930919421e+18
14453.0	1.5176075764039677e+18
14454.0	1.5173470195286016e+18
14455.0	1.5170818673737725e+18
14456.0	1.5168275935657981e+18
14457.0	1.5165675265851387e+18
14458.0	1.516308175991603e+18
14459.0	1.5160468037435392e+18
14460.0	1.5157853375430653e+18
14461.0	1.5155165497655293e+18
14462.0	1.5152616182906875e+18
14463.0	1.5150061398786048e+18
14464.0	1.5147449706348544e+18
14465.0	1.5144711362707456e+18
14466.0	1.5142321314070525e+18
14467.0	1.513961214600806e+18
14468.0	1.513712866505523e+18
14469.0	1.513430529448345e+18
14470.0	1.5131775156092925e+18
14471.0	1.5129354925244413e+18
14472.0	1.512681092887347e+18
14473.0	1.5124283810381821e+18
14474.0	1.5121738891263997e+18
14475.0	1.5119148069683197e+18
14476.0	1.511653345801011e+18
14477.0	1.5113988857659387e+18
14478.0	1.511138302047027e+18
14479.0	1.5108800973373437e+18
14480.0	1.5106061723762683e+18
14481.0	1.510363885889126e+18
14482.0	1.5100922023641085e+18
14483.0	1.5098285836468221e+18
14484.0	1.5095552777650173e+18
14485.0	1.5092473655197693e+18
14486.0	1.5088578522513403e+18
14487.0	1.5087757697220603e+18
14488.0	1.5085428432437243e+18
14489.0	1.508285361632051e+18
14490.0	1.5080316397944832e+18
14491.0	1.5077783659085821e+18
14492.0	1.5075223221043195e+18
14493.0	1.5072573159112696e+18
14494.0	1.5069798090145787e+18
14495.0	1.5067238574850043e+18
14496.0	1.5064069123866621e+18
14497.0	1.5062183364788221e+18
14498.0	1.5059730904907776e+18
14499.0	1.5057187378298877e+18
14500.0	1.5054586205175805e+18
14501.0	1.5051596471730173e+18
14502.0	1.504758195237683e+18
14503.0	1.5046660430233595e+18
14504.0	1.5044208490446848e+18
14505.0	1.5041654947839997e+18
14506.0	1.5038728565161981e+18
14507.0	1.5034937233113085e+18
14508.0	1.503377925288755e+18
14509.0	1.503142124873318e+18
14510.0	1.5028846835269632e+18
14511.0	1.5026290474090493e+18
14512.0	1.502363631851929e+18
14513.0	1.5020987447771139e+18
14514.0	1.5018076147810301e+18
14515.0	1.501432467842662e+18
14516.0	1.4989357362446339e+18
14517.0	1.5006888110325752e+18
14518.0	1.5007801428410365e+18
14519.0	1.5005549305266176e+18
14520.0	1.5003199974932472e+18
14521.0	1.5000706696085501e+18
14522.0	1.4998163370803197e+18
14523.0	1.4995572935098365e+18
14524.0	1.4993017614106621e+18
14525.0	1.4990470077743101e+18
14526.0	1.4987878836731904e+18
14527.0	1.4984811273781248e+18
14528.0	1.498178280174387e+18
14529.0	1.4980138651353085e+18
14530.0	1.4977593212141565e+18
14531.0	1.4975121173250048e+18
14532.0	1.4972514799190013e+18
14533.0	1.4969996723617787e+18
14534.0	1.496745948846489e+18
14535.0	1.4964789025439741e+18
14536.0	1.4962295109058557e+18
14537.0	1.4959702207102976e+18
14538.0	1.495723169493811e+18
14539.0	1.4954674327126013e+18
14540.0	1.495212997843353e+18
14541.0	1.4949341387030528e+18
14542.0	1.4946969541672957e+18
14543.0	1.4944263208959997e+18
14544.0	1.49417730506752e+18
14545.0	1.4938836886880256e+18
14546.0	1.4928223989137403e+18
14547.0	1.4925181055139837e+18
14548.0	1.493082039753113e+18
14549.0	1.4928101398020093e+18
14550.0	1.4926254360756221e+18
14551.0	1.4923997640654845e+18
14552.0	1.4921447671595005e+18
14553.0	1.4918865507057664e+18
14554.0	1.491640271241216e+18
14555.0	1.4913829121032192e+18
14556.0	1.4911207462928381e+18
14557.0	1.4908426354163712e+18
14558.0	1.490438765884211e+18
14559.0	1.488553951363071e+18
14560.0	1.489918225914265e+18
14561.0	1.4898188024545275e+18
14562.0	1.489565575544832e+18
14563.0	1.4893452923764736e+18
14564.0	1.4890819001516032e+18
14565.0	1.4888450511601664e+18
14566.0	1.488591745397555e+18
14567.0	1.4883344013590523e+18
14568.0	1.4880699152596992e+18
14569.0	1.4877669774589947e+18
14570.0	1.4870872334532605e+18
14571.0	1.4872754754945021e+18
14572.0	1.48702901651374e+18
14573.0	1.4867667567509504e+18
14574.0	1.4865566456086525e+18
14575.0	1.486307975390822e+18
14576.0	1.4860512269434875e+18
14577.0	1.4857953962098685e+18
14578.0	1.4855499740610557e+18
14579.0	1.4852994717712381e+18
14580.0	1.4850466290597883e+18
14581.0	1.4847917512720381e+18
14582.0	1.4845375378620413e+18
14583.0	1.484285205177958e+18
14584.0	1.4840265944596475e+18
14585.0	1.4837785231884285e+18
14586.0	1.4835261116514301e+18
14587.0	1.4832735809961981e+18
14588.0	1.4830128529932285e+18
14589.0	1.4827598039220221e+18
14590.0	1.4825060887953405e+18
14591.0	1.4822468690640893e+18
14592.0	1.4819735245946877e+18
14593.0	1.4816696942460925e+18
14594.0	1.4814752932888573e+18
14595.0	1.4812284601761787e+18
14596.0	1.480927636304691e+18
14597.0	1.4806688611696637e+18
14598.0	1.4804709252530173e+18
14599.0	1.480231193935872e+18
14600.0	1.4799809483374592e+18
14601.0	1.479728971330355e+18
14602.0	1.4794722715369467e+18
14603.0	1.4792198432227328e+18
14604.0	1.4789432741724157e+18
14605.0	1.4786943690735613e+18
14606.0	1.4783630979104768e+18
14607.0	1.478210854741606e+18
14608.0	1.477949230835302e+18
14609.0	1.4776913717362688e+18
14610.0	1.4774378076045307e+18
14611.0	1.477178849597849e+18
14612.0	1.4769578466869248e+18
14613.0	1.47670687631278e+18
14614.0	1.4764383754256381e+18
14615.0	1.4761905776230397e+18
14616.0	1.4759505627709435e+18
14617.0	1.4756636975431677e+18
14618.0	1.4754076755492864e+18
14619.0	1.4751126398173181e+18
14620.0	1.4748372904706048e+18
14621.0	1.4746743669260288e+18
14622.0	1.4744326827409405e+18
14623.0	1.4741832256716797e+18
14624.0	1.4739065844793341e+18
14625.0	1.473676367521382e+18
14626.0	1.4734227882901501e+18
14627.0	1.4731747337961472e+18
14628.0	1.4729377858191357e+18
14629.0	1.472687271785267e+18
14630.0	1.4724243442892797e+18
14631.0	1.4721704127365115e+18
14632.0	1.4718744626462715e+18
14633.0	1.4716612963729403e+18
14634.0	1.4714299721187325e+18
14635.0	1.4711737706086397e+18
14636.0	1.4709029796315136e+18
14637.0	1.470679248745267e+18
14638.0	1.4704231344766973e+18
14639.0	1.4701653861072893e+18
14640.0	1.469902899852083e+18
14641.0	1.4695455719948283e+18
14642.0	1.469401678846361e+18
14643.0	1.4691687272022013e+18
14644.0	1.4689073801199613e+18
14645.0	1.4686452830961664e+18
14646.0	1.4683994482278397e+18
