# Flux units: erg / (cm m2 s)
# Wavelength units: Angstrom
wave	flux
14000.0	2.1020228435574781e+18
14001.0	2.1015181177913336e+18
14002.0	2.1010451345178624e+18
14003.0	2.1005563789836288e+18
14004.0	2.100067757667123e+18
14005.0	2.0995790977630205e+18
14006.0	2.0990885990760445e+18
14007.0	2.0985993217703933e+18
14008.0	2.0980850480906237e+18
14009.0	2.0976255989972987e+18
14010.0	2.0971336205598717e+18
14011.0	2.0964911588835328e+18
14012.0	2.0961619261521917e+18
14013.0	2.0956744138096637e+18
14014.0	2.0951852321341435e+18
14015.0	2.0946989042630653e+18
14016.0	2.0942124086198272e+18
14017.0	2.0937253593284603e+18
14018.0	2.0932381137436664e+18
14019.0	2.092751636555366e+18
14020.0	2.0922647416143867e+18
14021.0	2.0917780261896187e+18
14022.0	2.0912911010496504e+18
14023.0	2.0907993944031224e+18
14024.0	2.09031376446423e+18
14025.0	2.0898335334334461e+18
14026.0	2.0893473028702203e+18
14027.0	2.0888621997359101e+18
14028.0	2.088375512832409e+18
14029.0	2.0878683208155133e+18
14030.0	2.0871167720030208e+18
14031.0	2.0868912224665597e+18
14032.0	2.086412672512819e+18
14033.0	2.08591297487831e+18
14034.0	2.0854426944143357e+18
14035.0	2.0849585274486784e+18
14036.0	2.0844740199055355e+18
14037.0	2.0839892120502272e+18
14038.0	2.0835053655293947e+18
14039.0	2.0830212321181693e+18
14040.0	2.082533862381977e+18
14041.0	2.082052121401753e+18
14042.0	2.08156667936768e+18
14043.0	2.0810751522373627e+18
14044.0	2.0805997278789624e+18
14045.0	2.0801185002815488e+18
14046.0	2.0796292212981752e+18
14047.0	2.0791278560083965e+18
14048.0	2.0786470377750525e+18
14049.0	2.07816483709911e+18
14050.0	2.0776821331066877e+18
14051.0	2.077197055138201e+18
14052.0	2.076717117708697e+18
14053.0	2.0762346804740093e+18
14054.0	2.0757526274375677e+18
14055.0	2.0752701935583224e+18
14056.0	2.0747886589378555e+18
14057.0	2.074306899502694e+18
14058.0	2.073825254152601e+18
14059.0	2.0733437446979581e+18
14060.0	2.072862377849651e+18
14061.0	2.0723794138103805e+18
14062.0	2.071900019962675e+18
14063.0	2.0714144705544187e+18
14064.0	2.070900960237977e+18
14065.0	2.0704552667840507e+18
14066.0	2.0699630266220544e+18
14067.0	2.0694677732720637e+18
14068.0	2.0689941725970427e+18
14069.0	2.0685130926391293e+18
14070.0	2.0680336987914235e+18
14071.0	2.0675531372494843e+18
14072.0	2.0670740302921725e+18
14073.0	2.0665943260659707e+18
14074.0	2.0661147845787645e+18
14075.0	2.0656299700125693e+18
14076.0	2.065148346472857e+18
14077.0	2.0646143260098555e+18
14078.0	2.0641930551492603e+18
14079.0	2.0637170452660221e+18
14080.0	2.0632401680007165e+18
14081.0	2.0627615391940605e+18
14082.0	2.062278185923379e+18
14083.0	2.0618042379599867e+18
14084.0	2.0613264144596987e+18
14085.0	2.0607456946159616e+18
14086.0	2.0603653467406328e+18
14087.0	2.0598924741967872e+18
14088.0	2.0594094061387773e+18
14089.0	2.0589091196239867e+18
14090.0	2.058436950045491e+18
14091.0	2.0579606834708475e+18
14092.0	2.057483457239449e+18
14093.0	2.0570063417376765e+18
14094.0	2.0565293487095805e+18
14095.0	2.056052488221491e+18
14096.0	2.0555620717428733e+18
14097.0	2.055091365137612e+18
14098.0	2.054616256190873e+18
14099.0	2.0541463632805883e+18
14100.0	2.0536671707594747e+18
14101.0	2.053194219362713e+18
14102.0	2.052718154114662e+18
14103.0	2.052238926361395e+18
14104.0	2.051766833958092e+18
14105.0	2.051290491885977e+18
14106.0	2.0508158560567293e+18
14107.0	2.0503382674374648e+18
14108.0	2.0498619488534525e+18
14109.0	2.0493889991344125e+18
14110.0	2.048909984451788e+18
14111.0	2.0484297215442936e+18
14112.0	2.0479657207922688e+18
14113.0	2.0474880247988221e+18
14114.0	2.0469918570905597e+18
14115.0	2.0465212897361915e+18
14116.0	2.046022493038182e+18
14117.0	2.0451431085506555e+18
14118.0	2.045099465978675e+18
14119.0	2.0446169800900603e+18
14120.0	2.0441451879989245e+18
14121.0	2.0436723339100155e+18
14122.0	2.0431960975343616e+18
14123.0	2.0427191900700667e+18
14124.0	2.0422444837765115e+18
14125.0	2.0416560984227837e+18
14126.0	2.041309870371635e+18
14127.0	2.0408404656783355e+18
14128.0	2.040367505892966e+18
14129.0	2.0398920328806397e+18
14130.0	2.0394166471098363e+18
14131.0	2.0389509065605115e+18
14132.0	2.038477215288524e+18
14133.0	2.0378551916167163e+18
14134.0	2.037534953150873e+18
14135.0	2.0370578997247992e+18
14136.0	2.0365636530077693e+18
14137.0	2.0361196439863293e+18
14138.0	2.0356428237635581e+18
14139.0	2.0351777224261627e+18
14140.0	2.034697608835891e+18
14141.0	2.0342183122960376e+18
14142.0	2.0337015992090621e+18
14143.0	2.0332633850380288e+18
14144.0	2.0328029007904765e+18
14145.0	2.0323324693315581e+18
14146.0	2.0318616268308477e+18
14147.0	2.0313912943575037e+18
14148.0	2.0309195777638397e+18
14149.0	2.030448676542873e+18
14150.0	2.0299821172654077e+18
14151.0	2.029507182801715e+18
14152.0	2.0290429371023355e+18
14153.0	2.0285734451675133e+18
14154.0	2.0280966601768955e+18
14155.0	2.0275682936356861e+18
14156.0	2.0271616239861752e+18
14157.0	2.0266969001361408e+18
14158.0	2.026226503909376e+18
14159.0	2.0257593976946688e+18
14160.0	2.0252903319011325e+18
14161.0	2.0248047774597115e+18
14162.0	2.0243243484577787e+18
14163.0	2.0238857215672315e+18
14164.0	2.0234001704812544e+18
14165.0	2.022855800153702e+18
14166.0	2.0224796348383227e+18
14167.0	2.022004879890841e+18
14168.0	2.0215386830012416e+18
14169.0	2.021074224231219e+18
14170.0	2.020604705452851e+18
14171.0	2.020138684724019e+18
14172.0	2.0196701625122816e+18
14173.0	2.0191413060763645e+18
14174.0	2.018716991828787e+18
14175.0	2.0182518753918973e+18
14176.0	2.0177844000784384e+18
14177.0	2.017318547121766e+18
14178.0	2.01685145265111e+18
14179.0	2.0163771590770683e+18
14180.0	2.0159203876274173e+18
14181.0	2.0154544658841592e+18
14182.0	2.0149884602548221e+18
14183.0	2.0145229948518397e+18
14184.0	2.0140559926558717e+18
14185.0	2.013591980159795e+18
14186.0	2.013039456105267e+18
14187.0	2.012654643812761e+18
14188.0	2.0121962047078397e+18
14189.0	2.0117298165579773e+18
14190.0	2.0112660691419133e+18
14191.0	2.0108010869227517e+18
14192.0	2.010335173568102e+18
14193.0	2.009859111675494e+18
14194.0	2.0094078012096512e+18
14195.0	2.0089447047495677e+18
14196.0	2.0084805764907003e+18
14197.0	2.0080166629801981e+18
14198.0	2.0075514878230525e+18
14199.0	2.0070876246441984e+18
14200.0	2.0065765034033152e+18
14201.0	2.0061613193166843e+18
14202.0	2.0056990231298043e+18
14203.0	2.005225469430988e+18
14204.0	2.0047718923632635e+18
14205.0	2.0043090593054717e+18
14206.0	2.0038117624905725e+18
14207.0	2.0033843394248701e+18
14208.0	2.0029218838544381e+18
14209.0	2.0024035031121915e+18
14210.0	2.001952638920294e+18
14211.0	2.001514461659136e+18
14212.0	2.001052267813273e+18
14213.0	2.0005891914858493e+18
14214.0	2.0001285092671483e+18
14215.0	1.9996635656355835e+18
14216.0	1.9992054352314363e+18
14217.0	1.99874389737472e+18
14218.0	1.9982790980272125e+18
14219.0	1.9978213350440955e+18
14220.0	1.9973602770157568e+18
14221.0	1.9968975613984765e+18
14222.0	1.9964255193268221e+18
14223.0	1.9959775575932925e+18
14224.0	1.9955170330804221e+18
14225.0	1.9949194051583997e+18
14226.0	1.994596034386329e+18
14227.0	1.9941359729246203e+18
14228.0	1.9933588791230464e+18
14229.0	1.9931728818733046e+18
14230.0	1.9927559831552e+18
14231.0	1.9922858234871805e+18
14232.0	1.9918365799743483e+18
14233.0	1.9913750119186427e+18
14234.0	1.9909176952094717e+18
14235.0	1.9904577595768827e+18
14236.0	1.9899989983494144e+18
14237.0	1.9895398697009147e+18
14238.0	1.9890812359802877e+18
14239.0	1.9886204514205696e+18
14240.0	1.9877752605769728e+18
14241.0	1.9877053264297981e+18
14242.0	1.9872469863104507e+18
14243.0	1.9867452015902715e+18
14244.0	1.9863305594077181e+18
14245.0	1.9858678639230973e+18
14246.0	1.985405639878246e+18
14247.0	1.9849551984721915e+18
14248.0	1.9844952645173245e+18
14249.0	1.9840306815959037e+18
14250.0	1.983549702301286e+18
14251.0	1.9830930701025277e+18
14252.0	1.9826357936586747e+18
14253.0	1.9821785155371005e+18
14254.0	1.9817210058899456e+18
14255.0	1.981256473300172e+18
14256.0	1.9806716447162365e+18
14257.0	1.98034948358144e+18
14258.0	1.979894921691136e+18
14259.0	1.9794340733779965e+18
14260.0	1.9789784964661243e+18
14261.0	1.9785199197880317e+18
14262.0	1.9780783988277243e+18
14263.0	1.977420971874713e+18
14264.0	1.9771356602171384e+18
14265.0	1.9767081918529533e+18
14266.0	1.9762555123662845e+18
14267.0	1.9757999690088443e+18
14268.0	1.975344766228889e+18
14269.0	1.9748889124929533e+18
14270.0	1.9744345234079736e+18
14271.0	1.973978040526438e+18
14272.0	1.973524574188339e+18
14273.0	1.9730696666873853e+18
14274.0	1.9723205388271616e+18
14275.0	1.9721343519948797e+18
14276.0	1.9716955103559675e+18
14277.0	1.9712450286845947e+18
14278.0	1.9707981222379515e+18
14279.0	1.9703439864889341e+18
14280.0	1.9698880555778043e+18
14281.0	1.969436466610176e+18
14282.0	1.9689828895424507e+18
14283.0	1.9685293577732096e+18
14284.0	1.9680759384113152e+18
14285.0	1.967622550926131e+18
14286.0	1.9671688228634624e+18
14287.0	1.96671635980288e+18
14288.0	1.9662633447718907e+18
14289.0	1.9655618927263734e+18
14290.0	1.9653558584475643e+18
14291.0	1.9649050328432635e+18
14292.0	1.964452849962188e+18
14293.0	1.9639998986846203e+18
14294.0	1.96350938489815e+18
14295.0	1.963092140569395e+18
14296.0	1.9624422432309245e+18
14297.0	1.9621922123808765e+18
14298.0	1.9616518367084544e+18
14299.0	1.9612641454456827e+18
14300.0	1.9608153985384443e+18
14301.0	1.9603655107805181e+18
14302.0	1.9599142472908797e+18
14303.0	1.9594534375653373e+18
14304.0	1.9590090158243837e+18
14305.0	1.9585601279885307e+18
14306.0	1.9580868309811197e+18
14307.0	1.9576525980434427e+18
14308.0	1.9572078726348797e+18
14309.0	1.95675475190743e+18
14310.0	1.9562016976928768e+18
14311.0	1.9557933956202493e+18
14312.0	1.955386382037811e+18
14313.0	1.954937794514124e+18
14314.0	1.9545046202187768e+18
14315.0	1.9540572809199608e+18
14316.0	1.9535932684238843e+18
14317.0	1.9531436155469821e+18
14318.0	1.9527090403540987e+18
14319.0	1.9522598790496253e+18
14320.0	1.9518105197740027e+18
14321.0	1.9513615581183997e+18
14322.0	1.9509000840151035e+18
14323.0	1.9504592676978683e+18
14324.0	1.9500144181379072e+18
14325.0	1.949563176458649e+18
14326.0	1.9491176524546043e+18
14327.0	1.9486671405842432e+18
14328.0	1.9482190983200765e+18
14329.0	1.9477726817681408e+18
14330.0	1.947324558973337e+18
14331.0	1.9468764160458747e+18
14332.0	1.946428648928051e+18
14333.0	1.94598088516567e+18
14334.0	1.9455332220665848e+18
14335.0	1.9450803831963643e+18
14336.0	1.944619825129062e+18
14337.0	1.9441907142754301e+18
14338.0	1.9437430998302715e+18
14339.0	1.9432930627551227e+18
14340.0	1.9428495318843387e+18
14341.0	1.9424013939900408e+18
14342.0	1.9419487061147645e+18
14343.0	1.9414762328686587e+18
14344.0	1.9410316081233917e+18
14345.0	1.9405875890356221e+18
14346.0	1.9401401792724987e+18
14347.0	1.9396863622905856e+18
14348.0	1.9392487084785661e+18
14349.0	1.9388030838112248e+18
14350.0	1.9383459113861117e+18
14351.0	1.9378978053685245e+18
14352.0	1.9374633643933693e+18
14353.0	1.937016075426201e+18
14354.0	1.936554389929984e+18
14355.0	1.9361064969830397e+18
14356.0	1.9356626171461627e+18
14357.0	1.9352203462443005e+18
14358.0	1.9347753356230656e+18
14359.0	1.9343256928124925e+18
14360.0	1.9338845057187837e+18
14361.0	1.933440625881907e+18
14362.0	1.9329963635245053e+18
14363.0	1.932551812598988e+18
14364.0	1.9320670684971005e+18
14365.0	1.931657852066201e+18
14366.0	1.931212935397376e+18
14367.0	1.9307752346091517e+18
14368.0	1.930331170222899e+18
14369.0	1.929887513522995e+18
14370.0	1.9294438585008128e+18
14371.0	1.9290003259523064e+18
14372.0	1.928555137492582e+18
14373.0	1.9281133950730237e+18
14374.0	1.927670201424281e+18
14375.0	1.9272270396522493e+18
14376.0	1.9267839936430075e+18
14377.0	1.9263408805249021e+18
14378.0	1.9258974771609597e+18
14379.0	1.9254554814054397e+18
14380.0	1.92501272060887e+18
14381.0	1.924566736909107e+18
14382.0	1.9241274976501755e+18
14383.0	1.9236791114530816e+18
14384.0	1.923237216360857e+18
14385.0	1.9228014046871547e+18
14386.0	1.9223549512253437e+18
14387.0	1.9219174668632061e+18
14388.0	1.9214750701322235e+18
14389.0	1.9210339937681405e+18
14390.0	1.9205918956716027e+18
14391.0	1.920150881383219e+18
14392.0	1.9197075149291517e+18
14393.0	1.9192684870631421e+18
14394.0	1.918816361224601e+18
14395.0	1.9183768887623675e+18
14396.0	1.9179450130235387e+18
14397.0	1.9175045456723963e+18
14398.0	1.9170623150358525e+18
14399.0	1.9166228559953917e+18
14400.0	1.9161743758458875e+18
14401.0	1.9157403744337917e+18
14402.0	1.9153015428612093e+18
14403.0	1.9133797261901793e+18
14404.0	1.9104316069511153e+18
14405.0	1.913611224927435e+18
14406.0	1.9135414065430528e+18
14407.0	1.9108963308011528e+18
14408.0	1.9126506907238397e+18
14409.0	1.9122173872439293e+18
14410.0	1.9117798307397632e+18
14411.0	1.911343207048806e+18
14412.0	1.9109036087574525e+18
14413.0	1.9104653945864187e+18
14414.0	1.9100255597363197e+18
14415.0	1.9095869143908347e+18
14416.0	1.909146442006528e+18
14417.0	1.9086966918217725e+18
14418.0	1.9082378718740477e+18
14419.0	1.907813376432537e+18
14420.0	1.9073738704158715e+18
14421.0	1.9069366108684288e+18
14422.0	1.9064982557687803e+18
14423.0	1.9060569680117755e+18
14424.0	1.8966982846054336e+18
14425.0	1.905181542947225e+18
14426.0	1.904746133926707e+18
14427.0	1.904308533801779e+18
14428.0	1.9038629863096317e+18
14429.0	1.903432318530355e+18
14430.0	1.9029957602705405e+18
14431.0	1.90249523216384e+18
14432.0	1.902113615930982e+18
14433.0	1.9000353114554353e+18
14434.0	1.9012430260600827e+18
14435.0	1.9007981010026493e+18
14436.0	1.9003727482454013e+18
14437.0	1.899935950071398e+18
14438.0	1.8994470217318397e+18
14439.0	1.899050876429926e+18
14440.0	1.8986257837195261e+18
14441.0	1.8981879805902843e+18
14442.0	1.8977501774610427e+18
14443.0	1.8973033850994683e+18
14444.0	1.896879465116467e+18
14445.0	1.8964444990144507e+18
14446.0	1.8942044420440072e+18
14447.0	1.8955686796853245e+18
14448.0	1.8951369935290363e+18
14449.0	1.8947013076844541e+18
14450.0	1.894257437913907e+18
14451.0	1.8938132997079037e+18
14452.0	1.8933768404336637e+18
14453.0	1.8929101570047997e+18
14454.0	1.8925073293377533e+18
14455.0	1.8920708247650304e+18
14456.0	1.8916300738789373e+18
14457.0	1.8911912506949627e+18
14458.0	1.8907631397634043e+18
14459.0	1.8903277290651643e+18
14460.0	1.889895277867827e+18
14461.0	1.8894477909295104e+18
14462.0	1.888969818112e+18
14463.0	1.8885881532252155e+18
14464.0	1.888158448458137e+18
14465.0	1.8877194424025083e+18
14466.0	1.8872910798127104e+18
14467.0	1.8868311945117693e+18
14468.0	1.8864208556851192e+18
14469.0	1.8859800913772541e+18
14470.0	1.8855470663991293e+18
14471.0	1.885117108296089e+18
14472.0	1.884685113439027e+18
14473.0	1.88425494897623e+18
14474.0	1.8838216454963197e+18
14475.0	1.883386764958105e+18
14476.0	1.8828476089892861e+18
14477.0	1.882521376024166e+18
14478.0	1.8820880943546365e+18
14479.0	1.8816544234536955e+18
14480.0	1.8812174826733563e+18
14481.0	1.8807897710395387e+18
14482.0	1.880356024641126e+18
14483.0	1.8799210904158203e+18
14484.0	1.8794897398038525e+18
14485.0	1.879046915253862e+18
14486.0	1.8785412935843837e+18
14487.0	1.8781936495362043e+18
14488.0	1.8777467883880445e+18
14489.0	1.8773232140156925e+18
14490.0	1.87689595872215e+18
14491.0	1.8764652791988221e+18
14492.0	1.8760334118486013e+18
14493.0	1.8756011603001344e+18
14494.0	1.8751634158911483e+18
14495.0	1.8747297886109693e+18
14496.0	1.874249607911833e+18
14497.0	1.8738567744323584e+18
14498.0	1.8734249456697344e+18
14499.0	1.8729939255689213e+18
14500.0	1.87256236188631e+18
14501.0	1.8720801343668224e+18
14502.0	1.8715895333388283e+18
14503.0	1.8712596043530235e+18
14504.0	1.870835806843699e+18
14505.0	1.8703589077680125e+18
14506.0	1.869867268230348e+18
14507.0	1.8694742166470653e+18
14508.0	1.8691135048253435e+18
14509.0	1.8686827045060605e+18
14510.0	1.8682519612293117e+18
14511.0	1.867821263251046e+18
14512.0	1.8673858810740733e+18
14513.0	1.8669600468107261e+18
14514.0	1.8665145244844032e+18
14515.0	1.8660982079356925e+18
14516.0	1.8650555274493957e+18
14517.0	1.8652382044880893e+18
14518.0	1.864808024925798e+18
14519.0	1.864378043334656e+18
14520.0	1.863947920814899e+18
14521.0	1.8635171372728315e+18
14522.0	1.863086635587993e+18
14523.0	1.8625404969418747e+18
14524.0	1.8621094852296704e+18
14525.0	1.8617965414973437e+18
14526.0	1.8613684423098365e+18
14527.0	1.8609313723449336e+18
14528.0	1.8604689805279227e+18
14529.0	1.8600763886403581e+18
14530.0	1.8596452762648576e+18
14531.0	1.8592200124268536e+18
14532.0	1.8586264949227517e+18
14533.0	1.858361393099571e+18
14534.0	1.8579325523591163e+18
14535.0	1.857499765617459e+18
14536.0	1.857073938064998e+18
14537.0	1.856641220109926e+18
14538.0	1.856215624083046e+18
14539.0	1.8557867984420861e+18
14540.0	1.8553577748299776e+18
14541.0	1.854922483249971e+18
14542.0	1.8544998450462715e+18
14543.0	1.8539969446412283e+18
14544.0	1.8536419874045947e+18
14545.0	1.8532107240341504e+18
14546.0	1.8429005174669245e+18
14547.0	1.8435786240163756e+18
14548.0	1.8519234451603453e+18
14549.0	1.8514642661801981e+18
14550.0	1.8510684077686781e+18
14551.0	1.8506418621513723e+18
14552.0	1.850212400653926e+18
14553.0	1.8497823183994877e+18
14554.0	1.8493565428563965e+18
14555.0	1.8489277558030333e+18
14556.0	1.848496646782976e+18
14557.0	1.8480713057697787e+18
14558.0	1.8476427452088315e+18
14559.0	1.8467523364126702e+18
14560.0	1.8467738028605437e+18
14561.0	1.8463564545130493e+18
14562.0	1.8459219783057403e+18
14563.0	1.8455019623809021e+18
14564.0	1.845067331823206e+18
14565.0	1.8446460727066621e+18
14566.0	1.844218013784473e+18
14567.0	1.843789599185305e+18
14568.0	1.843345226098278e+18
14569.0	1.842933783330816e+18
14570.0	1.8423719495991293e+18
14571.0	1.842077073250713e+18
14572.0	1.8416332890439677e+18
14573.0	1.8412069967626237e+18
14574.0	1.8407580602728443e+18
14575.0	1.8403446814146555e+18
14576.0	1.8399164245213184e+18
14577.0	1.8394892950568955e+18
14578.0	1.8390631067942907e+18
14579.0	1.838635928675942e+18
14580.0	1.8382083831365627e+18
14581.0	1.837776935216742e+18
14582.0	1.8373525890924541e+18
14583.0	1.8369249647001592e+18
14584.0	1.836492382640537e+18
14585.0	1.836068967651737e+18
14586.0	1.8356234268704765e+18
14587.0	1.8351933932699643e+18
14588.0	1.8347414503030781e+18
14589.0	1.8343282425724925e+18
14590.0	1.833916343464755e+18
14591.0	1.8335035048329216e+18
14592.0	1.8330905856704507e+18
14593.0	1.8326466034925565e+18
14594.0	1.832268257139097e+18
14595.0	1.831854297789235e+18
14596.0	1.8314047506087933e+18
14597.0	1.830994032617062e+18
14598.0	1.8306163321864187e+18
14599.0	1.8302071207886845e+18
14600.0	1.8297936043573243e+18
14601.0	1.8293821297131517e+18
14602.0	1.8289651705970688e+18
14603.0	1.828556928922419e+18
14604.0	1.8281299034767355e+18
14605.0	1.8277232522821624e+18
14606.0	1.8272993641758717e+18
14607.0	1.8269061397872637e+18
14608.0	1.8264933951078397e+18
14609.0	1.8260710085623805e+18
14610.0	1.825653385068544e+18
14611.0	1.825252956543385e+18
14612.0	1.8248432149856253e+18
14613.0	1.8244307051872253e+18
14614.0	1.8240167240269821e+18
14615.0	1.8236028217196541e+18
14616.0	1.823191519880806e+18
14617.0	1.8227781527666685e+18
14618.0	1.8223575613833213e+18
14619.0	1.821931321111347e+18
14620.0	1.8214231258169341e+18
14621.0	1.8210836707278845e+18
14622.0	1.8206697734537216e+18
14623.0	1.820255763772211e+18
14624.0	1.8198245339561981e+18
14625.0	1.819426313312665e+18
14626.0	1.819010189701939e+18
14627.0	1.8185921534885885e+18
14628.0	1.8181844637843456e+18
14629.0	1.817769823279513e+18
14630.0	1.817354214729318e+18
14631.0	1.8169392537796605e+18
14632.0	1.8157999046524928e+18
14633.0	1.8160317976543224e+18
14634.0	1.8156918090498043e+18
14635.0	1.8152107660017656e+18
14636.0	1.8146421022654456e+18
14637.0	1.814447796938342e+18
14638.0	1.8140301231128576e+18
14639.0	1.8136116943126523e+18
14640.0	1.8131979195121661e+18
14641.0	1.8100027926773737e+18
14642.0	1.8123644324544507e+18
14643.0	1.8119488339705853e+18
14644.0	1.8115281385684995e+18
14645.0	1.811107733412249e+18
14646.0	1.8106875799142392e+18
14647.0	1.8102689665646587e+18
14648.0	1.809859929649971e+18
