# Flux units: erg / (cm m2 s)
# Wavelength units: Angstrom
wave	flux
14000.0	1.872540944092364e+18
14001.0	1.8721173160329213e+18
14002.0	1.8717916182609915e+18
14003.0	1.8711478345400317e+18
14004.0	1.8707327158845437e+18
14005.0	1.870342806673817e+18
14006.0	1.8699477116256253e+18
14007.0	1.8695571514589181e+18
14008.0	1.8691042991669243e+18
14009.0	1.8687827638222843e+18
14010.0	1.8683852947980288e+18
14011.0	1.867571017652633e+18
14012.0	1.8676158648287227e+18
14013.0	1.8672268867534843e+18
14014.0	1.866833803293491e+18
14015.0	1.8664471975165952e+18
14016.0	1.8660599642718203e+18
14017.0	1.8656712412102653e+18
14018.0	1.8652823386324987e+18
14019.0	1.8648939762810877e+18
14020.0	1.86450497807319e+18
14021.0	1.8640959965233152e+18
14022.0	1.8636375406411768e+18
14023.0	1.8632343388422136e+18
14024.0	1.8628486574899197e+18
14025.0	1.8624763475787776e+18
14026.0	1.8620878291992576e+18
14027.0	1.8617013911945213e+18
14028.0	1.8613136512778237e+18
14029.0	1.8609256211152896e+18
14030.0	1.859563002475316e+18
14031.0	1.8601103255928822e+18
14032.0	1.8597610541547515e+18
14033.0	1.8593381491933181e+18
14034.0	1.858987280564223e+18
14035.0	1.8586019800547325e+18
14036.0	1.8582151209418747e+18
14037.0	1.8578282735730688e+18
14038.0	1.8574414866022397e+18
14039.0	1.8570428616278013e+18
14040.0	1.856640565798502e+18
14041.0	1.8562573607632893e+18
14042.0	1.8558651765620733e+18
14043.0	1.855459885999718e+18
14044.0	1.8550933206073341e+18
14045.0	1.8547124677378043e+18
14046.0	1.8543261522067453e+18
14047.0	1.8539356490825725e+18
14048.0	1.8535546653507581e+18
14049.0	1.8531714317942781e+18
14050.0	1.8527857336647675e+18
14051.0	1.8523939789602816e+18
14052.0	1.8520144649125883e+18
14053.0	1.8516290687729661e+18
14054.0	1.8512437883961341e+18
14055.0	1.85085852647424e+18
14056.0	1.8504733551493112e+18
14057.0	1.8500882962317307e+18
14058.0	1.8497033144893437e+18
14059.0	1.849301334071705e+18
14060.0	1.8489129868197883e+18
14061.0	1.848523535627059e+18
14062.0	1.8481435568504835e+18
14063.0	1.8477478712442877e+18
14064.0	1.8472053631877112e+18
14065.0	1.8469841270734845e+18
14066.0	1.8466058008526845e+18
14067.0	1.84620679168e+18
14068.0	1.8458375469662205e+18
14069.0	1.845450914345779e+18
14070.0	1.8450689592131581e+18
14071.0	1.8446837543337981e+18
14072.0	1.8443020189827072e+18
14073.0	1.8439183710289915e+18
14074.0	1.8435348623261693e+18
14075.0	1.8431385643515904e+18
14076.0	1.8427502288437245e+18
14077.0	1.8421554127831037e+18
14078.0	1.8419844982505472e+18
14079.0	1.841611367933542e+18
14080.0	1.8412355348070397e+18
14081.0	1.8408471774887933e+18
14082.0	1.8404445444374523e+18
14083.0	1.8400657434214397e+18
14084.0	1.8396839661273083e+18
14085.0	1.8390184039022595e+18
14086.0	1.8389006983102461e+18
14087.0	1.8385365840691197e+18
14088.0	1.8381435089977341e+18
14089.0	1.8377588393115643e+18
14090.0	1.837386073060147e+18
14091.0	1.8370079112560635e+18
14092.0	1.836626018199142e+18
14093.0	1.8362441519857661e+18
14094.0	1.8358623746916347e+18
14095.0	1.8354806259187707e+18
14096.0	1.835051464733491e+18
14097.0	1.8346998478405632e+18
14098.0	1.8343149919272955e+18
14099.0	1.8339548773744635e+18
14100.0	1.8335653355847675e+18
14101.0	1.8331927085842427e+18
14102.0	1.8328115000377336e+18
14103.0	1.832420428165939e+18
14104.0	1.8320499067060221e+18
14105.0	1.8316685605863421e+18
14106.0	1.831280622698496e+18
14107.0	1.8308861903503355e+18
14108.0	1.8304993111048187e+18
14109.0	1.8301232833626107e+18
14110.0	1.8297396941291512e+18
14111.0	1.8293533668540413e+18
14112.0	1.8289806744223736e+18
14113.0	1.828598210940108e+18
14114.0	1.8282165779300352e+18
14115.0	1.8278448216670203e+18
14116.0	1.827417041246617e+18
14117.0	1.8254176316293117e+18
14118.0	1.82670603625431e+18
14119.0	1.8262967409704952e+18
14120.0	1.825924457902899e+18
14121.0	1.8255560788934653e+18
14122.0	1.8251504242655227e+18
14123.0	1.8247779381936125e+18
14124.0	1.824394166088499e+18
14125.0	1.82372542793646e+18
14126.0	1.8236656825925632e+18
14127.0	1.8232942148976637e+18
14128.0	1.8229146035421181e+18
14129.0	1.8225283618308093e+18
14130.0	1.8221439589023741e+18
14131.0	1.8217800006893563e+18
14132.0	1.8213978626850813e+18
14133.0	1.8206416196075512e+18
14134.0	1.8206253071204347e+18
14135.0	1.8202304335314936e+18
14136.0	1.819806224980377e+18
14137.0	1.8194875652505597e+18
14138.0	1.8190930540494845e+18
14139.0	1.81873526481879e+18
14140.0	1.8183480231854075e+18
14141.0	1.817971373008486e+18
14142.0	1.817465695974195e+18
14143.0	1.817217007301427e+18
14144.0	1.8168481149091837e+18
14145.0	1.816470864107929e+18
14146.0	1.8160902662520827e+18
14147.0	1.815714389504819e+18
14148.0	1.8153330064752637e+18
14149.0	1.8149559570006013e+18
14150.0	1.8145858532933627e+18
14151.0	1.814197240961433e+18
14152.0	1.8138325915271168e+18
14153.0	1.8134559447056381e+18
14154.0	1.8130619066220541e+18
14155.0	1.8125282351251453e+18
14156.0	1.8122942751703037e+18
14157.0	1.8119504445833216e+18
14158.0	1.8115709808672765e+18
14159.0	1.8111983136014333e+18
14160.0	1.8108165027528696e+18
14161.0	1.8104066521432056e+18
14162.0	1.8099963787476987e+18
14163.0	1.8096941623672827e+18
14164.0	1.8092601995427837e+18
14165.0	1.8088340247019517e+18
14166.0	1.8085471024316416e+18
14167.0	1.8081644007129088e+18
14168.0	1.8077921394556925e+18
14169.0	1.8074239970050043e+18
14170.0	1.8070432011780093e+18
14171.0	1.8066719331319803e+18
14172.0	1.8062990142078979e+18
14173.0	1.8058709351530493e+18
14174.0	1.8055442458476541e+18
14175.0	1.8051748182622203e+18
14176.0	1.8047990673440765e+18
14177.0	1.8044252172845053e+18
14178.0	1.8040497549344768e+18
14179.0	1.8036662579757053e+18
14180.0	1.8033029003870205e+18
14181.0	1.8029287634370555e+18
14182.0	1.8025541667913728e+18
14183.0	1.802180751261696e+18
14184.0	1.8018032404135933e+18
14185.0	1.8014328565268475e+18
14186.0	1.8007475961724928e+18
14187.0	1.8006683875803133e+18
14188.0	1.8003114086891515e+18
14189.0	1.7999350722461693e+18
14190.0	1.7995628411879421e+18
14191.0	1.7991883837931515e+18
14192.0	1.7988129986183165e+18
14193.0	1.7983944842543104e+18
14194.0	1.7980694391160827e+18
14195.0	1.797699979653939e+18
14196.0	1.7973269684551677e+18
14197.0	1.796954222336409e+18
14198.0	1.7965782801580027e+18
14199.0	1.7962065490608125e+18
14200.0	1.7956538454900733e+18
14201.0	1.795391315614105e+18
14202.0	1.794739973757337e+18
14203.0	1.7943555607625723e+18
14204.0	1.7939934681759736e+18
14205.0	1.7936215189749755e+18
14206.0	1.7931630681260027e+18
14207.0	1.7928793704366075e+18
14208.0	1.7925077064482813e+18
14209.0	1.7920442023018493e+18
14210.0	1.7916968988311547e+18
14211.0	1.7913893254856696e+18
14212.0	1.7910206109319163e+18
14213.0	1.7906465226358781e+18
14214.0	1.7902777996935165e+18
14215.0	1.7898985993797632e+18
14216.0	1.7895362182250493e+18
14217.0	1.789165047486873e+18
14218.0	1.788785991457177e+18
14219.0	1.788423184161177e+18
14220.0	1.7880507668758525e+18
14221.0	1.7876771634413565e+18
14222.0	1.7872824727240696e+18
14223.0	1.7869396403814397e+18
14224.0	1.7865699611377661e+18
14225.0	1.7856380455092224e+18
14226.0	1.7858257976557563e+18
14227.0	1.7854590913347581e+18
14228.0	1.7837589369192448e+18
14229.0	1.78439542926213e+18
14230.0	1.7843490369044475e+18
14231.0	1.7839549770104827e+18
14232.0	1.7836092707307515e+18
14233.0	1.783235627030937e+18
14234.0	1.782870157190758e+18
14235.0	1.782498848879411e+18
14236.0	1.7821309983522808e+18
14237.0	1.781760835924787e+18
14238.0	1.781392200223948e+18
14239.0	1.7810177663172605e+18
14240.0	1.7795547326840827e+18
14241.0	1.780280510015078e+18
14242.0	1.7798984911290363e+18
14243.0	1.7794190419165184e+18
14244.0	1.7791593457123328e+18
14245.0	1.7787766406381563e+18
14246.0	1.77840401195991e+18
14247.0	1.7780501301428221e+18
14248.0	1.777673775244902e+18
14249.0	1.7773151119212544e+18
14250.0	1.7769466356039677e+18
14251.0	1.7765801507422205e+18
14252.0	1.776211927760896e+18
14253.0	1.7758432383729661e+18
14254.0	1.775474169819955e+18
14255.0	1.77508468171735e+18
14256.0	1.7741782087368707e+18
14257.0	1.7743386710638584e+18
14258.0	1.774004609849753e+18
14259.0	1.7736234885447677e+18
14260.0	1.7732501703229437e+18
14261.0	1.7728884954890237e+18
14262.0	1.7725495537827837e+18
14263.0	1.7713676005933056e+18
14264.0	1.7716404383907832e+18
14265.0	1.7714437708316672e+18
14266.0	1.7710818695053307e+18
14267.0	1.7707150038007805e+18
14268.0	1.77034822198231e+18
14269.0	1.769979653390336e+18
14270.0	1.7696147288096765e+18
14271.0	1.7692465192501243e+18
14272.0	1.7688813178454008e+18
14273.0	1.76851346564055e+18
14274.0	1.7668902582484995e+18
14275.0	1.7676687814688765e+18
14276.0	1.767400384600473e+18
14277.0	1.7670360371560443e+18
14278.0	1.766683806217011e+18
14279.0	1.76631699252183e+18
14280.0	1.7659472948232187e+18
14281.0	1.7655863682531325e+18
14282.0	1.7652208514367488e+18
14283.0	1.7648552104689661e+18
14284.0	1.7644896248659965e+18
14285.0	1.76412387484631e+18
14286.0	1.7637562944323581e+18
14287.0	1.76339336298496e+18
14288.0	1.7630280542060541e+18
14289.0	1.7619587365339126e+18
14290.0	1.7622955425005565e+18
14291.0	1.7619136343441403e+18
14292.0	1.76154936910807e+18
14293.0	1.7611828943126525e+18
14294.0	1.760722316112691e+18
14295.0	1.760445760484147e+18
14296.0	1.7595218811420672e+18
14297.0	1.759723862045491e+18
14298.0	1.759117558625075e+18
14299.0	1.7589847417946107e+18
14300.0	1.758629573165056e+18
14301.0	1.7582670930247677e+18
14302.0	1.7579047806566397e+18
14303.0	1.757517497080217e+18
14304.0	1.757165600007782e+18
14305.0	1.756812015147417e+18
14306.0	1.756418960208691e+18
14307.0	1.7560708195549181e+18
14308.0	1.7557191573635072e+18
14309.0	1.7553492986036224e+18
14310.0	1.7548547398303741e+18
14311.0	1.7543855515631616e+18
14312.0	1.7542052149460987e+18
14313.0	1.7538324285620221e+18
14314.0	1.753531356387737e+18
14315.0	1.753177743006105e+18
14316.0	1.7527787623546877e+18
14317.0	1.7524243067568125e+18
14318.0	1.752090480423731e+18
14319.0	1.7517282989178875e+18
14320.0	1.7513653439823864e+18
14321.0	1.7510031624765435e+18
14322.0	1.7506132113227768e+18
14323.0	1.75026379727831e+18
14324.0	1.749915859628851e+18
14325.0	1.7495467340333056e+18
14326.0	1.7491912919351293e+18
14327.0	1.7488244732067837e+18
14328.0	1.7484623537766397e+18
14329.0	1.7481049906872317e+18
14330.0	1.747743037351526e+18
14331.0	1.7473808977887227e+18
14332.0	1.7470192934191104e+18
14333.0	1.746657596774809e+18
14334.0	1.7462959471067128e+18
14335.0	1.7459232026656763e+18
14336.0	1.7455098372292603e+18
14337.0	1.7452110048133117e+18
14338.0	1.7448485565497341e+18
14339.0	1.7444808754724867e+18
14340.0	1.7441270406316032e+18
14341.0	1.7437619885441021e+18
14342.0	1.7434054626377723e+18
14343.0	1.7430396438315005e+18
14344.0	1.7426784622477307e+18
14345.0	1.7423227584249853e+18
14346.0	1.7419486801952763e+18
14347.0	1.7415510098444285e+18
14348.0	1.741221386203955e+18
14349.0	1.7408620903792637e+18
14350.0	1.740456127050547e+18
14351.0	1.7400885734801403e+18
14352.0	1.739774911682969e+18
14353.0	1.739419474617958e+18
14354.0	1.7390542883127293e+18
14355.0	1.738683770208256e+18
14356.0	1.738327709030809e+18
14357.0	1.7379807142608893e+18
14358.0	1.7376205611204603e+18
14359.0	1.737250678872473e+18
14360.0	1.7368971175002107e+18
14361.0	1.7365399037280253e+18
14362.0	1.7361821077864443e+18
14363.0	1.7356876865863672e+18
14364.0	1.7351262353752061e+18
14365.0	1.7348758740140027e+18
14366.0	1.7345230760050685e+18
14367.0	1.7341903435464704e+18
14368.0	1.7338308262625277e+18
14369.0	1.7334721209958397e+18
14370.0	1.7331132429238272e+18
14371.0	1.7327545208799227e+18
14372.0	1.7323914300489725e+18
14373.0	1.732035714482176e+18
14374.0	1.7316777809674235e+18
14375.0	1.73131838783488e+18
14376.0	1.730960935826227e+18
14377.0	1.7306019805790203e+18
14378.0	1.7302420488978432e+18
14379.0	1.729885566612275e+18
14380.0	1.7295260963045376e+18
14381.0	1.729161159979827e+18
14382.0	1.728809642072473e+18
14383.0	1.7284456503050237e+18
14384.0	1.728080958927667e+18
14385.0	1.7277366485123072e+18
14386.0	1.7273684355973112e+18
14387.0	1.7270207764496381e+18
14388.0	1.7266615661887485e+18
14389.0	1.7263051627560957e+18
14390.0	1.7259463954137088e+18
14391.0	1.7255898711851005e+18
14392.0	1.7252306005262333e+18
14393.0	1.724875482228326e+18
14394.0	1.7244917487108093e+18
14395.0	1.724146876258713e+18
14396.0	1.7238032889413632e+18
14397.0	1.7234466053292027e+18
14398.0	1.723088378213171e+18
14399.0	1.7227321408749568e+18
14400.0	1.722359867873689e+18
14401.0	1.7220136867987456e+18
14402.0	1.7216607092735995e+18
14403.0	1.7193683409436646e+18
14404.0	1.715552920168037e+18
14405.0	1.7193748857356273e+18
14406.0	1.7202345553166333e+18
14407.0	1.717241921090356e+18
14408.0	1.7194876336603133e+18
14409.0	1.7191521681932288e+18
14410.0	1.7187891511820285e+18
14411.0	1.7184350462279677e+18
14412.0	1.7180773274615803e+18
14413.0	1.717723955671859e+18
14414.0	1.7173660657778688e+18
14415.0	1.7170109927784443e+18
14416.0	1.716649849782272e+18
14417.0	1.7162815127158781e+18
14418.0	1.715913779629261e+18
14419.0	1.7155873285603323e+18
14420.0	1.7152290645344253e+18
14421.0	1.7148768134627325e+18
14422.0	1.714518257513267e+18
14423.0	1.7141564316844027e+18
14424.0	1.7030770887491535e+18
14425.0	1.7134479264972797e+18
14426.0	1.7131003109703675e+18
14427.0	1.7127456909557757e+18
14428.0	1.7123754714857472e+18
14429.0	1.7120312818663424e+18
14430.0	1.7116806900613115e+18
14431.0	1.7110716083339261e+18
14432.0	1.7109628449980408e+18
14433.0	1.70858142320558e+18
14434.0	1.7102078786666493e+18
14435.0	1.7097841331666936e+18
14436.0	1.7094699680530427e+18
14437.0	1.7091156265402365e+18
14438.0	1.7086894835761147e+18
14439.0	1.708390092478873e+18
14440.0	1.7080517631410168e+18
14441.0	1.7076916318109693e+18
14442.0	1.7073343123423232e+18
14443.0	1.706950941212672e+18
14444.0	1.7066316305268733e+18
14445.0	1.7062811578400763e+18
14446.0	1.7034745560956936e+18
14447.0	1.705557462561587e+18
14448.0	1.7052198328336381e+18
14449.0	1.7048661187887096e+18
14450.0	1.7045086047043581e+18
14451.0	1.7041573065785344e+18
14452.0	1.7038025691234304e+18
14453.0	1.703417213249126e+18
14454.0	1.7030973875027965e+18
14455.0	1.7027399942143997e+18
14456.0	1.7023805440393216e+18
14457.0	1.7020255146606587e+18
14458.0	1.7016791406477312e+18
14459.0	1.7013246514954235e+18
14460.0	1.700969883841331e+18
14461.0	1.700577627498086e+18
14462.0	1.700047808049971e+18
14463.0	1.6998996685881341e+18
14464.0	1.699560696682905e+18
14465.0	1.699193869565952e+18
14466.0	1.6988588822495227e+18
14467.0	1.6984712077639677e+18
14468.0	1.6981504743702525e+18
14469.0	1.697766886814515e+18
14470.0	1.6974273713274875e+18
14471.0	1.6970869783920637e+18
14472.0	1.696738287445606e+18
14473.0	1.6963899890860024e+18
14474.0	1.6960388536991741e+18
14475.0	1.695681800988262e+18
14476.0	1.6952077758496763e+18
14477.0	1.6949819998207997e+18
14478.0	1.694630763770675e+18
14479.0	1.6942763165614077e+18
14480.0	1.6939140092264448e+18
14481.0	1.6935753124675581e+18
14482.0	1.6932204391170043e+18
14483.0	1.6928639484428285e+18
14484.0	1.692511021249331e+18
14485.0	1.6921412614750203e+18
14486.0	1.691594517171404e+18
14487.0	1.6914609151672315e+18
14488.0	1.6910669743915003e+18
14489.0	1.690719038419763e+18
14490.0	1.690385366437068e+18
14491.0	1.6900400175120381e+18
14492.0	1.689689289811558e+18
14493.0	1.6893345892663293e+18
14494.0	1.6889706025320443e+18
14495.0	1.6886356923908093e+18
14496.0	1.6881844775550976e+18
14497.0	1.687932327742668e+18
14498.0	1.6875818013687803e+18
14499.0	1.6872311441326077e+18
14500.0	1.6868798007083003e+18
14501.0	1.6864698897006587e+18
14502.0	1.6859608840667133e+18
14503.0	1.6858059246665725e+18
14504.0	1.6854712208850941e+18
14505.0	1.6850682439008253e+18
14506.0	1.6846602253631485e+18
14507.0	1.6842410046783485e+18
14508.0	1.6840728030216187e+18
14509.0	1.6837221491408893e+18
14510.0	1.6833692605349885e+18
14511.0	1.683020577977139e+18
14512.0	1.6826583645945856e+18
14513.0	1.682319600726835e+18
14514.0	1.6819399239401472e+18
14515.0	1.681617363507609e+18
14516.0	1.6794876972630026e+18
14517.0	1.6809167905882107e+18
14518.0	1.680567270847283e+18
14519.0	1.6802170565296123e+18
14520.0	1.6798667700699139e+18
14521.0	1.679515339404083e+18
14522.0	1.67916326617088e+18
14523.0	1.6786678786031616e+18
14524.0	1.6783347250364416e+18
14525.0	1.67811158638592e+18
14526.0	1.677765734144409e+18
14527.0	1.6773922733162493e+18
14528.0	1.6769685110390781e+18
14529.0	1.6767066740621312e+18
14530.0	1.6763525170987003e+18
14531.0	1.6760135938473981e+18
14532.0	1.6754841703415805e+18
14533.0	1.6753137608032253e+18
14534.0	1.674966302982144e+18
14535.0	1.6746082318942205e+18
14536.0	1.674266404506828e+18
14537.0	1.673907682462925e+18
14538.0	1.6735672089968637e+18
14539.0	1.6732176674455547e+18
14540.0	1.6728680017428475e+18
14541.0	1.6725032231239675e+18
14542.0	1.6721686636265467e+18
14543.0	1.671732078523187e+18
14544.0	1.6714691275390968e+18
14545.0	1.671113494180659e+18
14546.0	1.6574437239291848e+18
14547.0	1.6582897049796534e+18
14548.0	1.670060983923507e+18
14549.0	1.6696325726797821e+18
14550.0	1.6693685479538685e+18
14551.0	1.6690238835392507e+18
14552.0	1.6686729511567357e+18
14553.0	1.668319515613593e+18
14554.0	1.6679761430446077e+18
14555.0	1.6676263313801213e+18
14556.0	1.6672743688765437e+18
14557.0	1.666928295175782e+18
14558.0	1.6665784986107904e+18
14559.0	1.6649065030746094e+18
14560.0	1.6658625376288765e+18
14561.0	1.6655260453961725e+18
14562.0	1.6651599111782397e+18
14563.0	1.6648309703704576e+18
14564.0	1.6644597459451904e+18
14565.0	1.6641347863707648e+18
14566.0	1.6637856659275779e+18
14567.0	1.6634351630417923e+18
14568.0	1.6630494481350653e+18
14569.0	1.6627375647227904e+18
14570.0	1.6620024944918523e+18
14571.0	1.66203740955607e+18
14572.0	1.6616473107628032e+18
14573.0	1.6613021363208192e+18
14574.0	1.6609320527462397e+18
14575.0	1.6606363123711997e+18
14576.0	1.6602857641869307e+18
14577.0	1.6599410125307896e+18
14578.0	1.6595866223640579e+18
14579.0	1.6592319536955392e+18
14580.0	1.658883160408064e+18
14581.0	1.6585284665737213e+18
14582.0	1.6581810892832763e+18
14583.0	1.6578355188989944e+18
14584.0	1.657470733569228e+18
14585.0	1.6571374206189568e+18
14586.0	1.656785978209075e+18
14587.0	1.65643692319703e+18
14588.0	1.6560901213650941e+18
14589.0	1.6557510521520125e+18
14590.0	1.6554122614407165e+18
14591.0	1.6550702578925565e+18
14592.0	1.654729489147494e+18
14593.0	1.654307449890406e+18
14594.0	1.6540556373000187e+18
14595.0	1.6537124543135741e+18
14596.0	1.6532365786480637e+18
14597.0	1.652879527614873e+18
14598.0	1.652683856622387e+18
14599.0	1.6523596872548347e+18
14600.0	1.6520160647053307e+18
14601.0	1.6516793761791997e+18
14602.0	1.6513274791067643e+18
14603.0	1.6510004525793277e+18
14604.0	1.650618606498611e+18
14605.0	1.6502877329555453e+18
14606.0	1.6499309168033792e+18
14607.0	1.6496335289057277e+18
14608.0	1.6493016285970432e+18
14609.0	1.648951998126489e+18
14610.0	1.6485637951586296e+18
14611.0	1.6482752790527997e+18
14612.0	1.6479455732039675e+18
14613.0	1.6476072975532032e+18
14614.0	1.6472653594361856e+18
14615.0	1.6469251393060861e+18
14616.0	1.6465886235852795e+18
14617.0	1.6462486014263293e+18
14618.0	1.6458929764564992e+18
14619.0	1.64546159396782e+18
14620.0	1.6448926081089533e+18
14621.0	1.6448883500515328e+18
14622.0	1.6445458700304381e+18
14623.0	1.6442077604741115e+18
14624.0	1.643823204873011e+18
14625.0	1.6435243808456704e+18
14626.0	1.6431824678944763e+18
14627.0	1.6428371105808384e+18
14628.0	1.6425044636860413e+18
14629.0	1.642163523813376e+18
14630.0	1.6418190204600312e+18
14631.0	1.6414806626009085e+18
14632.0	1.640286881474151e+18
14633.0	1.6406600537341944e+18
14634.0	1.6404509441916925e+18
14635.0	1.639833478889471e+18
14636.0	1.6391813636030461e+18
14637.0	1.6394332332359677e+18
14638.0	1.6390838561013757e+18
14639.0	1.638735512443289e+18
14640.0	1.6384040382758912e+18
14641.0	1.6346669805207532e+18
14642.0	1.6377183970787325e+18
14643.0	1.6373787977056253e+18
14644.0	1.637027274765107e+18
14645.0	1.6366751998541821e+18
14646.0	1.6363295875268605e+18
14647.0	1.6359746655223805e+18
