# Flux units: erg / (cm m2 s)
# Wavelength units: Angstrom
wave	flux
14000.0	1.9144308724596733e+18
14001.0	1.9139927287529472e+18
14002.0	1.9137207667261437e+18
14003.0	1.9133486984069115e+18
14004.0	1.9129752795217912e+18
14005.0	1.9126017633288187e+18
14006.0	1.9122208299286528e+18
14007.0	1.911846099065241e+18
14008.0	1.9113840209821693e+18
14009.0	1.9111068244639741e+18
14010.0	1.910721737025126e+18
14011.0	1.909746136881561e+18
14012.0	1.909887343997747e+18
14013.0	1.9093434031669245e+18
14014.0	1.9089651306332152e+18
14015.0	1.9085958322323453e+18
14016.0	1.908225659738521e+18
14017.0	1.9078532760076288e+18
14018.0	1.9074807865802747e+18
14019.0	1.9071086410858493e+18
14020.0	1.906735708739993e+18
14021.0	1.906362866991104e+18
14022.0	1.9059868073721853e+18
14023.0	1.90560061095936e+18
14024.0	1.9052287808765947e+18
14025.0	1.904875444319027e+18
14026.0	1.9045030186450941e+18
14027.0	1.9041333612118013e+18
14028.0	1.9037555416629243e+18
14029.0	1.9033861476319224e+18
14030.0	1.901675844678452e+18
14031.0	1.9026035576143864e+18
14032.0	1.9022735984295933e+18
14033.0	1.9018544029106173e+18
14034.0	1.9015313861378043e+18
14035.0	1.9011634651463675e+18
14036.0	1.9007930124730365e+18
14037.0	1.9004224239042555e+18
14038.0	1.9000518554681341e+18
14039.0	1.8996772017799165e+18
14040.0	1.8993038751694845e+18
14041.0	1.8989374439948283e+18
14042.0	1.8985587268648955e+18
14043.0	1.8981604575674368e+18
14044.0	1.8978180899536893e+18
14045.0	1.8974559352913915e+18
14046.0	1.8970854574522365e+18
14047.0	1.8967091562414075e+18
14048.0	1.89634737906647e+18
14049.0	1.8959805133619197e+18
14050.0	1.8956110052458493e+18
14051.0	1.8952328165982205e+18
14052.0	1.8948682225287163e+18
14053.0	1.8945024607649787e+18
14054.0	1.8941334979084283e+18
14055.0	1.8937643270143997e+18
14056.0	1.893395198063411e+18
14057.0	1.8930262385623037e+18
14058.0	1.8926573042270205e+18
14059.0	1.8922884822990843e+18
14060.0	1.8919197123805181e+18
14061.0	1.891544337272012e+18
14062.0	1.8911823923249147e+18
14063.0	1.8907982108557312e+18
14064.0	1.89020708578263e+18
14065.0	1.8900685797982205e+18
14066.0	1.8897088746094587e+18
14067.0	1.8893283287629821e+18
14068.0	1.8889726652055547e+18
14069.0	1.8886012243542013e+18
14070.0	1.8882358400778237e+18
14071.0	1.8878660786257917e+18
14072.0	1.8875011758555133e+18
14073.0	1.8871335115554816e+18
14074.0	1.886765949596467e+18
14075.0	1.8863804007841787e+18
14076.0	1.886016049984307e+18
14077.0	1.885360804069376e+18
14078.0	1.8852736531431421e+18
14079.0	1.8849191690239997e+18
14080.0	1.8845623377723387e+18
14081.0	1.8841954099920893e+18
14082.0	1.8838251385126912e+18
14083.0	1.8834601803775997e+18
14084.0	1.8830942139318272e+18
14085.0	1.8823556792057853e+18
14086.0	1.882336083417497e+18
14087.0	1.8819950714028032e+18
14088.0	1.8816144517365755e+18
14089.0	1.8812512468205563e+18
14090.0	1.8808915047219197e+18
14091.0	1.8805302275080187e+18
14092.0	1.88016432817111e+18
14093.0	1.879798349981286e+18
14094.0	1.8794323667582973e+18
14095.0	1.879066069801369e+18
14096.0	1.8786386702237696e+18
14097.0	1.8783110413942781e+18
14098.0	1.8779415265673213e+18
14099.0	1.877603817986457e+18
14100.0	1.87722684736471e+18
14101.0	1.8768737037451261e+18
14102.0	1.8765082859143163e+18
14103.0	1.876128614160793e+18
14104.0	1.8757755443609592e+18
14105.0	1.8754130709315581e+18
14106.0	1.8750484248526843e+18
14107.0	1.8746826530226173e+18
14108.0	1.8743075715153915e+18
14109.0	1.8739491632054264e+18
14110.0	1.873584619467571e+18
14111.0	1.87321461810135e+18
14112.0	1.8728529583669243e+18
14113.0	1.8724897886830587e+18
14114.0	1.8721188461150205e+18
14115.0	1.87176537030656e+18
14116.0	1.871358101710438e+18
14117.0	1.868724630768845e+18
14118.0	1.8706717139271675e+18
14119.0	1.8702696412348416e+18
14120.0	1.869915584934707e+18
14121.0	1.8695667648036861e+18
14122.0	1.8691782028034043e+18
14123.0	1.8688262319112184e+18
14124.0	1.868457644864307e+18
14125.0	1.867668884186726e+18
14126.0	1.867760793131417e+18
14127.0	1.8674047772524541e+18
14128.0	1.8670407099875328e+18
14129.0	1.8666673179459584e+18
14130.0	1.866295674090291e+18
14131.0	1.8659536252436477e+18
14132.0	1.8655847177519096e+18
14133.0	1.864688899981311e+18
14134.0	1.8648644450254843e+18
14135.0	1.8644833472086008e+18
14136.0	1.8640909113491453e+18
14137.0	1.8637727213813755e+18
14138.0	1.8633891875127293e+18
14139.0	1.8630533982453755e+18
14140.0	1.862684772610867e+18
14141.0	1.8623128485756923e+18
14142.0	1.8617893088395267e+18
14143.0	1.8616000568098813e+18
14144.0	1.8612447556403192e+18
14145.0	1.8608820708179965e+18
14146.0	1.8605170455740413e+18
14147.0	1.8601576390197243e+18
14148.0	1.859792739604889e+18
14149.0	1.8594322593087483e+18
14150.0	1.8590769799495677e+18
14151.0	1.858704785801216e+18
14152.0	1.8583548986392576e+18
14153.0	1.857993769064857e+18
14154.0	1.8576079333621755e+18
14155.0	1.8571606913712125e+18
14156.0	1.8568949654355963e+18
14157.0	1.8565507691053053e+18
14158.0	1.8561861347704832e+18
14159.0	1.855829778314035e+18
14160.0	1.85546264585175e+18
14161.0	1.8550497048788987e+18
14162.0	1.8546428674572288e+18
14163.0	1.854385612337971e+18
14164.0	1.8539482621935616e+18
14165.0	1.8535937277427712e+18
14166.0	1.8533063407435776e+18
14167.0	1.8529344687177725e+18
14168.0	1.85258335010816e+18
14169.0	1.852229475001958e+18
14170.0	1.851864397748633e+18
14171.0	1.8515076218617856e+18
14172.0	1.8511510758227965e+18
14173.0	1.8507459513548797e+18
14174.0	1.8504269980237821e+18
14175.0	1.8500734114856955e+18
14176.0	1.8497136643538936e+18
14177.0	1.8493551369256955e+18
14178.0	1.8489954216706045e+18
14179.0	1.8486286046199803e+18
14180.0	1.8482789355618304e+18
14181.0	1.847920258816409e+18
14182.0	1.8475608421957632e+18
14183.0	1.8472030462541821e+18
14184.0	1.846839346410291e+18
14185.0	1.8464850015420413e+18
14186.0	1.8456962576416768e+18
14187.0	1.8457425795350525e+18
14188.0	1.8454073606930424e+18
14189.0	1.8450492057190397e+18
14190.0	1.8446920842215424e+18
14191.0	1.8443325551935483e+18
14192.0	1.8439711840272381e+18
14193.0	1.8435511597137915e+18
14194.0	1.843260069983027e+18
14195.0	1.842907198154342e+18
14196.0	1.8425495397859325e+18
14197.0	1.8421921582415872e+18
14198.0	1.8418299012382715e+18
14199.0	1.841475209081651e+18
14200.0	1.8408211610599424e+18
14201.0	1.840677299788185e+18
14202.0	1.8403335212105725e+18
14203.0	1.8399665716199421e+18
14204.0	1.839616375757209e+18
14205.0	1.8392594505531387e+18
14206.0	1.8387797312274424e+18
14207.0	1.8385480496185344e+18
14208.0	1.8381918038917117e+18
14209.0	1.8377017414123515e+18
14210.0	1.8373850983038968e+18
14211.0	1.8371170839560187e+18
14212.0	1.8367648261734397e+18
14213.0	1.8364068456824827e+18
14214.0	1.8360522776772603e+18
14215.0	1.8356849338220544e+18
14216.0	1.8353411502112768e+18
14217.0	1.834985082322943e+18
14218.0	1.834580444394291e+18
14219.0	1.834200583058227e+18
14220.0	1.8338421915254781e+18
14221.0	1.8334848166920187e+18
14222.0	1.8331048731475968e+18
14223.0	1.8327762594955261e+18
14224.0	1.8324204784975872e+18
14225.0	1.8312732021358597e+18
14226.0	1.831704908424806e+18
14227.0	1.8313535129911293e+18
14228.0	1.829030375247053e+18
14229.0	1.8302611048366062e+18
14230.0	1.830287993680691e+18
14231.0	1.8299128417091581e+18
14232.0	1.8295780926291965e+18
14233.0	1.8292188219703293e+18
14234.0	1.8288682704306176e+18
14235.0	1.8285108687536125e+18
14236.0	1.828158468364697e+18
14237.0	1.82780246926295e+18
14238.0	1.8274004318027776e+18
14239.0	1.8270131985580027e+18
14240.0	1.8250836979220477e+18
14241.0	1.8263037622353915e+18
14242.0	1.8259544941527037e+18
14243.0	1.8254483490340861e+18
14244.0	1.825249206835609e+18
14245.0	1.8248799185010685e+18
14246.0	1.8245217282949115e+18
14247.0	1.8241818000883712e+18
14248.0	1.8238161809309693e+18
14249.0	1.8234762611130365e+18
14250.0	1.8231220269744125e+18
14251.0	1.822770599664025e+18
14252.0	1.822416602084147e+18
14253.0	1.8220619518705661e+18
14254.0	1.821706338644787e+18
14255.0	1.821320695880089e+18
14256.0	1.8201694785503235e+18
14257.0	1.8206039061037053e+18
14258.0	1.8202940913221627e+18
14259.0	1.8199218250317821e+18
14260.0	1.8195594153558013e+18
14261.0	1.818881256796979e+18
14262.0	1.81849983853527e+18
14263.0	1.817001423431271e+18
14264.0	1.8175529844735992e+18
14265.0	1.817435340957286e+18
14266.0	1.8170879787663352e+18
14267.0	1.8167365950767104e+18
14268.0	1.8163837383475197e+18
14269.0	1.8160216960925693e+18
14270.0	1.815677860472422e+18
14271.0	1.8153237790064637e+18
14272.0	1.814971257821593e+18
14273.0	1.814613265586585e+18
14274.0	1.8124455284834312e+18
14275.0	1.813737981450649e+18
14276.0	1.8135441609850877e+18
14277.0	1.8131944734719997e+18
14278.0	1.8128572312977403e+18
14279.0	1.812504186663731e+18
14280.0	1.812146043433779e+18
14281.0	1.8118012515123197e+18
14282.0	1.811449587643187e+18
14283.0	1.8110976419168253e+18
14284.0	1.8107457062567933e+18
14285.0	1.8100796121939963e+18
14286.0	1.8096643425435643e+18
14287.0	1.8092887375871997e+18
14288.0	1.8089362851889147e+18
14289.0	1.8075724485230572e+18
14290.0	1.8082318920974333e+18
14291.0	1.807881602282291e+18
14292.0	1.807531294012211e+18
14293.0	1.807177574934118e+18
14294.0	1.806690096146022e+18
14295.0	1.806463472867737e+18
14296.0	1.8053068130091013e+18
14297.0	1.805772197881446e+18
14298.0	1.8050866237931515e+18
14299.0	1.8050569398648827e+18
14300.0	1.8047149077954555e+18
14301.0	1.8043671932829693e+18
14302.0	1.8040182674554877e+18
14303.0	1.8036344517296125e+18
14304.0	1.8033007629697021e+18
14305.0	1.8029651448299515e+18
14306.0	1.8025881070993405e+18
14307.0	1.802247569879859e+18
14308.0	1.8019078027345917e+18
14309.0	1.8015462285639677e+18
14310.0	1.801082768038297e+18
14311.0	1.800613875050086e+18
14312.0	1.80042725368791e+18
14313.0	1.8000477799055355e+18
14314.0	1.7997358797160448e+18
14315.0	1.799391616276889e+18
14316.0	1.798991686035046e+18
14317.0	1.7986624700809213e+18
14318.0	1.7983462950567928e+18
14319.0	1.79799803864023e+18
14320.0	1.7976481850327037e+18
14321.0	1.7972965882724347e+18
14322.0	1.796909745936793e+18
14323.0	1.7965816037244925e+18
14324.0	1.7962516093075453e+18
14325.0	1.7958926892924928e+18
14326.0	1.7955532157485056e+18
14327.0	1.7951974364282875e+18
14328.0	1.7948482757197821e+18
14329.0	1.7945058963619835e+18
14330.0	1.794156888326144e+18
14331.0	1.793807638698393e+18
14332.0	1.7934590031167488e+18
14333.0	1.7931102165401597e+18
14334.0	1.7927614349967352e+18
14335.0	1.7923993809977341e+18
14336.0	1.7919786084204536e+18
14337.0	1.79171245466583e+18
14338.0	1.7913637385535488e+18
14339.0	1.7910069844770813e+18
14340.0	1.7906693295833085e+18
14341.0	1.7903159158505472e+18
14342.0	1.7899712329809915e+18
14343.0	1.789621152881049e+18
14344.0	1.7892713881927677e+18
14345.0	1.7889285977931776e+18
14346.0	1.788515643398553e+18
14347.0	1.7881248600948733e+18
14348.0	1.7878134045016061e+18
14349.0	1.7874678408282107e+18
14350.0	1.7870552857313275e+18
14351.0	1.786697706215833e+18
14352.0	1.786415463111065e+18
14353.0	1.7860750986969088e+18
14354.0	1.7857200508633085e+18
14355.0	1.7853568526581755e+18
14356.0	1.7850154228908027e+18
14357.0	1.7846866364334075e+18
14358.0	1.7843390762713088e+18
14359.0	1.7839767051829248e+18
14360.0	1.7836381728407547e+18
14361.0	1.783294588878848e+18
14362.0	1.782949828834099e+18
14363.0	1.782602099222118e+18
14364.0	1.7820476575318013e+18
14365.0	1.7818663428030461e+18
14366.0	1.781524117795635e+18
14367.0	1.7812148314963963e+18
14368.0	1.7808674726608893e+18
14369.0	1.7805212076998656e+18
14370.0	1.780174612227686e+18
14371.0	1.7798281862053885e+18
14372.0	1.7794758646693885e+18
14373.0	1.7791331564781563e+18
14374.0	1.7787878880837627e+18
14375.0	1.778439987344179e+18
14376.0	1.7780953699057667e+18
14377.0	1.7777483281596416e+18
14378.0	1.7773998687387643e+18
14379.0	1.7770563132981248e+18
14380.0	1.7767089578180603e+18
14381.0	1.7763520745570304e+18
14382.0	1.7760035933257725e+18
14383.0	1.775600002295398e+18
14384.0	1.775240337371955e+18
14385.0	1.77491296691159e+18
14386.0	1.7745488358932475e+18
14387.0	1.7742203967242237e+18
14388.0	1.773872398676787e+18
14389.0	1.7735282140905472e+18
14390.0	1.77318043582464e+18
14391.0	1.7728366203371515e+18
14392.0	1.7724892363358203e+18
14393.0	1.7721452396543995e+18
14394.0	1.771761303132569e+18
14395.0	1.7714393953337341e+18
14396.0	1.7711079295549437e+18
14397.0	1.7707627182030848e+18
14398.0	1.7704164297539581e+18
14399.0	1.7700712737669117e+18
14400.0	1.769705684808499e+18
14401.0	1.7693736519598077e+18
14402.0	1.7690324201635835e+18
14403.0	1.7674045738713062e+18
14404.0	1.7634088567439337e+18
14405.0	1.7663099544797143e+18
14406.0	1.7676507660943355e+18
14407.0	1.7654894747975688e+18
14408.0	1.7669387041374203e+18
14409.0	1.7665992121384957e+18
14410.0	1.7662588158476285e+18
14411.0	1.7659290881884157e+18
14412.0	1.7655819424235515e+18
14413.0	1.7652411485126653e+18
14414.0	1.7648938064543741e+18
14415.0	1.7645503483215872e+18
14416.0	1.764202336852377e+18
14417.0	1.7638452958855163e+18
14418.0	1.7634846629167104e+18
14419.0	1.7631710900387837e+18
14420.0	1.762822954418176e+18
14421.0	1.762482972524544e+18
14422.0	1.762133194414489e+18
14423.0	1.7616255141806077e+18
14424.0	1.753589895449801e+18
14425.0	1.7606261507883003e+18
14426.0	1.7602987467735035e+18
14427.0	1.759955560431616e+18
14428.0	1.759590575452979e+18
14429.0	1.7592640757301243e+18
14430.0	1.75892453172183e+18
14431.0	1.7582218499063805e+18
14432.0	1.758230077453107e+18
14433.0	1.7565194943201272e+18
14434.0	1.75753084838871e+18
14435.0	1.757151829268889e+18
14436.0	1.7568621588905981e+18
14437.0	1.7565194037231613e+18
14438.0	1.7561076270891005e+18
14439.0	1.755819312309862e+18
14440.0	1.7553211967668221e+18
14441.0	1.7546851741859837e+18
14442.0	1.7543361074298877e+18
14443.0	1.7539506945130493e+18
14444.0	1.7536580864442365e+18
14445.0	1.7533187018194936e+18
14446.0	1.7509439103827976e+18
14447.0	1.7526175551193088e+18
14448.0	1.7522901091614723e+18
14449.0	1.7519472701079547e+18
14450.0	1.75159838286807e+18
14451.0	1.7512592381575165e+18
14452.0	1.7509155183001595e+18
14453.0	1.7505511742111744e+18
14454.0	1.750230563291136e+18
14455.0	1.7498782702764032e+18
14456.0	1.7495356375826427e+18
14457.0	1.7491924948615163e+18
14458.0	1.7488529491755005e+18
14459.0	1.7485059023962107e+18
14460.0	1.7481559665803267e+18
14461.0	1.747753893888e+18
14462.0	1.7472473243058176e+18
14463.0	1.7471081438773248e+18
14464.0	1.7467910746275837e+18
14465.0	1.7464301044367357e+18
14466.0	1.7461115906686976e+18
14467.0	1.7457387187208184e+18
14468.0	1.745425781699379e+18
14469.0	1.7450419978502141e+18
14470.0	1.744715085407846e+18
14471.0	1.7443941708201981e+18
14472.0	1.744056997432524e+18
14473.0	1.7436616356265981e+18
14474.0	1.7433161608724477e+18
14475.0	1.742970684440576e+18
14476.0	1.7425441824440317e+18
14477.0	1.7422882627911675e+18
14478.0	1.7419447006396413e+18
14479.0	1.74160289506263e+18
14480.0	1.7412442518716416e+18
14481.0	1.740921272008704e+18
14482.0	1.7405750338912256e+18
14483.0	1.740225502406246e+18
14484.0	1.7398832153231357e+18
14485.0	1.7395115966332925e+18
14486.0	1.7388916483031037e+18
14487.0	1.7388653936377853e+18
14488.0	1.7384986940276733e+18
14489.0	1.7381494729211896e+18
14490.0	1.7378317728481277e+18
14491.0	1.737498324002406e+18
14492.0	1.7371577381289984e+18
14493.0	1.736807060760166e+18
14494.0	1.7364508032892925e+18
14495.0	1.7361314791817216e+18
14496.0	1.7356465656299517e+18
14497.0	1.735447161706905e+18
14498.0	1.7351066462978048e+18
14499.0	1.734765182976e+18
14500.0	1.734423009977958e+18
14501.0	1.7340368857071608e+18
14502.0	1.7334752969228288e+18
14503.0	1.7333725196976125e+18
14504.0	1.7330499072557053e+18
14505.0	1.73267590620119e+18
14506.0	1.732293071942451e+18
14507.0	1.7317693711450112e+18
14508.0	1.731689972970291e+18
14509.0	1.731348814993817e+18
14510.0	1.7310039358308347e+18
14511.0	1.7306655007965181e+18
14512.0	1.730307399509606e+18
14513.0	1.729982532209868e+18
14514.0	1.729604481135411e+18
14515.0	1.7292977533616125e+18
14516.0	1.7263792056434703e+18
14517.0	1.7286122547707904e+18
14518.0	1.7282752508329981e+18
14519.0	1.7279342170079232e+18
14520.0	1.727591953412915e+18
14521.0	1.7272506897399803e+18
14522.0	1.7269070755790848e+18
14523.0	1.7264508108013563e+18
14524.0	1.726134462971904e+18
14525.0	1.725879452644147e+18
14526.0	1.72554156286935e+18
14527.0	1.7251777153859581e+18
14528.0	1.724718459230617e+18
14529.0	1.7244636015755267e+18
14530.0	1.724098460568781e+18
14531.0	1.723773475828531e+18
14532.0	1.7233122030518272e+18
14533.0	1.7230918057983997e+18
14534.0	1.7227521527382016e+18
14535.0	1.7223990326067197e+18
14536.0	1.7220648002650107e+18
14537.0	1.7217142151708667e+18
14538.0	1.7213859001532413e+18
14539.0	1.721044408310169e+18
14540.0	1.7207027520503805e+18
14541.0	1.7203370322296824e+18
14542.0	1.7200169363701757e+18
14543.0	1.7196104495923197e+18
14544.0	1.7193344643891195e+18
14545.0	1.7189830505005056e+18
14546.0	1.7093676001918927e+18
14547.0	1.709701421491808e+18
14548.0	1.7177184728776704e+18
14549.0	1.717265474623897e+18
14550.0	1.7170443827937277e+18
14551.0	1.7167129270812667e+18
14552.0	1.7163702373449725e+18
14553.0	1.7160218903314427e+18
14554.0	1.7156891243184125e+18
14555.0	1.7153473254522875e+18
14556.0	1.7150039025516541e+18
14557.0	1.714664356865638e+18
14558.0	1.7143207410270203e+18
14559.0	1.7120765652500444e+18
14560.0	1.7136276423573504e+18
14561.0	1.7132904186380285e+18
14562.0	1.712925135024947e+18
14563.0	1.7126120369422333e+18
14564.0	1.7122418560598013e+18
14565.0	1.711932326490931e+18
14566.0	1.7115907641835515e+18
14567.0	1.7112465997299712e+18
14568.0	1.7108765916528635e+18
14569.0	1.7105632821772285e+18
14570.0	1.7096786866864123e+18
14571.0	1.7094843679375352e+18
14572.0	1.7089017153585147e+18
14573.0	1.7085553010802685e+18
14574.0	1.708196040487731e+18
14575.0	1.707915260356198e+18
14576.0	1.7075701026914304e+18
14577.0	1.7072350616879104e+18
14578.0	1.7068963733176315e+18
14579.0	1.7065581345767421e+18
14580.0	1.7062160085549053e+18
14581.0	1.7058665559228413e+18
14582.0	1.7055251412549627e+18
14583.0	1.7051881859710976e+18
14584.0	1.7048226205007867e+18
14585.0	1.7045032192180221e+18
14586.0	1.7041573485215736e+18
14587.0	1.7038165546106877e+18
14588.0	1.7034754637430781e+18
14589.0	1.7031394798600187e+18
14590.0	1.7028035429531643e+18
14591.0	1.702463415097753e+18
14592.0	1.70212379894743e+18
14593.0	1.7016687471624187e+18
14594.0	1.7014047174033403e+18
14595.0	1.701055427510272e+18
14596.0	1.7005318626082808e+18
14597.0	1.7001595778629632e+18
14598.0	1.7000292121837565e+18
14599.0	1.699713869309542e+18
14600.0	1.6993715906150397e+18
14601.0	1.6990368901890043e+18
14602.0	1.698687996238233e+18
14603.0	1.6983618538700797e+18
14604.0	1.697967792298393e+18
14605.0	1.6976472166105085e+18
14606.0	1.697274254065664e+18
14607.0	1.6970038053437435e+18
14608.0	1.696673700197171e+18
14609.0	1.696327502345011e+18
14610.0	1.6959383699193853e+18
14611.0	1.6956479445663741e+18
14612.0	1.6953256592801787e+18
14613.0	1.694990663575142e+18
14614.0	1.694649713636147e+18
14615.0	1.6943139948331005e+18
14616.0	1.693978205565747e+18
14617.0	1.6936396765790205e+18
14618.0	1.6932893548871677e+18
14619.0	1.6928221664641016e+18
14620.0	1.6921294318600187e+18
14621.0	1.69228563948503e+18
14622.0	1.691944310380953e+18
14623.0	1.691608766060953e+18
14624.0	1.6912069718704123e+18
14625.0	1.6909271195189243e+18
14626.0	1.6905890082848765e+18
14627.0	1.6902451609206781e+18
14628.0	1.6899125660352512e+18
14629.0	1.6895727301033981e+18
14630.0	1.6892282502381565e+18
14631.0	1.6888925012361216e+18
14632.0	1.6879572486193157e+18
14633.0	1.688128535606067e+18
14634.0	1.6878647239507965e+18
14635.0	1.6873771411439603e+18
14636.0	1.6868087911415803e+18
14637.0	1.686852029382656e+18
14638.0	1.686500122243891e+18
14639.0	1.686149830751027e+18
14640.0	1.685823305862348e+18
14641.0	1.6831726382743534e+18
14642.0	1.685139152804249e+18
14643.0	1.6848033283047421e+18
14644.0	1.6844483744235515e+18
14645.0	1.6840950127001597e+18
14646.0	1.6837578376347643e+18
14647.0	1.6833926932725757e+18
14648.0	1.6830838331146235e+18
