# Flux units: erg / (cm m2 s)
# Wavelength units: Angstrom
wave	flux
14000.0	1.9955696279748603e+18
14001.0	1.9951114875043837e+18
14002.0	1.9947783591034877e+18
14003.0	1.9943737849282555e+18
14004.0	1.9939682158641147e+18
14005.0	1.9935625864019963e+18
14006.0	1.993150888620851e+18
14007.0	1.992743975701708e+18
14008.0	1.9922629007769597e+18
14009.0	1.99193968771072e+18
14010.0	1.991524159691161e+18
14011.0	1.99062316950487e+18
14012.0	1.9907251397459963e+18
14013.0	1.9903208306507773e+18
14014.0	1.9899112065335296e+18
14015.0	1.9895094156984317e+18
14016.0	1.98910684472279e+18
14017.0	1.9887024014098427e+18
14018.0	1.9882978389786621e+18
14019.0	1.9878937161105405e+18
14020.0	1.9874888818884603e+18
14021.0	1.9870841583960061e+18
14022.0	1.9866783980716027e+18
14023.0	1.986262698924441e+18
14024.0	1.985858473715302e+18
14025.0	1.985469218816e+18
14026.0	1.985064559076966e+18
14027.0	1.9846627179102203e+18
14028.0	1.984259252708966e+18
14029.0	1.9838553479446528e+18
14030.0	1.982721171233178e+18
14031.0	1.9830200388812797e+18
14032.0	1.982644158778572e+18
14033.0	1.982203258575257e+18
14034.0	1.981838882609561e+18
14035.0	1.981437823261081e+18
14036.0	1.981035383147724e+18
14037.0	1.9806329145131005e+18
14038.0	1.9802304827883515e+18
14039.0	1.9798245295259645e+18
14040.0	1.9794192356081661e+18
14041.0	1.97902075995095e+18
14042.0	1.9786117918228475e+18
14043.0	1.9781868081643517e+18
14044.0	1.9778082655174653e+18
14045.0	1.9774138197475325e+18
14046.0	1.9770103260250112e+18
14047.0	1.9766050472067064e+18
14048.0	1.976209323012915e+18
14049.0	1.975809785357926e+18
14050.0	1.9754085364269053e+18
14051.0	1.9749999340421115e+18
14052.0	1.974602777074073e+18
14053.0	1.9742049204961275e+18
14054.0	1.9738042604453883e+18
14055.0	1.9734034124898301e+18
14056.0	1.973002663519846e+18
14057.0	1.9726020538007547e+18
14058.0	1.972201521256857e+18
14059.0	1.9718010826653693e+18
14060.0	1.9714007296376832e+18
14061.0	1.9709949525360637e+18
14062.0	1.970600283629158e+18
14063.0	1.970186896382361e+18
14064.0	1.9696776877441021e+18
14065.0	1.9693933592313853e+18
14066.0	1.96900060963799e+18
14067.0	1.9685925189582843e+18
14068.0	1.968201381655347e+18
14069.0	1.9677997904691192e+18
14070.0	1.967401972478771e+18
14071.0	1.9670008376328187e+18
14072.0	1.9666039558111232e+18
14073.0	1.9662048392642555e+18
14074.0	1.965805855257395e+18
14075.0	1.9653917348462587e+18
14076.0	1.9649980876718075e+18
14077.0	1.9644445385293821e+18
14078.0	1.9641980896149501e+18
14079.0	1.963803519693619e+18
14080.0	1.963413788321382e+18
14081.0	1.9630154703699965e+18
14082.0	1.962613379222732e+18
14083.0	1.9622177707917312e+18
14084.0	1.9618205567811581e+18
14085.0	1.9611494933069821e+18
14086.0	1.9610108497494016e+18
14087.0	1.9606272403832827e+18
14088.0	1.9602185239134203e+18
14089.0	1.959824331479449e+18
14090.0	1.9594318570323965e+18
14091.0	1.9590371747037184e+18
14092.0	1.9586399489490941e+18
14093.0	1.9582427332608e+18
14094.0	1.9578455544823803e+18
14095.0	1.9574482700075003e+18
14096.0	1.9570160318808056e+18
14097.0	1.9566367577473021e+18
14098.0	1.956242219702681e+18
14099.0	1.9558611822837752e+18
14100.0	1.9554549723299837e+18
14101.0	1.955068504126259e+18
14102.0	1.9546719511379963e+18
14103.0	1.9542639527329787e+18
14104.0	1.9538797377093627e+18
14105.0	1.9534832434413565e+18
14106.0	1.9530875595128827e+18
14107.0	1.9526905065635835e+18
14108.0	1.9522859994972155e+18
14109.0	1.951895899026227e+18
14110.0	1.9514993577820152e+18
14111.0	1.9510979461119992e+18
14112.0	1.9507067685437435e+18
14113.0	1.950318043804467e+18
14114.0	1.9499115100504061e+18
14115.0	1.9495259780153341e+18
14116.0	1.9490993233461243e+18
14117.0	1.9474832966025216e+18
14118.0	1.9483407650127864e+18
14119.0	1.9479228093300733e+18
14120.0	1.9475350442475515e+18
14121.0	1.9471447692935165e+18
14122.0	1.946741198395801e+18
14123.0	1.9463494403358717e+18
14124.0	1.9458767775072253e+18
14125.0	1.9449107873529846e+18
14126.0	1.94478328554455e+18
14127.0	1.9443940222566397e+18
14128.0	1.9439991436345336e+18
14129.0	1.9435962320814077e+18
14130.0	1.9431948321554427e+18
14131.0	1.9428191131140093e+18
14132.0	1.9424203774099456e+18
14133.0	1.9415760589815795e+18
14134.0	1.9416377790038008e+18
14135.0	1.941230102721331e+18
14136.0	1.940818748873113e+18
14137.0	1.9404558157479933e+18
14138.0	1.9400510217912315e+18
14139.0	1.939672542897766e+18
14140.0	1.9392724683718648e+18
14141.0	1.9388779219386363e+18
14142.0	1.938394251578572e+18
14143.0	1.9379576496979958e+18
14144.0	1.937458878165811e+18
14145.0	1.937066781206118e+18
14146.0	1.936673254827622e+18
14147.0	1.9362808944656381e+18
14148.0	1.9358867540410365e+18
14149.0	1.9354950496681981e+18
14150.0	1.9351072325763064e+18
14151.0	1.934707708343091e+18
14152.0	1.9343240587116536e+18
14153.0	1.933932439902617e+18
14154.0	1.9335195727495165e+18
14155.0	1.933086683666841e+18
14156.0	1.932748874422681e+18
14157.0	1.9323674947485693e+18
14158.0	1.9319729567039483e+18
14159.0	1.9315855372320763e+18
14160.0	1.931188903713177e+18
14161.0	1.9307538906349565e+18
14162.0	1.930323602020761e+18
14163.0	1.9300206273101821e+18
14164.0	1.9295842938650621e+18
14165.0	1.9291606003744765e+18
14166.0	1.9288491481366525e+18
14167.0	1.9284490199236608e+18
14168.0	1.9280672728285181e+18
14169.0	1.9276812559319037e+18
14170.0	1.927287261469081e+18
14171.0	1.9268991910412283e+18
14172.0	1.926511781635686e+18
14173.0	1.9260755958300664e+18
14174.0	1.9257279635259387e+18
14175.0	1.925343198209638e+18
14176.0	1.924953869490585e+18
14177.0	1.9245645961363453e+18
14178.0	1.9241742289076221e+18
14179.0	1.923777098783129e+18
14180.0	1.9233444932354043e+18
14181.0	1.9229243028275192e+18
14182.0	1.9225345228013565e+18
14183.0	1.9221461721939965e+18
14184.0	1.921752862241587e+18
14185.0	1.921367850300211e+18
14186.0	1.9207361226866688e+18
14187.0	1.9205693085057021e+18
14188.0	1.9202014982438912e+18
14189.0	1.9198112903987197e+18
14190.0	1.9194236779888637e+18
14191.0	1.919034570729062e+18
14192.0	1.9186419486425083e+18
14193.0	1.918222164243251e+18
14194.0	1.9178703611232253e+18
14195.0	1.9174853005279227e+18
14196.0	1.9170972837871608e+18
14197.0	1.916709562325401e+18
14198.0	1.9162648889262077e+18
14199.0	1.9158478492794875e+18
14200.0	1.9153122836348928e+18
14201.0	1.915042930465177e+18
14202.0	1.9146626882863104e+18
14203.0	1.9142650531676155e+18
14204.0	1.9138852975280125e+18
14205.0	1.9134981230034941e+18
14206.0	1.9130071730094077e+18
14207.0	1.912725847618355e+18
14208.0	1.912339196542976e+18
14209.0	1.911839841163673e+18
14210.0	1.911486358644326e+18
14211.0	1.9111744299335677e+18
14212.0	1.910791285296332e+18
14213.0	1.9104038557581307e+18
14214.0	1.910018323723059e+18
14215.0	1.909622737102438e+18
14216.0	1.9092465432657915e+18
14217.0	1.9088603032322045e+18
14218.0	1.9083962555039744e+18
14219.0	1.90800409479086e+18
14220.0	1.9076179923304443e+18
14221.0	1.907229140084326e+18
14222.0	1.9068254970445821e+18
14223.0	1.90645926887424e+18
14224.0	1.906073555645235e+18
14225.0	1.9052689690198016e+18
14226.0	1.9052998323863544e+18
14227.0	1.9049166927822843e+18
14228.0	1.9035274721886213e+18
14229.0	1.9039458758230006e+18
14230.0	1.9037606939459581e+18
14231.0	1.9033619901186043e+18
14232.0	1.902990280831795e+18
14233.0	1.9026011047854077e+18
14234.0	1.9022202502381563e+18
14235.0	1.9018331881209853e+18
14236.0	1.9014502884311035e+18
14237.0	1.9010644896382973e+18
14238.0	1.9006804625195005e+18
14239.0	1.90029065397207e+18
14240.0	1.8986225171955712e+18
14241.0	1.899438961957273e+18
14242.0	1.8990571594973181e+18
14243.0	1.8985436072378363e+18
14244.0	1.8982902729539581e+18
14245.0	1.8978920640544765e+18
14246.0	1.897503849342566e+18
14247.0	1.8971334604226555e+18
14248.0	1.8967404356829181e+18
14249.0	1.8963676744646653e+18
14250.0	1.8959835215167483e+18
14251.0	1.8956017643552763e+18
14252.0	1.8952178865537021e+18
14253.0	1.8948334685257725e+18
14254.0	1.8944483542433787e+18
14255.0	1.894039090836275e+18
14256.0	1.8932391749877763e+18
14257.0	1.893276871714406e+18
14258.0	1.892916441749913e+18
14259.0	1.892516751422259e+18
14260.0	1.892134385247846e+18
14261.0	1.8917498934001661e+18
14262.0	1.8914037727231997e+18
14263.0	1.8903726517387267e+18
14264.0	1.8905071781675003e+18
14265.0	1.890251287035904e+18
14266.0	1.8898040953765883e+18
14267.0	1.8894091530010621e+18
14268.0	1.8890265049694208e+18
14269.0	1.8886388774600704e+18
14270.0	1.888261210583859e+18
14271.0	1.887877441834188e+18
14272.0	1.887495753459302e+18
14273.0	1.887110587167539e+18
14274.0	1.8857431769546752e+18
14275.0	1.8862559557844987e+18
14276.0	1.8859509829074941e+18
14277.0	1.8855711853248507e+18
14278.0	1.8852031234048e+18
14279.0	1.8848204619513853e+18
14280.0	1.884433629682073e+18
14281.0	1.8840580113039355e+18
14282.0	1.8836766635065341e+18
14283.0	1.8832950959276027e+18
14284.0	1.8829135803580413e+18
14285.0	1.8825318886277117e+18
14286.0	1.8821493395816443e+18
14287.0	1.881769392681779e+18
14288.0	1.8813876875296765e+18
14289.0	1.8801799125270513e+18
14290.0	1.880624012145459e+18
14291.0	1.8802442950934528e+18
14292.0	1.8798643398049787e+18
14293.0	1.879370712167219e+18
14294.0	1.8782468786094077e+18
14295.0	1.8779709353492477e+18
14296.0	1.876934209096909e+18
14297.0	1.8772191617220603e+18
14298.0	1.8766213358288893e+18
14299.0	1.8764468192280573e+18
14300.0	1.8760727930077184e+18
14301.0	1.8756947956203515e+18
14302.0	1.875316400612966e+18
14303.0	1.874907796550451e+18
14304.0	1.874542640444211e+18
14305.0	1.8741749945991165e+18
14306.0	1.8737726316609533e+18
14307.0	1.873403772823142e+18
14308.0	1.8730322698960893e+18
14309.0	1.8726455835885565e+18
14310.0	1.8721640825225213e+18
14311.0	1.8717627799044093e+18
14312.0	1.8714598135824381e+18
14313.0	1.8710570563796995e+18
14314.0	1.8707501725777917e+18
14315.0	1.8703778911879165e+18
14316.0	1.869955912328806e+18
14317.0	1.8696009215377403e+18
14318.0	1.8692429091700733e+18
14319.0	1.8688648832614397e+18
14320.0	1.8684857550897144e+18
14321.0	1.8681074506792955e+18
14322.0	1.8676946640568317e+18
14323.0	1.8673338079510525e+18
14324.0	1.866971676776857e+18
14325.0	1.866570751646105e+18
14326.0	1.8661324636553213e+18
14327.0	1.8657481261580288e+18
14328.0	1.8653697210843133e+18
14329.0	1.8649967501508603e+18
14330.0	1.8646183182335992e+18
14331.0	1.8642396849897464e+18
14332.0	1.8638615869390843e+18
14333.0	1.863483391580569e+18
14334.0	1.8631052180324352e+18
14335.0	1.8627159631331325e+18
14336.0	1.8623017487695872e+18
14337.0	1.8619706319568893e+18
14338.0	1.8615914987519992e+18
14339.0	1.8612055640637437e+18
14340.0	1.86083726894039e+18
14341.0	1.8604568103354365e+18
14342.0	1.8600823982391293e+18
14343.0	1.859701018565017e+18
14344.0	1.8593221269520384e+18
14345.0	1.8589497952305147e+18
14346.0	1.8585688819630077e+18
14347.0	1.8581721679134717e+18
14348.0	1.8578166972940283e+18
14349.0	1.8574409564422144e+18
14350.0	1.8570293962342392e+18
14351.0	1.8566453020065787e+18
14352.0	1.8563027632652288e+18
14353.0	1.8559321159761917e+18
14354.0	1.8555516674375675e+18
14355.0	1.855166932320256e+18
14356.0	1.8547936375865344e+18
14357.0	1.8544271342698493e+18
14358.0	1.8540505327468541e+18
14359.0	1.8536610966536187e+18
14360.0	1.8532944356311035e+18
14361.0	1.8529202584158205e+18
14362.0	1.8525011685933053e+18
14363.0	1.8520882930515965e+18
14364.0	1.8516003294019581e+18
14365.0	1.8513130229334013e+18
14366.0	1.8509401274974205e+18
14367.0	1.8505837307756541e+18
14368.0	1.8502071946838013e+18
14369.0	1.8498316316704768e+18
14370.0	1.849455758278656e+18
14371.0	1.849080010715955e+18
14372.0	1.8486996427079675e+18
14373.0	1.8483281481695224e+18
14374.0	1.8479523553083387e+18
14375.0	1.8475757672071168e+18
14376.0	1.847201482617651e+18
14377.0	1.8468254364205056e+18
14378.0	1.8464482309177341e+18
14379.0	1.8460751291219965e+18
14380.0	1.845698804423065e+18
14381.0	1.845314515579699e+18
14382.0	1.8449480240070656e+18
14383.0	1.8445684797603837e+18
14384.0	1.8441827799531515e+18
14385.0	1.8438242223259645e+18
14386.0	1.84343641194496e+18
14387.0	1.8430741901737984e+18
14388.0	1.8426977295794176e+18
14389.0	1.8423245489307643e+18
14390.0	1.8419484003926013e+18
14391.0	1.8415754462363643e+18
14392.0	1.841199410105548e+18
14393.0	1.8408266941857787e+18
14394.0	1.840419873541324e+18
14395.0	1.8400660252786683e+18
14396.0	1.8397034411196413e+18
14397.0	1.839329450131456e+18
14398.0	1.8389544206336e+18
14399.0	1.8385807668674555e+18
14400.0	1.838190235222016e+18
14401.0	1.8378268155576315e+18
14402.0	1.837456282353664e+18
14403.0	1.8356284986228713e+18
14404.0	1.8318948449648625e+18
14405.0	1.8348864675250143e+18
14406.0	1.8358828026298363e+18
14407.0	1.833545407607604e+18
14408.0	1.8351156442955776e+18
14409.0	1.834747162945126e+18
14410.0	1.8343813760155643e+18
14411.0	1.8340157065265147e+18
14412.0	1.8336399874850813e+18
14413.0	1.833269551588966e+18
14414.0	1.8328937184624637e+18
14415.0	1.8325211921252347e+18
14416.0	1.832145699576217e+18
14417.0	1.8317632948142077e+18
14418.0	1.8313797022253053e+18
14419.0	1.831026778387251e+18
14420.0	1.8306503547027453e+18
14421.0	1.8302807727669245e+18
14422.0	1.8299031562223608e+18
14423.0	1.8295160253186043e+18
14424.0	1.821163842332258e+18
14425.0	1.828774126760755e+18
14426.0	1.828282277507891e+18
14427.0	1.8274107246247933e+18
14428.0	1.8270190974271485e+18
14429.0	1.826660922320486e+18
14430.0	1.826292331918131e+18
14431.0	1.8257288858959864e+18
14432.0	1.8255395113926653e+18
14433.0	1.8236962959785974e+18
14434.0	1.824785695978291e+18
14435.0	1.824396479666585e+18
14436.0	1.8240565883699197e+18
14437.0	1.8236845267615741e+18
14438.0	1.8232573721313277e+18
14439.0	1.8229274901217277e+18
14440.0	1.822566902451404e+18
14441.0	1.822188524221235e+18
14442.0	1.82181220623319e+18
14443.0	1.8214054526976e+18
14444.0	1.8210745237897213e+18
14445.0	1.8207058243354621e+18
14446.0	1.8182940408152072e+18
14447.0	1.8199486752882685e+18
14448.0	1.8195911024836603e+18
14449.0	1.819219519025971e+18
14450.0	1.818842803417907e+18
14451.0	1.818474353944166e+18
14452.0	1.8180712981069824e+18
14453.0	1.8176282772635643e+18
14454.0	1.8172815274409981e+18
14455.0	1.8169018993082365e+18
14456.0	1.816531532198707e+18
14457.0	1.8161565446438907e+18
14458.0	1.8157899171758077e+18
14459.0	1.8154152165113853e+18
14460.0	1.8150404202168317e+18
14461.0	1.814631965471539e+18
14462.0	1.8141792188760061e+18
14463.0	1.8139138754609147e+18
14464.0	1.8135574082748416e+18
14465.0	1.8131697539219453e+18
14466.0	1.8128164760846328e+18
14467.0	1.8124151382343675e+18
14468.0	1.812071720366899e+18
14469.0	1.8116750834925565e+18
14470.0	1.8113087529811965e+18
14471.0	1.8109540121706493e+18
14472.0	1.8105866951589885e+18
14473.0	1.8102199418617853e+18
14474.0	1.8098505562193915e+18
14475.0	1.809476127345868e+18
14476.0	1.8090144284278784e+18
14477.0	1.8087373594165243e+18
14478.0	1.808364557932953e+18
14479.0	1.8079947260166144e+18
14480.0	1.8076098013167613e+18
14481.0	1.8072548658905085e+18
14482.0	1.8068806903529472e+18
14483.0	1.8065037918732285e+18
14484.0	1.8061327956180987e+18
14485.0	1.8057374774329336e+18
14486.0	1.805134685483827e+18
14487.0	1.8050284571852797e+18
14488.0	1.8046414135230461e+18
14489.0	1.8042705615519744e+18
14490.0	1.8039120475455485e+18
14491.0	1.8035466716577787e+18
14492.0	1.8031774571429888e+18
14493.0	1.8028028957294587e+18
14494.0	1.8024175482437632e+18
14495.0	1.802065803843993e+18
14496.0	1.8015753504555005e+18
14497.0	1.801324276062617e+18
14498.0	1.8009548400885755e+18
14499.0	1.8005847984570365e+18
14500.0	1.8002140555378685e+18
14501.0	1.7997964488212477e+18
14502.0	1.7992494276935677e+18
14503.0	1.799082168916377e+18
14504.0	1.7987273375088637e+18
14505.0	1.7983194548666365e+18
14506.0	1.7979038681268221e+18
14507.0	1.7974030027980797e+18
14508.0	1.7972303065251835e+18
14509.0	1.7968074384736253e+18
14510.0	1.7964343735877627e+18
14511.0	1.7960664039423997e+18
14512.0	1.7956819322273787e+18
14513.0	1.7953256579792893e+18
14514.0	1.7949236607844347e+18
14515.0	1.794583586616115e+18
14516.0	1.7921286772621322e+18
14517.0	1.7938411914526717e+18
14518.0	1.7934736496263165e+18
14519.0	1.7931036432269307e+18
14520.0	1.792733386847027e+18
14521.0	1.79236236207063e+18
14522.0	1.791990740025344e+18
14523.0	1.7915104301416443e+18
14524.0	1.7911507937394685e+18
14525.0	1.7908767144280061e+18
14526.0	1.790509417549004e+18
14527.0	1.7901197885177853e+18
14528.0	1.789655648514867e+18
14529.0	1.789390622189158e+18
14530.0	1.7890144132530176e+18
14531.0	1.7886580484079608e+18
14532.0	1.7875526781763581e+18
14533.0	1.7871545296748536e+18
14534.0	1.7867859577274363e+18
14535.0	1.7864057373589504e+18
14536.0	1.7860415610421243e+18
14537.0	1.785663660962611e+18
14538.0	1.7853043852705787e+18
14539.0	1.7849341255352315e+18
14540.0	1.7845636980277248e+18
14541.0	1.7841727016534016e+18
14542.0	1.7838206451974141e+18
14543.0	1.7833818371129336e+18
14544.0	1.7830806122659837e+18
14545.0	1.7827030745743355e+18
14546.0	1.772873302042209e+18
14547.0	1.7733586786451397e+18
14548.0	1.7815848764833787e+18
14549.0	1.7811213085835261e+18
14550.0	1.7808531314966525e+18
14551.0	1.7804886733225981e+18
14552.0	1.7801168549838848e+18
14553.0	1.779741016824217e+18
14554.0	1.7793771894734843e+18
14555.0	1.7790061831520253e+18
14556.0	1.7786334353555453e+18
14557.0	1.7782650781564923e+18
14558.0	1.7778930333253627e+18
14559.0	1.7759890508349414e+18
14560.0	1.7771444238811133e+18
14561.0	1.7767760750706685e+18
14562.0	1.7763875181035517e+18
14563.0	1.776039249942937e+18
14564.0	1.7756530417860605e+18
14565.0	1.7752998830669821e+18
14566.0	1.774929190479462e+18
14567.0	1.774556962776678e+18
14568.0	1.774166176117555e+18
14569.0	1.7738152990998528e+18
14570.0	1.7730106470432763e+18
14571.0	1.773071102063411e+18
14572.0	1.772663096947507e+18
14573.0	1.772246506930176e+18
14574.0	1.7718466219868155e+18
14575.0	1.771509519063449e+18
14576.0	1.7711362461401085e+18
14577.0	1.7707671088005115e+18
14578.0	1.7704001491435517e+18
14579.0	1.7700305923735547e+18
14580.0	1.769659245474611e+18
14581.0	1.769282622141235e+18
14582.0	1.76891519607767e+18
14583.0	1.7685444347035643e+18
14584.0	1.7681575772684285e+18
14585.0	1.7678007929929728e+18
14586.0	1.7674261829255165e+18
14587.0	1.7670556144893947e+18
14588.0	1.7666856231895037e+18
14589.0	1.7663219099238397e+18
14590.0	1.7659583711412221e+18
14591.0	1.7655925087141885e+18
14592.0	1.7652251766030333e+18
14593.0	1.764761815062937e+18
14594.0	1.7645025282228221e+18
14595.0	1.764133469736141e+18
14596.0	1.7636700779970557e+18
14597.0	1.7632909783465981e+18
14598.0	1.7630343221739517e+18
14599.0	1.7626815610748925e+18
14600.0	1.7623141870206976e+18
14601.0	1.7619507187023872e+18
14602.0	1.761579303016857e+18
14603.0	1.7612204115230715e+18
14604.0	1.7608122470236157e+18
14605.0	1.7604688056680443e+18
14606.0	1.7600656340680696e+18
14607.0	1.7597519387164664e+18
14608.0	1.7593928744173563e+18
14609.0	1.7590199135502333e+18
14610.0	1.7586310864699387e+18
14611.0	1.7582892758597632e+18
14612.0	1.7579330955640827e+18
14613.0	1.7575690769530875e+18
14614.0	1.7572005083611133e+18
14615.0	1.7568365082050557e+18
14616.0	1.756472108751257e+18
14617.0	1.75610575978496e+18
14618.0	1.7557314080866304e+18
14619.0	1.755297462039347e+18
14620.0	1.7547422519525376e+18
14621.0	1.7546404360617981e+18
14622.0	1.7542713775751165e+18
14623.0	1.753907439494758e+18
14624.0	1.7534878413225981e+18
14625.0	1.7531705892012032e+18
14626.0	1.7528039248232443e+18
14627.0	1.75222305062912e+18
14628.0	1.7516266340220925e+18
14629.0	1.751259098906624e+18
14630.0	1.7508889012469752e+18
14631.0	1.750522993521459e+18
14632.0	1.7495191841669123e+18
14633.0	1.7496986936672253e+18
14634.0	1.7494140044443648e+18
14635.0	1.7489619457146875e+18
14636.0	1.748467021198131e+18
14637.0	1.7483133049896957e+18
14638.0	1.747938387899187e+18
14639.0	1.7475613870784512e+18
14640.0	1.7472001853620224e+18
14641.0	1.7443497950838766e+18
14642.0	1.7464594930860032e+18
14643.0	1.7460950349119485e+18
14644.0	1.7457144571887613e+18
14645.0	1.745333423125299e+18
14646.0	1.7449700839915517e+18
14647.0	1.7445886908956664e+18
14648.0	1.744237837366067e+18
