# Flux units: erg / (cm m2 s)
# Wavelength units: Angstrom
wave	flux
14000.0	1.8419928046501883e+18
14001.0	1.841511129101107e+18
14002.0	1.8411064525848568e+18
14003.0	1.8406658862481403e+18
14004.0	1.8402224627515387e+18
14005.0	1.839781896414822e+18
14006.0	1.8393339061600253e+18
14007.0	1.8388886505914363e+18
14008.0	1.8383760848322555e+18
14009.0	1.838011005901209e+18
14010.0	1.8375574489661437e+18
14011.0	1.8366916791894016e+18
14012.0	1.8366821363089403e+18
14013.0	1.8362429473816579e+18
14014.0	1.8357956735139835e+18
14015.0	1.8353576388591613e+18
14016.0	1.8349163880120315e+18
14017.0	1.834475553239859e+18
14018.0	1.8340316331376637e+18
14019.0	1.833593930671718e+18
14020.0	1.8331507806437368e+18
14021.0	1.8327080399798264e+18
14022.0	1.832260603373158e+18
14023.0	1.8317494133456896e+18
14024.0	1.8313536438534141e+18
14025.0	1.8309445633179643e+18
14026.0	1.8305048777850877e+18
14027.0	1.8300638148427768e+18
14028.0	1.829621241951027e+18
14029.0	1.8291801672646653e+18
14030.0	1.825887418843138e+18
14031.0	1.828282587886387e+18
14032.0	1.827863409144627e+18
14033.0	1.8273541182980093e+18
14034.0	1.8269869053050875e+18
14035.0	1.8265467684651003e+18
14036.0	1.8261046720462843e+18
14037.0	1.825652244217856e+18
14038.0	1.8252321880276987e+18
14039.0	1.8247914539188221e+18
14040.0	1.8243453695557627e+18
14041.0	1.8239150457094141e+18
14042.0	1.8234728335278077e+18
14043.0	1.8230103158816765e+18
14044.0	1.8225936671440893e+18
14045.0	1.822160279778099e+18
14046.0	1.821721303921459e+18
14047.0	1.8212709329797115e+18
14048.0	1.8208435300466688e+18
14049.0	1.8204136675737597e+18
14050.0	1.8199755993645056e+18
14051.0	1.8195294378262525e+18
14052.0	1.8190980553375741e+18
14053.0	1.8186639213854715e+18
14054.0	1.818229364647526e+18
14055.0	1.8177881507102715e+18
14056.0	1.8173564695871485e+18
14057.0	1.816918255416115e+18
14058.0	1.8164837204885504e+18
14059.0	1.8160453016354816e+18
14060.0	1.8156119226580984e+18
14061.0	1.8151706936213504e+18
14062.0	1.8147408680583165e+18
14063.0	1.8142933895086072e+18
14064.0	1.813472203505664e+18
14065.0	1.813429171624345e+18
14066.0	1.8129973025964027e+18
14067.0	1.81247196266496e+18
14068.0	1.8121269123743736e+18
14069.0	1.81168321373143e+18
14070.0	1.8112570657341437e+18
14071.0	1.8108205812940797e+18
14072.0	1.810387162051379e+18
14073.0	1.80995054674903e+18
14074.0	1.8095201423720445e+18
14075.0	1.8090700214108155e+18
14076.0	1.8085508454285307e+18
14077.0	1.8075062875717627e+18
14078.0	1.807731872340377e+18
14079.0	1.8073446088966141e+18
14080.0	1.806919776233062e+18
14081.0	1.8064859174273021e+18
14082.0	1.8060287131254781e+18
14083.0	1.805617901181337e+18
14084.0	1.8051878021496827e+18
14085.0	1.8040978283692032e+18
14086.0	1.804268382191616e+18
14087.0	1.8038905139888125e+18
14088.0	1.803441003718246e+18
14089.0	1.8029396971487232e+18
14090.0	1.802580262073139e+18
14091.0	1.8021623332339712e+18
14092.0	1.8017293283885056e+18
14093.0	1.8012987260403712e+18
14094.0	1.8008674895134717e+18
14095.0	1.8004348101459965e+18
14096.0	1.7998562562408448e+18
14097.0	1.7995021714194424e+18
14098.0	1.7990605380517885e+18
14099.0	1.7987085302497277e+18
14100.0	1.7982596675796987e+18
14101.0	1.7978481744805885e+18
14102.0	1.797415469947289e+18
14103.0	1.796977561121587e+18
14104.0	1.7965548994297856e+18
14105.0	1.7961183143264256e+18
14106.0	1.7956970333995003e+18
14107.0	1.7952409263276027e+18
14108.0	1.7948189055254523e+18
14109.0	1.794403872433766e+18
14110.0	1.7939514295058432e+18
14111.0	1.7934950170886141e+18
14112.0	1.793108188174745e+18
14113.0	1.792633218478899e+18
14114.0	1.79223686849495e+18
14115.0	1.7918220803506176e+18
14116.0	1.7911553722417147e+18
14117.0	1.7865225168486418e+18
14118.0	1.7905419536039933e+18
14119.0	1.790040348400025e+18
14120.0	1.7896147272073208e+18
14121.0	1.7892414375067643e+18
14122.0	1.788746036517273e+18
14123.0	1.7882555613184e+18
14124.0	1.7877895657553917e+18
14125.0	1.7872049317871613e+18
14126.0	1.7870818809741307e+18
14127.0	1.786692773714329e+18
14128.0	1.7862659479175163e+18
14129.0	1.7858310925451261e+18
14130.0	1.7853949772038144e+18
14131.0	1.7849779895664635e+18
14132.0	1.784553873290035e+18
14133.0	1.7837304089411569e+18
14134.0	1.7837065332850685e+18
14135.0	1.7832525485309947e+18
14136.0	1.7824693142683648e+18
14137.0	1.7824238027145213e+18
14138.0	1.7819317219360765e+18
14139.0	1.7815765365293053e+18
14140.0	1.781108455558348e+18
14141.0	1.7807214622277627e+18
14142.0	1.7798524661923837e+18
14143.0	1.7797751366483965e+18
14144.0	1.7794501082873853e+18
14145.0	1.7790243193225213e+18
14146.0	1.7785919234899965e+18
14147.0	1.7781692718645243e+18
14148.0	1.7777223301857275e+18
14149.0	1.777281577621913e+18
14150.0	1.7769001845260285e+18
14151.0	1.77641415025623e+18
14152.0	1.77605209793495e+18
14153.0	1.7756294664421368e+18
14154.0	1.7751852795822077e+18
14155.0	1.7719019599560727e+18
14156.0	1.7742560030097393e+18
14157.0	1.7739277903331325e+18
14158.0	1.773480615451033e+18
14159.0	1.7730849332002813e+18
14160.0	1.7726628301897723e+18
14161.0	1.7721897428975613e+18
14162.0	1.7717373637230587e+18
14163.0	1.7713913202212861e+18
14164.0	1.7708020809072635e+18
14165.0	1.7701109770485763e+18
14166.0	1.7701188858281984e+18
14167.0	1.7696912782131195e+18
14168.0	1.7692397714538493e+18
14169.0	1.768855465833267e+18
14170.0	1.7684117839675387e+18
14171.0	1.7679913301573632e+18
14172.0	1.7675929820069888e+18
14173.0	1.7669772011372544e+18
14174.0	1.7667366896795648e+18
14175.0	1.7663269061787648e+18
14176.0	1.7658672322707453e+18
14177.0	1.7654753701920768e+18
14178.0	1.7650602230153213e+18
14179.0	1.7646025942499325e+18
14180.0	1.7642241992425464e+18
14181.0	1.7638029451591675e+18
14182.0	1.7633825098039293e+18
14183.0	1.7629624871682048e+18
14184.0	1.7625383289487357e+18
14185.0	1.7621209655017472e+18
14186.0	1.7608322102329344e+18
14187.0	1.761264549022924e+18
14188.0	1.7608594513985528e+18
14189.0	1.7604301878722557e+18
14190.0	1.7600168291467261e+18
14191.0	1.7595934108024827e+18
14192.0	1.7591778911715328e+18
14193.0	1.758617954942976e+18
14194.0	1.7583382032547837e+18
14195.0	1.7579288106631163e+18
14196.0	1.7575099121008637e+18
14197.0	1.7570900605927421e+18
14198.0	1.7566690850111485e+18
14199.0	1.7562431953829885e+18
14200.0	1.7553122276671493e+18
14201.0	1.755411584018022e+18
14202.0	1.7549982454251515e+18
14203.0	1.7545332682391552e+18
14204.0	1.7541510614482944e+18
14205.0	1.7537419188371456e+18
14206.0	1.753232965212569e+18
14207.0	1.752908956906291e+18
14208.0	1.7524918501507064e+18
14209.0	1.7519669715927035e+18
14210.0	1.7515967135350774e+18
14211.0	1.7512353272692733e+18
14212.0	1.7508232050245627e+18
14213.0	1.7503848398585853e+18
14214.0	1.7499901843734525e+18
14215.0	1.7495591021969403e+18
14216.0	1.7491567023489021e+18
14217.0	1.7487421708959736e+18
14218.0	1.7483171872374784e+18
14219.0	1.7479082224648187e+18
14220.0	1.7474905251512317e+18
14221.0	1.7470587282653181e+18
14222.0	1.7465066907500541e+18
14223.0	1.7462325208416253e+18
14224.0	1.7458328422580221e+18
14225.0	1.7439778861481994e+18
14226.0	1.745002373421465e+18
14227.0	1.7445870182072315e+18
14228.0	1.7408160419545103e+18
14229.0	1.7433758542069732e+18
14230.0	1.743343274531225e+18
14231.0	1.74277978488832e+18
14232.0	1.7425152669122552e+18
14233.0	1.742093717549875e+18
14234.0	1.7416869640142843e+18
14235.0	1.7412706357215232e+18
14236.0	1.740855780468326e+18
14237.0	1.7404398263074808e+18
14238.0	1.740026482681446e+18
14239.0	1.739598255987097e+18
14240.0	1.7381782240362504e+18
14241.0	1.7387823833284605e+18
14242.0	1.7383760425123837e+18
14243.0	1.7378498922414075e+18
14244.0	1.7375532559630333e+18
14245.0	1.7371239119060984e+18
14246.0	1.7366958043299837e+18
14247.0	1.736310262228582e+18
14248.0	1.7358909643685885e+18
14249.0	1.7354868985430016e+18
14250.0	1.735076734199398e+18
14251.0	1.73466498105344e+18
14252.0	1.734250738168627e+18
14253.0	1.7338361647726587e+18
14254.0	1.7334264701911037e+18
14255.0	1.7329948477882365e+18
14256.0	1.7315981948878853e+18
14257.0	1.7321829228085248e+18
14258.0	1.7317829908889597e+18
14259.0	1.731337958457344e+18
14260.0	1.7309299365642237e+18
14261.0	1.7305328232169472e+18
14262.0	1.7301412027301885e+18
14263.0	1.7282422718595082e+18
14264.0	1.7291174486212605e+18
14265.0	1.7288501036843003e+18
14266.0	1.7284984331042816e+18
14267.0	1.728088290571059e+18
14268.0	1.7276767068749821e+18
14269.0	1.7272622878294013e+18
14270.0	1.7268592168927227e+18
14271.0	1.7264423198523387e+18
14272.0	1.7260342610493435e+18
14273.0	1.7256248516804603e+18
14274.0	1.7230785366982671e+18
14275.0	1.7246135563321344e+18
14276.0	1.724349529928499e+18
14277.0	1.7239612917284861e+18
14278.0	1.723578247754547e+18
14279.0	1.723169006157824e+18
14280.0	1.722755051841126e+18
14281.0	1.7223525412634621e+18
14282.0	1.7219440093429757e+18
14283.0	1.7215362642739197e+18
14284.0	1.7211281702387707e+18
14285.0	1.720720039293747e+18
14286.0	1.720305600115507e+18
14287.0	1.7199027388940285e+18
14288.0	1.7194956917571584e+18
14289.0	1.7184354925019113e+18
14290.0	1.7186717895229437e+18
14291.0	1.7182725991563261e+18
14292.0	1.7178660402364413e+18
14293.0	1.7174592346914816e+18
14294.0	1.716939833894502e+18
14295.0	1.7166292691714043e+18
14296.0	1.7157091445702659e+18
14297.0	1.7158345072836605e+18
14298.0	1.7148581454544893e+18
14299.0	1.7149872478093307e+18
14300.0	1.7146087638827005e+18
14301.0	1.7141964151455741e+18
14302.0	1.7138003788955643e+18
14303.0	1.7133605742444536e+18
14304.0	1.712980189459251e+18
14305.0	1.712580836353638e+18
14306.0	1.7120546240069627e+18
14307.0	1.7117339996651515e+18
14308.0	1.711359659710873e+18
14309.0	1.7109438095687677e+18
14310.0	1.7100661229354998e+18
14311.0	1.7091917313474557e+18
14312.0	1.7096188390014979e+18
14313.0	1.7092710523469821e+18
14314.0	1.7089116457926656e+18
14315.0	1.7085254493798397e+18
14316.0	1.7080913238163453e+18
14317.0	1.7075668227457021e+18
14318.0	1.7073206842097661e+18
14319.0	1.7069163415601147e+18
14320.0	1.706512748852019e+18
14321.0	1.7061053577822203e+18
14322.0	1.7056704168460285e+18
14323.0	1.7052924127477757e+18
14324.0	1.70487933084631e+18
14325.0	1.7044880257712125e+18
14326.0	1.7040928451592187e+18
14327.0	1.7036827076591613e+18
14328.0	1.7032806567772157e+18
14329.0	1.702884397390233e+18
14330.0	1.7024808952791035e+18
14331.0	1.7020600807587837e+18
14332.0	1.7016751996796923e+18
14333.0	1.7012740094689277e+18
14334.0	1.700872247155097e+18
14335.0	1.7004379890515963e+18
14336.0	1.6998917816188925e+18
14337.0	1.6996578703179768e+18
14338.0	1.699255007418777e+18
14339.0	1.6988399760048125e+18
14340.0	1.6984562659753981e+18
14341.0	1.6980394427547643e+18
14342.0	1.697649697960755e+18
14343.0	1.697232398267187e+18
14344.0	1.6968381471129597e+18
14345.0	1.6964514238955515e+18
14346.0	1.6960488009105403e+18
14347.0	1.695574514047385e+18
14348.0	1.69524661846016e+18
14349.0	1.6948504849022968e+18
14350.0	1.6943353606176765e+18
14351.0	1.693928662446899e+18
14352.0	1.693641896204697e+18
14353.0	1.6932483866034168e+18
14354.0	1.6928378615496696e+18
14355.0	1.692418603954995e+18
14356.0	1.6920302600585213e+18
14357.0	1.6916511302090747e+18
14358.0	1.6912512050003965e+18
14359.0	1.6908401917296635e+18
14360.0	1.6904449507196925e+18
14361.0	1.6900523219222525e+18
14362.0	1.689654666670899e+18
14363.0	1.6892562094686205e+18
14364.0	1.68843020337152e+18
14365.0	1.6884115118751736e+18
14366.0	1.68799373403095e+18
14367.0	1.6876614897893379e+18
14368.0	1.6872633899417597e+18
14369.0	1.686866637304627e+18
14370.0	1.6864679989084157e+18
14371.0	1.6860692967587837e+18
14372.0	1.6856583573078013e+18
14373.0	1.6852716458344448e+18
14374.0	1.6848733580820475e+18
14375.0	1.684476454449971e+18
14376.0	1.6840796833579005e+18
14377.0	1.683683110236979e+18
14378.0	1.6832845876035581e+18
14379.0	1.6828895999295485e+18
14380.0	1.6824917047640056e+18
14381.0	1.6820861977755643e+18
14382.0	1.681697174401843e+18
14383.0	1.6812706757607421e+18
14384.0	1.6808875059576832e+18
14385.0	1.6805098021715963e+18
14386.0	1.6800995606527997e+18
14387.0	1.6797160838266875e+18
14388.0	1.6793178497613821e+18
14389.0	1.6789249139408893e+18
14390.0	1.678527953266278e+18
14391.0	1.6781256574369787e+18
14392.0	1.677714907568537e+18
14393.0	1.6773430338650107e+18
14394.0	1.676918535068057e+18
14395.0	1.6762754308243453e+18
14396.0	1.6761439746260987e+18
14397.0	1.675762586563379e+18
14398.0	1.675351116952371e+18
14399.0	1.6749675008753661e+18
14400.0	1.674389379822387e+18
14401.0	1.674178020455219e+18
14402.0	1.673786037580595e+18
14403.0	1.6671001827868554e+18
14404.0	1.6568009820733417e+18
14405.0	1.6716825387597778e+18
14406.0	1.672211336475443e+18
14407.0	1.6619272553889843e+18
14408.0	1.6713036823789565e+18
14409.0	1.6710154615521277e+18
14410.0	1.670603666463129e+18
14411.0	1.670228786282496e+18
14412.0	1.6698471012630525e+18
14413.0	1.6694560159694843e+18
14414.0	1.669062452681113e+18
14415.0	1.6686711727718397e+18
14416.0	1.668251559500185e+18
14417.0	1.6677716153597947e+18
14418.0	1.6673905393532925e+18
14419.0	1.6670999328063485e+18
14420.0	1.6667039066226685e+18
14421.0	1.6663156097024e+18
14422.0	1.665919494599475e+18
14423.0	1.665523381174272e+18
14424.0	1.6293526010593047e+18
14425.0	1.6647435157766141e+18
14426.0	1.664355166846976e+18
14427.0	1.6639647811633147e+18
14428.0	1.6635424936034304e+18
14429.0	1.663180444637593e+18
14430.0	1.6627910068666365e+18
14431.0	1.6617441069105152e+18
14432.0	1.661975115753062e+18
14433.0	1.654192086397742e+18
14434.0	1.6612145105993723e+18
14435.0	1.6607316136689656e+18
14436.0	1.6604452500799485e+18
14437.0	1.6600546681028603e+18
14438.0	1.6594069148925952e+18
14439.0	1.6592225316110333e+18
14440.0	1.6588836586913787e+18
14441.0	1.6584885468659707e+18
14442.0	1.6580959566561275e+18
14443.0	1.6576770597715965e+18
14444.0	1.6573201547001853e+18
14445.0	1.6569342015569915e+18
14446.0	1.648780649064042e+18
14447.0	1.6561456354951165e+18
14448.0	1.6557645829767165e+18
14449.0	1.6553740278431741e+18
14450.0	1.654980988003942e+18
14451.0	1.6545932128550907e+18
14452.0	1.6542031526494203e+18
14453.0	1.6536673185693693e+18
14454.0	1.6534249565847547e+18
14455.0	1.6530343796408315e+18
14456.0	1.6526160682811392e+18
14457.0	1.6522082091270141e+18
14458.0	1.6517526607364096e+18
14459.0	1.6514479479062523e+18
14460.0	1.651092952082022e+18
14461.0	1.650651296903987e+18
14462.0	1.6494985243262976e+18
14463.0	1.6499163978006525e+18
14464.0	1.6495441902305283e+18
14465.0	1.6491456575307776e+18
14466.0	1.648767693697843e+18
14467.0	1.6482760659042304e+18
14468.0	1.647987522954854e+18
14469.0	1.647562700357632e+18
14470.0	1.6472015657500667e+18
14471.0	1.646821509798297e+18
14472.0	1.6464405831090176e+18
14473.0	1.6460632182226941e+18
14474.0	1.6456788673036285e+18
14475.0	1.6452853979676667e+18
14476.0	1.6444080015802373e+18
14477.0	1.6445176440422397e+18
14478.0	1.6441304292524032e+18
14479.0	1.6437337722454016e+18
14480.0	1.643349414615449e+18
14481.0	1.6429776415752192e+18
14482.0	1.6425893597544448e+18
14483.0	1.6421969507385344e+18
14484.0	1.6418185523757053e+18
14485.0	1.6414028750389248e+18
14486.0	1.640829042242355e+18
14487.0	1.6406604396101624e+18
14488.0	1.6400801475854333e+18
14489.0	1.639822253254246e+18
14490.0	1.6394888832614397e+18
14491.0	1.639126602770022e+18
14492.0	1.6387308232114176e+18
14493.0	1.638323574747955e+18
14494.0	1.6379514342866941e+18
14495.0	1.6375903734988797e+18
14496.0	1.637105121047347e+18
14497.0	1.6368205777862653e+18
14498.0	1.636435445048934e+18
14499.0	1.6360551525384187e+18
14500.0	1.6356714156654587e+18
14501.0	1.6350595304652797e+18
14502.0	1.6344379111243776e+18
14503.0	1.6344629343420413e+18
14504.0	1.634132691622297e+18
14505.0	1.6335434875404278e+18
14506.0	1.6328734256660477e+18
14507.0	1.632806857028403e+18
14508.0	1.6326054079627261e+18
14509.0	1.6322223992209403e+18
14510.0	1.631837920795033e+18
14511.0	1.631457103157657e+18
14512.0	1.6310611776372733e+18
14513.0	1.630691300422451e+18
14514.0	1.630221093778227e+18
14515.0	1.6299196642492413e+18
14516.0	1.627964299857102e+18
14517.0	1.6291636409532408e+18
14518.0	1.628781434162381e+18
14519.0	1.6283989690023933e+18
14520.0	1.6280180054032384e+18
14521.0	1.6276286884282365e+18
14522.0	1.6272406649765888e+18
14523.0	1.6262834610503675e+18
14524.0	1.6259532720177144e+18
14525.0	1.626106696302592e+18
14526.0	1.625726371915366e+18
14527.0	1.6253018496303101e+18
14528.0	1.6247248056745984e+18
14529.0	1.6245798018744312e+18
14530.0	1.6241916676931584e+18
14531.0	1.623825010026086e+18
14532.0	1.6225396940865533e+18
14533.0	1.623064814236467e+18
14534.0	1.6226860467748856e+18
14535.0	1.6222954798972925e+18
14536.0	1.621922165030912e+18
14537.0	1.6215336198078461e+18
14538.0	1.6211629507084285e+18
14539.0	1.6207828830126077e+18
14540.0	1.620403821949747e+18
14541.0	1.6200061264330755e+18
14542.0	1.6196417051688957e+18
14543.0	1.618936251757363e+18
14544.0	1.6188851332579328e+18
14545.0	1.6184925900242941e+18
14546.0	1.583790557023419e+18
14547.0	1.5870144953712415e+18
14548.0	1.617358421701427e+18
14549.0	1.616901484157337e+18
14550.0	1.6166059417534461e+18
14551.0	1.6162350109294587e+18
14552.0	1.6158473431547896e+18
14553.0	1.615462554350387e+18
14554.0	1.615099210183475e+18
14555.0	1.614719910884147e+18
14556.0	1.6143291393245181e+18
14557.0	1.6139654948454397e+18
14558.0	1.613586375062323e+18
14559.0	1.6116373843345362e+18
14560.0	1.6124655345598454e+18
14561.0	1.6124504501649403e+18
14562.0	1.612042886289817e+18
14563.0	1.6117001059565565e+18
14564.0	1.6112468392673277e+18
14565.0	1.6109478189465595e+18
14566.0	1.6105707459837947e+18
14567.0	1.6101907437191165e+18
14568.0	1.6095321239060475e+18
14569.0	1.6094342825377792e+18
14570.0	1.6085960022294525e+18
14571.0	1.6086833393827835e+18
14572.0	1.6081847138123776e+18
14573.0	1.6078757664129024e+18
14574.0	1.6073444235935744e+18
14575.0	1.6071593742565376e+18
14576.0	1.606787663292006e+18
14577.0	1.60642203910144e+18
14578.0	1.6060497778442235e+18
14579.0	1.6056756929036285e+18
14580.0	1.605300254041702e+18
14581.0	1.6048932538810363e+18
14582.0	1.6045434589937661e+18
14583.0	1.6041747880607741e+18
14584.0	1.6037754718650365e+18
14585.0	1.6034238902042621e+18
14586.0	1.6030463122472957e+18
14587.0	1.602663036747776e+18
14588.0	1.6022958170439675e+18
14589.0	1.601938750911283e+18
14590.0	1.6015806882119675e+18
14591.0	1.6012068163420157e+18
14592.0	1.600855182671872e+18
14593.0	1.6004087778639867e+18
14594.0	1.6001422734655485e+18
14595.0	1.599779429259673e+18
14596.0	1.5990688067878904e+18
14597.0	1.5986922438524918e+18
14598.0	1.598683627074355e+18
14599.0	1.5983514499416061e+18
14600.0	1.5979798882942979e+18
14601.0	1.5976310664855547e+18
14602.0	1.5972080340172797e+18
14603.0	1.5968979591888893e+18
14604.0	1.596491052980633e+18
14605.0	1.5960846366670843e+18
14606.0	1.595696596438221e+18
14607.0	1.595484361300377e+18
14608.0	1.5951212000051197e+18
14609.0	1.5947084402262013e+18
14610.0	1.5941887793823744e+18
14611.0	1.5940428259917821e+18
14612.0	1.5936968277884923e+18
14613.0	1.5933421322764285e+18
14614.0	1.5929812996587515e+18
14615.0	1.5925493081571328e+18
14616.0	1.5922707090636797e+18
14617.0	1.5919130104299515e+18
14618.0	1.5914535646920704e+18
14619.0	1.5910170617970675e+18
14620.0	1.5898659468083197e+18
14621.0	1.5904862139056125e+18
14622.0	1.5901269482799104e+18
14623.0	1.5897720732516347e+18
14624.0	1.589371525608243e+18
14625.0	1.5890563203071997e+18
14626.0	1.5886865890541565e+18
14627.0	1.588316606142873e+18
14628.0	1.5879902523817984e+18
14629.0	1.587633852304588e+18
14630.0	1.5872712631123963e+18
14631.0	1.5869144385716221e+18
14632.0	1.583238010319669e+18
14633.0	1.5858324977221617e+18
14634.0	1.585835131745075e+18
14635.0	1.5830927531835218e+18
14636.0	1.5762916070391788e+18
14637.0	1.5847847387725821e+18
14638.0	1.584396064364953e+18
14639.0	1.584053315908403e+18
14640.0	1.5837139363168253e+18
14641.0	1.5711497023913882e+18
14642.0	1.5830019515351037e+18
14643.0	1.582646559768576e+18
14644.0	1.5822776656986107e+18
14645.0	1.5819162358120443e+18
14646.0	1.5814653548429312e+18
14647.0	1.5811211769675768e+18
