# Flux units: erg / (cm m2 s)
# Wavelength units: Angstrom
wave	flux
14000.0	2.333558321237196e+18
14001.0	2.3331198805737467e+18
14002.0	2.3326774284779515e+18
14003.0	2.3321933772750843e+18
14004.0	2.3317083127283707e+18
14005.0	2.331222798552268e+18
14006.0	2.3307329625653243e+18
14007.0	2.33024465666048e+18
14008.0	2.3297094936690683e+18
14009.0	2.3292715026350075e+18
14010.0	2.328780809332326e+18
14011.0	2.327947592387789e+18
14012.0	2.327817159599718e+18
14013.0	2.3273419197906944e+18
14014.0	2.3268541608230907e+18
14015.0	2.3263731295191035e+18
14016.0	2.325890157091225e+18
14017.0	2.3254063726460923e+18
14018.0	2.3249223684194304e+18
14019.0	2.3244385252540416e+18
14020.0	2.3239542207152123e+18
14021.0	2.3234700638158843e+18
14022.0	2.3229865964601344e+18
14023.0	2.322494050952806e+18
14024.0	2.322011499633049e+18
14025.0	2.3215369879552e+18
14026.0	2.321053153178419e+18
14027.0	2.320570843450573e+18
14028.0	2.3200873962274816e+18
14029.0	2.3196003150594043e+18
14030.0	2.318808348255846e+18
14031.0	2.318585009956454e+18
14032.0	2.318154394186547e+18
14033.0	2.317644722497126e+18
14034.0	2.3171935663816704e+18
14035.0	2.316712298518937e+18
14036.0	2.316230748798976e+18
14037.0	2.3157491856572416e+18
14038.0	2.315267676202598e+18
14039.0	2.3147829170012155e+18
14040.0	2.3143016222949376e+18
14041.0	2.313822131139379e+18
14042.0	2.313335148956877e+18
14043.0	2.312837905829069e+18
14044.0	2.312374218810982e+18
14045.0	2.311897839828992e+18
14046.0	2.3114148959223803e+18
14047.0	2.310933243861401e+18
14048.0	2.3104577591050235e+18
14049.0	2.3099780951441403e+18
14050.0	2.3094978792128507e+18
14051.0	2.3090128633200635e+18
14052.0	2.3085337295192064e+18
14053.0	2.3080580551802875e+18
14054.0	2.3075785573138427e+18
14055.0	2.307099000727142e+18
14056.0	2.306619531381965e+18
14057.0	2.306140216387174e+18
14058.0	2.3056609802452987e+18
14059.0	2.305181856510771e+18
14060.0	2.304702784785612e+18
14061.0	2.3042199985848315e+18
14062.0	2.303744505439846e+18
14063.0	2.3032558421803005e+18
14064.0	2.302735963232665e+18
14065.0	2.302304102593331e+18
14066.0	2.3018312334049275e+18
14067.0	2.3013506970288123e+18
14068.0	2.3008751283863547e+18
14069.0	2.3003965633331195e+18
14070.0	2.2999192045617152e+18
14071.0	2.2994400657276923e+18
14072.0	2.2989641464414205e+18
14073.0	2.2984866752626683e+18
14074.0	2.2980092762259456e+18
14075.0	2.2975186265440256e+18
14076.0	2.2970506361700347e+18
14077.0	2.2965052524986365e+18
14078.0	2.2960923501133821e+18
14079.0	2.295616838513459e+18
14080.0	2.2951471955836923e+18
14081.0	2.2946708870660093e+18
14082.0	2.2941933370343421e+18
14083.0	2.2937163087740923e+18
14084.0	2.2932359770800123e+18
14085.0	2.2925926245335037e+18
14086.0	2.2922733205585915e+18
14087.0	2.2918123162173432e+18
14088.0	2.2913297749639165e+18
14089.0	2.2908606974263288e+18
14090.0	2.2903873333100541e+18
14091.0	2.289912517964595e+18
14092.0	2.2894374207619072e+18
14093.0	2.2889622363176955e+18
14094.0	2.288486944499302e+18
14095.0	2.28801094132695e+18
14096.0	2.2875267357736955e+18
14097.0	2.287047311727001e+18
14098.0	2.2865831633354747e+18
14099.0	2.2861128593833981e+18
14100.0	2.2856325947981821e+18
14101.0	2.2851657503080445e+18
14102.0	2.2846916463165437e+18
14103.0	2.2842097207869437e+18
14104.0	2.2837441798864893e+18
14105.0	2.283270428216524e+18
14106.0	2.2827969147830267e+18
14107.0	2.2823230389616637e+18
14108.0	2.2818408231862267e+18
14109.0	2.281373737104179e+18
14110.0	2.280901084341862e+18
14111.0	2.2804259519070205e+18
14112.0	2.2799503681650685e+18
14113.0	2.2794837048688637e+18
14114.0	2.2790000210870267e+18
14115.0	2.278533403089305e+18
14116.0	2.2780273737334781e+18
14117.0	2.277018135271833e+18
14118.0	2.2771049087107067e+18
14119.0	2.276634593014579e+18
14120.0	2.2761696560939005e+18
14121.0	2.2756945958010877e+18
14122.0	2.2752296941125627e+18
14123.0	2.2747551035817981e+18
14124.0	2.2742715489845245e+18
14125.0	2.2735279945154552e+18
14126.0	2.2733378667151357e+18
14127.0	2.2728755252297723e+18
14128.0	2.2724051675906045e+18
14129.0	2.2719264884523003e+18
14130.0	2.271447599598796e+18
14131.0	2.270992103217561e+18
14132.0	2.2705052871294973e+18
14133.0	2.269712446232985e+18
14134.0	2.2695677075128315e+18
14135.0	2.269100505667993e+18
14136.0	2.2686365049159677e+18
14137.0	2.2681693265592315e+18
14138.0	2.2676982726655995e+18
14139.0	2.2672312083939323e+18
14140.0	2.2667586344845304e+18
14141.0	2.266280618046259e+18
14142.0	2.265796830245683e+18
14143.0	2.2653496754962427e+18
14144.0	2.2648854784507901e+18
14145.0	2.2644173001719805e+18
14146.0	2.2639479609098237e+18
14147.0	2.2634796299583483e+18
14148.0	2.2630107772354555e+18
14149.0	2.262542157715865e+18
14150.0	2.2620749072171005e+18
14151.0	2.261603532878643e+18
14152.0	2.2611385489817592e+18
14153.0	2.2606703606366205e+18
14154.0	2.260182801317887e+18
14155.0	2.259728434043289e+18
14156.0	2.2592655321989115e+18
14157.0	2.258798481349017e+18
14158.0	2.258328677357977e+18
14159.0	2.2578630089506813e+18
14160.0	2.257384749242777e+18
14161.0	2.256892871468646e+18
14162.0	2.256393972429619e+18
14163.0	2.255987497395814e+18
14164.0	2.255506640574873e+18
14165.0	2.255032904004403e+18
14166.0	2.2545892372381686e+18
14167.0	2.254116399926476e+18
14168.0	2.253660913611571e+18
14169.0	2.2531956243693565e+18
14170.0	2.2527277950566395e+18
14171.0	2.2522617072189432e+18
14172.0	2.251796862572953e+18
14173.0	2.2513131469144064e+18
14174.0	2.250859496026931e+18
14175.0	2.2504001878622205e+18
14176.0	2.2499350731030528e+18
14177.0	2.2494697419177981e+18
14178.0	2.2490037077671936e+18
14179.0	2.2485356049858557e+18
14180.0	2.2480742080577533e+18
14181.0	2.247609277847961e+18
14182.0	2.2471438896201723e+18
14183.0	2.2466792093908987e+18
14184.0	2.2462106536247293e+18
14185.0	2.2457443191619584e+18
14186.0	2.2451745548402683e+18
14187.0	2.2447917155483645e+18
14188.0	2.2443551891652605e+18
14189.0	2.2438920323071995e+18
14190.0	2.2434283704549373e+18
14191.0	2.2429639754383355e+18
14192.0	2.242495000241766e+18
14193.0	2.2420220253569021e+18
14194.0	2.2415734026010621e+18
14195.0	2.2411117875691515e+18
14196.0	2.2406486642655227e+18
14197.0	2.2401855141183483e+18
14198.0	2.2397195521097728e+18
14199.0	2.239257136804659e+18
14200.0	2.2387370699522043e+18
14201.0	2.2383222214098936e+18
14202.0	2.2378705586225147e+18
14203.0	2.237273422272921e+18
14204.0	2.2367818246782973e+18
14205.0	2.2363174967705595e+18
14206.0	2.235779723244339e+18
14207.0	2.2353912635850747e+18
14208.0	2.2349318648233976e+18
14209.0	2.234387281425203e+18
14210.0	2.2339427640541181e+18
14211.0	2.23354287072215e+18
14212.0	2.2330859868651515e+18
14213.0	2.2326250999644155e+18
14214.0	2.2321632047529984e+18
14215.0	2.231695627098521e+18
14216.0	2.2312414124965883e+18
14217.0	2.2307802772930555e+18
14218.0	2.23030981731287e+18
14219.0	2.2298580639285243e+18
14220.0	2.2293971686391803e+18
14221.0	2.2287989082161147e+18
14222.0	2.2282915601711101e+18
14223.0	2.227840633903513e+18
14224.0	2.2273776397844475e+18
14225.0	2.2267350841556987e+18
14226.0	2.226445747644006e+18
14227.0	2.2259945512632315e+18
14228.0	2.2251276507021315e+18
14229.0	2.2249708642631677e+18
14230.0	2.2246157392543736e+18
14231.0	2.2241534665555965e+18
14232.0	2.2236977671700475e+18
14233.0	2.2232359290011643e+18
14234.0	2.22277824151552e+18
14235.0	2.2223170744352765e+18
14236.0	2.2218587091501053e+18
14237.0	2.2213978876805117e+18
14238.0	2.220937197073203e+18
14239.0	2.2204642154774523e+18
14240.0	2.2190979142385661e+18
14241.0	2.2193620463386621e+18
14242.0	2.218906033219174e+18
14243.0	2.218364031834521e+18
14244.0	2.2179981576634365e+18
14245.0	2.2175339069308923e+18
14246.0	2.217074820225433e+18
14247.0	2.2166209747222523e+18
14248.0	2.21615748064215e+18
14249.0	2.2157065023651837e+18
14250.0	2.2152481941225472e+18
14251.0	2.2147912481898496e+18
14252.0	2.2143327503646715e+18
14253.0	2.2138733818019837e+18
14254.0	2.2134129864736765e+18
14255.0	2.2129306079592443e+18
14256.0	2.2123156693057533e+18
14257.0	2.211987906258534e+18
14258.0	2.211580270241382e+18
14259.0	2.211110603823513e+18
14260.0	2.2106609157144573e+18
14261.0	2.2101930494918656e+18
14262.0	2.2097681497194493e+18
14263.0	2.209032468797849e+18
14264.0	2.2085417738174461e+18
14265.0	2.2082007987126264e+18
14266.0	2.2077549576191995e+18
14267.0	2.2072997766496253e+18
14268.0	2.206843374298726e+18
14269.0	2.20637976110039e+18
14270.0	2.205929197220659e+18
14271.0	2.2054711322476544e+18
14272.0	2.20501075034112e+18
14273.0	2.2045321836101627e+18
14274.0	2.203645957373952e+18
14275.0	2.2035525502238715e+18
14276.0	2.2031705917358075e+18
14277.0	2.2027254183755768e+18
14278.0	2.2022783340904443e+18
14279.0	2.2018224585441277e+18
14280.0	2.2013647341486077e+18
14281.0	2.2009133985169403e+18
14282.0	2.2004582846562296e+18
14283.0	2.2000029476585464e+18
14284.0	2.199547590528204e+18
14285.0	2.1990921746776061e+18
14286.0	2.1986365373677565e+18
14287.0	2.198180210514329e+18
14288.0	2.1977146192822267e+18
14289.0	2.1964925651910648e+18
14290.0	2.1965981676994563e+18
14291.0	2.1961522309758973e+18
14292.0	2.1956986539081723e+18
14293.0	2.195240557058457e+18
14294.0	2.194704442798899e+18
14295.0	2.1943110707707901e+18
14296.0	2.1934076663431168e+18
14297.0	2.1933962779688955e+18
14298.0	2.1928440659705853e+18
14299.0	2.192500829297049e+18
14300.0	2.1920561273765885e+18
14301.0	2.1916054477340667e+18
14302.0	2.1911540147945467e+18
14303.0	2.1906738861047803e+18
14304.0	2.1902362255818752e+18
14305.0	2.1897919380586493e+18
14306.0	2.189332405079244e+18
14307.0	2.1888798396776445e+18
14308.0	2.1884301297582077e+18
14309.0	2.1879736519098365e+18
14310.0	2.187496137110323e+18
14311.0	2.187056921339494e+18
14312.0	2.1865989083758587e+18
14313.0	2.1861244839395323e+18
14314.0	2.1857111688347645e+18
14315.0	2.18525795918807e+18
14316.0	2.1847491683024893e+18
14317.0	2.1841326475575293e+18
14318.0	2.1836862712709117e+18
14319.0	2.183235079923302e+18
14320.0	2.1827825665310717e+18
14321.0	2.1823299507978232e+18
14322.0	2.1818547026001917e+18
14323.0	2.181409952025804e+18
14324.0	2.1809735766376445e+18
14325.0	2.1805138339430392e+18
14326.0	2.1800702611292155e+18
14327.0	2.1796129679081464e+18
14328.0	2.1791626321985533e+18
14329.0	2.1787148868911096e+18
14330.0	2.1782633096675325e+18
14331.0	2.177811584804454e+18
14332.0	2.1773602441396221e+18
14333.0	2.1769088548208637e+18
14334.0	2.176457403426406e+18
14335.0	2.1759986371657725e+18
14336.0	2.175534643124633e+18
14337.0	2.175101222204211e+18
14338.0	2.174651081110323e+18
14339.0	2.1741931419664384e+18
14340.0	2.1737512804286461e+18
14341.0	2.1733003944263677e+18
14342.0	2.1728504060051453e+18
14343.0	2.1723988875018232e+18
14344.0	2.171945889248051e+18
14345.0	2.17149917406167e+18
14346.0	2.1710472965259261e+18
14347.0	2.1705920820019195e+18
14348.0	2.1701226940858365e+18
14349.0	2.1694708036141056e+18
14350.0	2.1690038551052285e+18
14351.0	2.1685494391767037e+18
14352.0	2.168113711389081e+18
14353.0	2.167669504396492e+18
14354.0	2.1672181419212792e+18
14355.0	2.166764831611289e+18
14356.0	2.1663159404199933e+18
14357.0	2.1658710505947133e+18
14358.0	2.1654217399730173e+18
14359.0	2.1649593649332221e+18
14360.0	2.16452136215511e+18
14361.0	2.164072491096473e+18
14362.0	2.163623675402649e+18
14363.0	2.1631729756274685e+18
14364.0	2.1626767676538877e+18
14365.0	2.1622544515727355e+18
14366.0	2.1618179335782395e+18
14367.0	2.1613788369256443e+18
14368.0	2.1609302225584125e+18
14369.0	2.1604820427210752e+18
14370.0	2.1600336363913216e+18
14371.0	2.1595853273694205e+18
14372.0	2.1591330371141627e+18
14373.0	2.1586885566529533e+18
14374.0	2.158240606663475e+18
14375.0	2.157792552655257e+18
14376.0	2.1573445573672955e+18
14377.0	2.1568962416345083e+18
14378.0	2.1564471860264955e+18
14379.0	2.1560009926115325e+18
14380.0	2.1555525644713981e+18
14381.0	2.1550968936071165e+18
14382.0	2.1546572181405693e+18
14383.0	2.1542093503594493e+18
14384.0	2.1537489952964608e+18
14385.0	2.1532121931710461e+18
14386.0	2.152614176017612e+18
14387.0	2.1521782569697275e+18
14388.0	2.15173003518935e+18
14389.0	2.1512827277672445e+18
14390.0	2.15083463517143e+18
14391.0	2.15038844511191e+18
14392.0	2.1499406847049725e+18
14393.0	2.1494940785704955e+18
14394.0	2.1490177180434427e+18
14395.0	2.14859177305047e+18
14396.0	2.148152569023692e+18
14397.0	2.1477055585583101e+18
14398.0	2.147258059875942e+18
14399.0	2.1468106702454781e+18
14400.0	2.1463518251319293e+18
14401.0	2.14590775403479e+18
14402.0	2.1454523851603965e+18
14403.0	2.1444716964872184e+18
14404.0	2.142359322519141e+18
14405.0	2.143057331879934e+18
14406.0	2.1436512553926653e+18
14407.0	2.1425991444332544e+18
14408.0	2.1427486948589565e+18
14409.0	2.1423323095236603e+18
14410.0	2.141897885325721e+18
14411.0	2.1414567619854333e+18
14412.0	2.1410108219064317e+18
14413.0	2.1405678966931456e+18
14414.0	2.140121095942963e+18
14415.0	2.1396763671789563e+18
14416.0	2.1392308800847867e+18
14417.0	2.1387819721162747e+18
14418.0	2.1383351814324221e+18
14419.0	2.1378935245766653e+18
14420.0	2.1374452608532475e+18
14421.0	2.137000533766963e+18
14422.0	2.1365434016071677e+18
14423.0	2.1360362582441981e+18
14424.0	2.1330402014658547e+18
14425.0	2.1351322884243453e+18
14426.0	2.134639944243609e+18
14427.0	2.1340911782854656e+18
14428.0	2.133631378548326e+18
14429.0	2.133202203941273e+18
14430.0	2.1327562873503744e+18
14431.0	2.1322276993499133e+18
14432.0	2.1318527403163645e+18
14433.0	2.13093748614103e+18
14434.0	2.1309579946098683e+18
14435.0	2.1305250300297216e+18
14436.0	2.1300933354848248e+18
14437.0	2.1296500998930427e+18
14438.0	2.1291909175574525e+18
14439.0	2.1287563507531773e+18
14440.0	2.1283184670932987e+18
14441.0	2.127871139538534e+18
14442.0	2.1274244931387387e+18
14443.0	2.1269553300373501e+18
14444.0	2.1265365287829496e+18
14445.0	2.126086382655897e+18
14446.0	2.124761269482291e+18
14447.0	2.1251622784991227e+18
14448.0	2.1247659301928957e+18
14449.0	2.1243262513709053e+18
14450.0	2.1238792157396987e+18
14451.0	2.123439909371904e+18
14452.0	2.1229959087390715e+18
14453.0	2.122549200263577e+18
14454.0	2.1221110364241917e+18
14455.0	2.1216624019243003e+18
14456.0	2.1212240971563008e+18
14457.0	2.1207806820483064e+18
14458.0	2.1203384363122683e+18
14459.0	2.119894294750822e+18
14460.0	2.1194506078519293e+18
14461.0	2.1189969502535677e+18
14462.0	2.1185588853997563e+18
14463.0	2.1181206208970747e+18
14464.0	2.1176826869055488e+18
14465.0	2.11722970375127e+18
14466.0	2.1167984772907005e+18
14467.0	2.1163424138395643e+18
14468.0	2.1159130446168061e+18
14469.0	2.1154597242404861e+18
14470.0	2.1150157806501883e+18
14471.0	2.1145881294143483e+18
14472.0	2.1141484086493176e+18
14473.0	2.1137109528084477e+18
14474.0	2.113271567587737e+18
14475.0	2.1127997184540664e+18
14476.0	2.112111441556275e+18
14477.0	2.11169834958848e+18
14478.0	2.111254976423526e+18
14479.0	2.110815346255462e+18
14480.0	2.1103604219772925e+18
14481.0	2.1099319302029312e+18
14482.0	2.1094865538383864e+18
14483.0	2.10904149959639e+18
14484.0	2.10859329627095e+18
14485.0	2.108130602464051e+18
14486.0	2.1075263945179136e+18
14487.0	2.1072766505582587e+18
14488.0	2.1068353359577083e+18
14489.0	2.106392855340646e+18
14490.0	2.1059580268118016e+18
14491.0	2.105517935270297e+18
14492.0	2.1050783587893245e+18
14493.0	2.1046334387650557e+18
14494.0	2.1041797140578301e+18
14495.0	2.103748472497766e+18
14496.0	2.1032273117708283e+18
14497.0	2.1028706315141115e+18
14498.0	2.1024334558527488e+18
14499.0	2.1019931243970555e+18
14500.0	2.1015514994180096e+18
14501.0	2.1010883928915965e+18
14502.0	2.1005322869014525e+18
14503.0	2.1002159743041533e+18
14504.0	2.0997844945076221e+18
14505.0	2.0993315767844861e+18
14506.0	2.0988742902743037e+18
14507.0	2.098307681746944e+18
14508.0	2.0980263613890555e+18
14509.0	2.0975911016857597e+18
14510.0	2.097149834061414e+18
14511.0	2.0967108280057853e+18
14512.0	2.0962625105952765e+18
14513.0	2.0958288933814264e+18
14514.0	2.095369133909606e+18
14515.0	2.094933382633881e+18
14516.0	2.0930207967870984e+18
14517.0	2.0940206064533501e+18
14518.0	2.0936297359081472e+18
14519.0	2.0931949694550008e+18
14520.0	2.0927569465442301e+18
14521.0	2.092317831436697e+18
14522.0	2.0918769446551547e+18
14523.0	2.0914032617717757e+18
14524.0	2.0909653311356925e+18
14525.0	2.0905568847790077e+18
14526.0	2.090122557888921e+18
14527.0	2.089661394164121e+18
14528.0	2.0891678520901627e+18
14529.0	2.0887979731976187e+18
14530.0	2.0883555261349883e+18
14531.0	2.087926051215769e+18
14532.0	2.0872117947990016e+18
14533.0	2.0867886348238843e+18
14534.0	2.086353766029721e+18
14535.0	2.0859058781159421e+18
14536.0	2.0854719505235968e+18
14537.0	2.0850291662389243e+18
14538.0	2.084597674698342e+18
14539.0	2.084159047807795e+18
14540.0	2.0837198538473467e+18
14541.0	2.0832615976140797e+18
14542.0	2.082837345442201e+18
14543.0	2.0823715495280635e+18
14544.0	2.0819544931041277e+18
14545.0	2.0814925005848573e+18
14546.0	2.0780956075950062e+18
14547.0	2.0778298934034414e+18
14548.0	2.0801661156982781e+18
14549.0	2.0796819738984445e+18
14550.0	2.079319000508006e+18
14551.0	2.0788939564515325e+18
14552.0	2.0784562523078653e+18
14553.0	2.078015422568857e+18
14554.0	2.0775814865879037e+18
14555.0	2.0771429100290045e+18
14556.0	2.0767036237938688e+18
14557.0	2.0762636060721152e+18
14558.0	2.07580680945664e+18
14559.0	2.074283359390923e+18
14560.0	2.0749282923511805e+18
14561.0	2.074506996324761e+18
14562.0	2.074056667326054e+18
14563.0	2.0736368007184381e+18
14564.0	2.073197368521523e+18
14565.0	2.072763739563622e+18
14566.0	2.0723264816939005e+18
14567.0	2.071888074584883e+18
14568.0	2.0714443457429501e+18
14569.0	2.071004836370841e+18
14570.0	2.070268328332492e+18
14571.0	2.0701305186025464e+18
14572.0	2.0696741749719037e+18
14573.0	2.069226241759641e+18
14574.0	2.0688179614973952e+18
14575.0	2.068385179788902e+18
14576.0	2.067945893553766e+18
14577.0	2.0675093101281277e+18
14578.0	2.0670772934606845e+18
14579.0	2.0666415086305275e+18
14580.0	2.0662045863051261e+18
14581.0	2.0657650148573181e+18
14582.0	2.0653298407178235e+18
14583.0	2.0648928596721661e+18
14584.0	2.0644479060934653e+18
14585.0	2.0640182566911997e+18
14586.0	2.063580252235366e+18
14587.0	2.063145046219161e+18
14588.0	2.0627088117596155e+18
14589.0	2.0622755032465403e+18
14590.0	2.0618424078041083e+18
14591.0	2.0614085355765755e+18
14592.0	2.060967296473497e+18
14593.0	2.0604650856120315e+18
14594.0	2.0601061790187515e+18
14595.0	2.0596724108099581e+18
14596.0	2.0591731074400256e+18
14597.0	2.0585027469311992e+18
14598.0	2.0581184094339067e+18
14599.0	2.0576922949910525e+18
14600.0	2.057258962989875e+18
14601.0	2.056825590723379e+18
14602.0	2.0563914483826683e+18
14603.0	2.0559572422885373e+18
14604.0	2.05549755999191e+18
14605.0	2.05508484047831e+18
14606.0	2.0546110921637883e+18
14607.0	2.0542199582162944e+18
14608.0	2.0537907852869627e+18
14609.0	2.0533559987011581e+18
14610.0	2.0529225643589627e+18
14611.0	2.0524890142539773e+18
14612.0	2.052058579678003e+18
14613.0	2.051626103314841e+18
14614.0	2.05119110030295e+18
14615.0	2.050759652383129e+18
14616.0	2.0503269210062845e+18
14617.0	2.049893030323814e+18
14618.0	2.0494547876315128e+18
14619.0	2.0489656780980221e+18
14620.0	2.0484757901017083e+18
14621.0	2.0481572729782267e+18
14622.0	2.0477250415624187e+18
14623.0	2.0472938385899515e+18
14624.0	2.0468245446262781e+18
14625.0	2.0464237923008507e+18
14626.0	2.0459954464882688e+18
14627.0	2.0455610625556475e+18
14628.0	2.0451305742925821e+18
14629.0	2.0446975174377467e+18
14630.0	2.044263510992486e+18
14631.0	2.043828407317299e+18
14632.0	2.043195973382963e+18
14633.0	2.0429180655108093e+18
14634.0	2.0425286763937787e+18
14635.0	2.042091626561536e+18
14636.0	2.0416454096584696e+18
14637.0	2.0412326012256253e+18
14638.0	2.040795865127321e+18
14639.0	2.0403549817012221e+18
14640.0	2.0399071860621307e+18
14641.0	2.0386818939682808e+18
14642.0	2.039038871181721e+18
14643.0	2.0386292000882683e+18
14644.0	2.0381890867363835e+18
14645.0	2.037751968117555e+18
14646.0	2.0373247967100925e+18
14647.0	2.036891177818521e+18
14648.0	2.0364639695011835e+18
14649.0	2.036033372186214e+18
