# Flux units: erg / (cm m2 s)
# Wavelength units: Angstrom
wave	flux
14000.0	2.316183980631654e+18
14001.0	2.315621450645504e+18
14002.0	2.3150762448125947e+18
14003.0	2.314522761101312e+18
14004.0	2.31396936295383e+18
14005.0	2.3134159950053376e+18
14006.0	2.312861435874509e+18
14007.0	2.3123086417068027e+18
14008.0	2.311736130954854e+18
14009.0	2.3112039794737147e+18
14010.0	2.310648425453977e+18
14011.0	2.309990516994867e+18
14012.0	2.3095466438688763e+18
14013.0	2.308994655007539e+18
14014.0	2.3084426778902523e+18
14015.0	2.3078904088494075e+18
14016.0	2.3073361198317563e+18
14017.0	2.306776072873574e+18
14018.0	2.306224471565926e+18
14019.0	2.3056467397443581e+18
14020.0	2.305081025442611e+18
14021.0	2.3045299576504317e+18
14022.0	2.3039790576304123e+18
14023.0	2.3034254665449467e+18
14024.0	2.3028746420223995e+18
14025.0	2.30232807220183e+18
14026.0	2.301777581545881e+18
14027.0	2.3012280421580795e+18
14028.0	2.3006782595006461e+18
14029.0	2.3001283057156088e+18
14030.0	2.2994551484448765e+18
14031.0	2.299025004114739e+18
14032.0	2.2984804056170488e+18
14033.0	2.29792128476119e+18
14034.0	2.297382363673395e+18
14035.0	2.2968255110971387e+18
14036.0	2.296274466793062e+18
14037.0	2.2956845580681213e+18
14038.0	2.2951289184845821e+18
14039.0	2.2945807665725437e+18
14040.0	2.294030349736345e+18
14041.0	2.29348408861655e+18
14042.0	2.2929352488386555e+18
14043.0	2.2923821493256187e+18
14044.0	2.2918404918738936e+18
14045.0	2.2912946032082936e+18
14046.0	2.290746751608422e+18
14047.0	2.2902006934929403e+18
14048.0	2.2896542662787072e+18
14049.0	2.2891079011401723e+18
14050.0	2.2885614940585981e+18
14051.0	2.2880134126108667e+18
14052.0	2.2874691026812923e+18
14053.0	2.2869230412103675e+18
14054.0	2.2863773823926267e+18
14055.0	2.2858317554515965e+18
14056.0	2.2852762937065467e+18
14057.0	2.284700969415475e+18
14058.0	2.284155696473702e+18
14059.0	2.283610540972441e+18
14060.0	2.2830655901532157e+18
14061.0	2.2825196293455867e+18
14062.0	2.2819761532436477e+18
14063.0	2.2814283117101048e+18
14064.0	2.2808716487163901e+18
14065.0	2.2803416178753533e+18
14066.0	2.279799034321305e+18
14067.0	2.2792516994596861e+18
14068.0	2.278711583834112e+18
14069.0	2.2781675725389821e+18
14070.0	2.2776245460664315e+18
14071.0	2.2770808803819515e+18
14072.0	2.276538291794739e+18
14073.0	2.2759953609523195e+18
14074.0	2.275452596204339e+18
14075.0	2.2749060297392123e+18
14076.0	2.2743635569147896e+18
14077.0	2.273795879678771e+18
14078.0	2.2732807470055421e+18
14079.0	2.2727117041041405e+18
14080.0	2.272159780673945e+18
14081.0	2.2716179923599357e+18
14082.0	2.2710721489928187e+18
14083.0	2.270534568404582e+18
14084.0	2.2699935216435195e+18
14085.0	2.2693876309426173e+18
14086.0	2.268908955159756e+18
14087.0	2.2683704870567933e+18
14088.0	2.2678271837601787e+18
14089.0	2.2672856924028923e+18
14090.0	2.2667482980417533e+18
14091.0	2.266208575003033e+18
14092.0	2.265668492931891e+18
14093.0	2.2651285534670843e+18
14094.0	2.2645887415091195e+18
14095.0	2.264049104034201e+18
14096.0	2.2635030375301115e+18
14097.0	2.2629668544839677e+18
14098.0	2.2624276901265403e+18
14099.0	2.2618920305295355e+18
14100.0	2.2613511330856955e+18
14101.0	2.2608145540972544e+18
14102.0	2.2602758561464315e+18
14103.0	2.259735191905894e+18
14104.0	2.259167246234419e+18
14105.0	2.2586216713027576e+18
14106.0	2.258084401093017e+18
14107.0	2.2575442888228861e+18
14108.0	2.2570061243875323e+18
14109.0	2.256470140990259e+18
14110.0	2.2559290858405883e+18
14111.0	2.2553871146549245e+18
14112.0	2.254859001449676e+18
14113.0	2.254322278177177e+18
14114.0	2.2537823689113595e+18
14115.0	2.2532484826660861e+18
14116.0	2.252696903168819e+18
14117.0	2.2519781605244928e+18
14118.0	2.2516395073863677e+18
14119.0	2.2510999638638587e+18
14120.0	2.2505642270916603e+18
14121.0	2.2500268830621693e+18
14122.0	2.249492740125491e+18
14123.0	2.2489536630095872e+18
14124.0	2.2484182030614528e+18
14125.0	2.2477968622223355e+18
14126.0	2.2473552238215165e+18
14127.0	2.246820429928857e+18
14128.0	2.2462854615531515e+18
14129.0	2.2457486879490045e+18
14130.0	2.2452134108725245e+18
14131.0	2.244665477064294e+18
14132.0	2.244110424683315e+18
14133.0	2.2434674177474552e+18
14134.0	2.2430424139563003e+18
14135.0	2.242505116903014e+18
14136.0	2.241961204593459e+18
14137.0	2.2414412551815165e+18
14138.0	2.2409054429118464e+18
14139.0	2.2403751117586427e+18
14140.0	2.239834360276582e+18
14141.0	2.2393082704035837e+18
14142.0	2.2387551893454843e+18
14143.0	2.2382346460200955e+18
14144.0	2.2377117136191483e+18
14145.0	2.2371794782519293e+18
14146.0	2.2366470012927995e+18
14147.0	2.236115049460531e+18
14148.0	2.2355824617717752e+18
14149.0	2.235050181106073e+18
14150.0	2.2345203583025147e+18
14151.0	2.233986153290137e+18
14152.0	2.2334578672795645e+18
14153.0	2.232926762696704e+18
14154.0	2.232390252494847e+18
14155.0	2.231840968120729e+18
14156.0	2.231333079849369e+18
14157.0	2.2308039868547064e+18
14158.0	2.2302727765753856e+18
14159.0	2.2297434822541312e+18
14160.0	2.22921304875991e+18
14161.0	2.2286705356701693e+18
14162.0	2.2281321095102461e+18
14163.0	2.2275930592378875e+18
14164.0	2.2270480983523323e+18
14165.0	2.2264479219712e+18
14166.0	2.2259979301945344e+18
14167.0	2.2254666813276155e+18
14168.0	2.2249394539593723e+18
14169.0	2.2244121141837824e+18
14170.0	2.223882261181235e+18
14171.0	2.223354507008409e+18
14172.0	2.2228266370727933e+18
14173.0	2.2222615871487995e+18
14174.0	2.221769321820979e+18
14175.0	2.221242456840601e+18
14176.0	2.2207141775409147e+18
14177.0	2.2201868394430464e+18
14178.0	2.219658603764121e+18
14179.0	2.2191244943818747e+18
14180.0	2.2186050818408445e+18
14181.0	2.2180780406996987e+18
14182.0	2.2175509928476672e+18
14183.0	2.2170243946250232e+18
14184.0	2.2164967310491645e+18
14185.0	2.2159712904544256e+18
14186.0	2.2154019707289592e+18
14187.0	2.2149138242076667e+18
14188.0	2.2143926198599677e+18
14189.0	2.2138657079033853e+18
14190.0	2.2133408645775355e+18
14191.0	2.2128151471587328e+18
14192.0	2.212288443239628e+18
14193.0	2.2117582328823803e+18
14194.0	2.2112391927955453e+18
14195.0	2.2107147521228795e+18
14196.0	2.210189836655001e+18
14197.0	2.2096651275468792e+18
14198.0	2.209139576222515e+18
14199.0	2.208592555094835e+18
14200.0	2.2080327094632445e+18
14201.0	2.2075308156911616e+18
14202.0	2.207007123282329e+18
14203.0	2.2064744902950902e+18
14204.0	2.2059586999549947e+18
14205.0	2.2054351434416128e+18
14206.0	2.2048879897739261e+18
14207.0	2.2043887971336187e+18
14208.0	2.2038656483065853e+18
14209.0	2.2033148472721405e+18
14210.0	2.2028025482706936e+18
14211.0	2.2022967051419645e+18
14212.0	2.2017739707121661e+18
14213.0	2.201251011467673e+18
14214.0	2.2007291611971576e+18
14215.0	2.2002046081171453e+18
14216.0	2.19968502277079e+18
14217.0	2.1991630902919165e+18
14218.0	2.198638641230643e+18
14219.0	2.19811962463191e+18
14220.0	2.1975981484933115e+18
14221.0	2.1970758771146747e+18
14222.0	2.1965482437378045e+18
14223.0	2.1960343777443832e+18
14224.0	2.1955134921637883e+18
14225.0	2.194931520739737e+18
14226.0	2.194471957561344e+18
14227.0	2.193951556842291e+18
14228.0	2.1932966682820605e+18
14229.0	2.1928939865767933e+18
14230.0	2.1923908865228792e+18
14231.0	2.1918655835013117e+18
14232.0	2.1913510984286203e+18
14233.0	2.1908314291961848e+18
14234.0	2.1903118941814784e+18
14235.0	2.189792023622451e+18
14236.0	2.1892729264930816e+18
14237.0	2.1887538511740923e+18
14238.0	2.1882350644232187e+18
14239.0	2.1877061643665405e+18
14240.0	2.1868995661529085e+18
14241.0	2.1866434132967421e+18
14242.0	2.1861249906114557e+18
14243.0	2.185575305261875e+18
14244.0	2.1850884556193787e+18
14245.0	2.1845671321534461e+18
14246.0	2.1840459798151163e+18
14247.0	2.1835345146413053e+18
14248.0	2.183014437722521e+18
14249.0	2.1824990114480123e+18
14250.0	2.181981558485811e+18
14251.0	2.1814648302993405e+18
14252.0	2.1809477078482936e+18
14253.0	2.180430602174463e+18
14254.0	2.1799134092591101e+18
14255.0	2.1793914751025152e+18
14256.0	2.1788201421111293e+18
14257.0	2.1783633119412221e+18
14258.0	2.177847954453299e+18
14259.0	2.1773284798365696e+18
14260.0	2.1768141692469245e+18
14261.0	2.1762952113684475e+18
14262.0	2.1757914150600701e+18
14263.0	2.175186012576153e+18
14264.0	2.174746097195417e+18
14265.0	2.1742443862949883e+18
14266.0	2.1737298810896384e+18
14267.0	2.1732146964070395e+18
14268.0	2.1726999244439547e+18
14269.0	2.1721846994960381e+18
14270.0	2.1716705331904504e+18
14271.0	2.1711547193622525e+18
14272.0	2.1706415378792443e+18
14273.0	2.170127180313395e+18
14274.0	2.169481777591091e+18
14275.0	2.169087420740403e+18
14276.0	2.168576336409395e+18
14277.0	2.1680663274979328e+18
14278.0	2.1675582429331453e+18
14279.0	2.1670447544270843e+18
14280.0	2.1665299304546301e+18
14281.0	2.1660184015273976e+18
14282.0	2.1655054398259195e+18
14283.0	2.16499255026647e+18
14284.0	2.164479799957913e+18
14285.0	2.163967148634931e+18
14286.0	2.1634544385916925e+18
14287.0	2.1629423644049405e+18
14288.0	2.1624137680158717e+18
14289.0	2.1617151295094776e+18
14290.0	2.161369493694054e+18
14291.0	2.1608586593435643e+18
14292.0	2.160337985155891e+18
14293.0	2.1598259126468603e+18
14294.0	2.159287144231731e+18
14295.0	2.1588006049677304e+18
14296.0	2.1581555864436733e+18
14297.0	2.1577811558924283e+18
14298.0	2.157227865119129e+18
14299.0	2.156755990819635e+18
14300.0	2.1562468778115067e+18
14301.0	2.155737328595763e+18
14302.0	2.1552271770779643e+18
14303.0	2.1547097610256381e+18
14304.0	2.1542047299141627e+18
14305.0	2.153695960838963e+18
14306.0	2.1531680053395448e+18
14307.0	2.152672037280153e+18
14308.0	2.1521667779985405e+18
14309.0	2.1516554151657464e+18
14310.0	2.151062251660902e+18
14311.0	2.150616308226457e+18
14312.0	2.150118897326489e+18
14313.0	2.1496099638345725e+18
14314.0	2.149110885279334e+18
14315.0	2.1486034684477432e+18
14316.0	2.1480845927776253e+18
14317.0	2.147576355540172e+18
14318.0	2.1470785235320824e+18
14319.0	2.1465704909766653e+18
14320.0	2.1460623359475712e+18
14321.0	2.1455545315622904e+18
14322.0	2.14503748796416e+18
14323.0	2.1445360505323515e+18
14324.0	2.1440315260927992e+18
14325.0	2.1435215121481728e+18
14326.0	2.1430165129134075e+18
14327.0	2.1425077354495995e+18
14328.0	2.1420010182279165e+18
14329.0	2.1414953244164093e+18
14330.0	2.1409885098868733e+18
14331.0	2.1404817071013888e+18
14332.0	2.139975258315161e+18
14333.0	2.139468843083366e+18
14334.0	2.1389625385811963e+18
14335.0	2.1384526907310075e+18
14336.0	2.1379406651981824e+18
14337.0	2.1374442626088955e+18
14338.0	2.136938181243699e+18
14339.0	2.136430240962969e+18
14340.0	2.135927328813875e+18
14341.0	2.135421327979315e+18
14342.0	2.134916597180006e+18
14343.0	2.134406782884249e+18
14344.0	2.133870626681651e+18
14345.0	2.133367677622681e+18
14346.0	2.1328621180289021e+18
14347.0	2.1323539344785403e+18
14348.0	2.131853203367526e+18
14349.0	2.131348933941657e+18
14350.0	2.1308393897590776e+18
14351.0	2.1303348686749693e+18
14352.0	2.1298348271075325e+18
14353.0	2.1293322035265533e+18
14354.0	2.128827487826739e+18
14355.0	2.128322656364134e+18
14356.0	2.127819633485414e+18
14357.0	2.1273173790031867e+18
14358.0	2.1268139501158395e+18
14359.0	2.126307021501235e+18
14360.0	2.1258069816115192e+18
14361.0	2.1253043781631995e+18
14362.0	2.1248016052649984e+18
14363.0	2.1242987400921083e+18
14364.0	2.123776992162611e+18
14365.0	2.1232910904328187e+18
14366.0	2.1227883712217088e+18
14367.0	2.1222888547811325e+18
14368.0	2.121786561711308e+18
14369.0	2.1212845874085883e+18
14370.0	2.1207826298830845e+18
14371.0	2.120280819997081e+18
14372.0	2.1197790570872827e+18
14373.0	2.1192774283952125e+18
14374.0	2.1187759892856827e+18
14375.0	2.1182746189627392e+18
14376.0	2.1177733660803067e+18
14377.0	2.1172721064869883e+18
14378.0	2.1167706673774587e+18
14379.0	2.116270276843929e+18
14380.0	2.1157694081597437e+18
14381.0	2.1152660581253112e+18
14382.0	2.1147678117199867e+18
14383.0	2.114262129652531e+18
14384.0	2.1137625846906875e+18
14385.0	2.113267222288793e+18
14386.0	2.1127637715910653e+18
14387.0	2.1122670770782203e+18
14388.0	2.1117667419095037e+18
14389.0	2.1112674284732416e+18
14390.0	2.1107674305265661e+18
14391.0	2.1102682261422077e+18
14392.0	2.1097671896858621e+18
14393.0	2.10926966973399e+18
14394.0	2.1087623871201275e+18
14395.0	2.1082649091112957e+18
14396.0	2.107772207575859e+18
14397.0	2.1072736155598843e+18
14398.0	2.1067734565519355e+18
14399.0	2.1062759533772797e+18
14400.0	2.1057721251921917e+18
14401.0	2.105277930484531e+18
14402.0	2.104780678968115e+18
14403.0	2.1031005464821734e+18
14404.0	2.1006477896450038e+18
14405.0	2.1030460003975153e+18
14406.0	2.102788706690662e+18
14407.0	2.1005303306780677e+18
14408.0	2.1017539484057597e+18
14409.0	2.101259874494054e+18
14410.0	2.1007643057324027e+18
14411.0	2.100268631274291e+18
14412.0	2.099770926773043e+18
14413.0	2.0992744402976765e+18
14414.0	2.098776866658713e+18
14415.0	2.098280198989414e+18
14416.0	2.0977826941370365e+18
14417.0	2.0972805604507643e+18
14418.0	2.0967804601630715e+18
14419.0	2.096293491402342e+18
14420.0	2.0957964177244155e+18
14421.0	2.0953009496260603e+18
14422.0	2.094804713131212e+18
14423.0	2.0943059046891517e+18
14424.0	2.0866492060925903e+18
14425.0	2.093314428266086e+18
14426.0	2.0928212032815101e+18
14427.0	2.092325800614297e+18
14428.0	2.0918241702445053e+18
14429.0	2.0913343225135101e+18
14430.0	2.0908395708022784e+18
14431.0	2.0903156049248253e+18
14432.0	2.0898426585612288e+18
14433.0	2.0880392202485752e+18
14434.0	2.0888563797196797e+18
14435.0	2.0883580896935933e+18
14436.0	2.0878692402069501e+18
14437.0	2.0873745354719227e+18
14438.0	2.0868376595267576e+18
14439.0	2.0863627837833216e+18
14440.0	2.0858752211091456e+18
14441.0	2.085380237872332e+18
14442.0	2.084885070086144e+18
14443.0	2.0843837215735803e+18
14444.0	2.0838979154739197e+18
14445.0	2.0834046988779517e+18
14446.0	2.0814936531795973e+18
14447.0	2.0824141821116416e+18
14448.0	2.0819237824102397e+18
14449.0	2.0814302973788157e+18
14450.0	2.0809354651369472e+18
14451.0	2.0804432954392568e+18
14452.0	2.0799489094713336e+18
14453.0	2.07942916809687e+18
14454.0	2.078963771480473e+18
14455.0	2.0784699240611835e+18
14456.0	2.0779718655606784e+18
14457.0	2.0774758270369787e+18
14458.0	2.0769889857830904e+18
14459.0	2.0764952306384893e+18
14460.0	2.076005668120166e+18
14461.0	2.0755057456709627e+18
14462.0	2.074999974684262e+18
14463.0	2.074526462928486e+18
14464.0	2.074037252731699e+18
14465.0	2.0735421352771581e+18
14466.0	2.073053921647001e+18
14467.0	2.0725407451971584e+18
14468.0	2.072068303827763e+18
14469.0	2.0715737567985661e+18
14470.0	2.071081177736806e+18
14471.0	2.070592079947366e+18
14472.0	2.0701017792315384e+18
14473.0	2.0696131193274363e+18
14474.0	2.0691218992201725e+18
14475.0	2.068629518129561e+18
14476.0	2.0680542122934267e+18
14477.0	2.0676482506424317e+18
14478.0	2.067156963426304e+18
14479.0	2.0666607067987965e+18
14480.0	2.0661604437721088e+18
14481.0	2.06567337099264e+18
14482.0	2.065181981435494e+18
14483.0	2.06468972281856e+18
14484.0	2.0642001888215037e+18
14485.0	2.063689669882675e+18
14486.0	2.063128396510003e+18
14487.0	2.062698404852531e+18
14488.0	2.062201052672819e+18
14489.0	2.0617153573027837e+18
14490.0	2.0612262578356221e+18
14491.0	2.0607373546618877e+18
14492.0	2.0602475572625405e+18
14493.0	2.0597572263477243e+18
14494.0	2.059262959498035e+18
14495.0	2.0587776198049787e+18
14496.0	2.0582598799523837e+18
14497.0	2.057797900854886e+18
14498.0	2.0573079759486973e+18
14499.0	2.056818737230643e+18
14500.0	2.0563290656604155e+18
14501.0	2.0557969024352256e+18
14502.0	2.0552680527101947e+18
14503.0	2.0548560562946045e+18
14504.0	2.054370412933939e+18
14505.0	2.053842126923366e+18
14506.0	2.053301690852966e+18
14507.0	2.0528540629860347e+18
14508.0	2.0524147834617853e+18
14509.0	2.051925704127283e+18
14510.0	2.0514366650580987e+18
14511.0	2.0509476763205627e+18
14512.0	2.0504552767750136e+18
14513.0	2.0499698515181563e+18
14514.0	2.0494698720264187e+18
14515.0	2.0489916139962363e+18
14516.0	2.0480930514731013e+18
14517.0	2.0480147639500797e+18
14518.0	2.04752620135383e+18
14519.0	2.0470376941223933e+18
14520.0	2.0465491566919675e+18
14521.0	2.0460602501627901e+18
14522.0	2.045572103641497e+18
14523.0	2.044989070219673e+18
14524.0	2.0444955046576125e+18
14525.0	2.044105761541324e+18
14526.0	2.043618611586662e+18
14527.0	2.0431240544911355e+18
14528.0	2.0426149196726267e+18
14529.0	2.0421515447107581e+18
14530.0	2.0416621231210496e+18
14531.0	2.0411769545555963e+18
14532.0	2.0405531021672443e+18
14533.0	2.0402007688871933e+18
14534.0	2.0397130887725053e+18
14535.0	2.0392225363984381e+18
14536.0	2.0387369265922043e+18
14537.0	2.0382463456968701e+18
14538.0	2.0377608600420347e+18
14539.0	2.0372731782496248e+18
14540.0	2.0367852548653053e+18
14541.0	2.036292622116454e+18
14542.0	2.0358094366179325e+18
14543.0	2.0352596824817661e+18
14544.0	2.0348335646834683e+18
14545.0	2.0343449182011384e+18
14546.0	2.0264983988273103e+18
14547.0	2.0268475830239165e+18
14548.0	2.0328795139473405e+18
14549.0	2.0323699781533693e+18
14550.0	2.0319055244165117e+18
14551.0	2.031419176412774e+18
14552.0	2.0309303906795515e+18
14553.0	2.0304415143493627e+18
14554.0	2.0299557669699581e+18
14555.0	2.029467659036262e+18
14556.0	2.0289775982346237e+18
14557.0	2.0284923424276475e+18
14558.0	2.0280043536121848e+18
14559.0	2.0272087495081974e+18
14560.0	2.027021789246259e+18
14561.0	2.0265398486171643e+18
14562.0	2.0260478802460664e+18
14563.0	2.025565647693414e+18
14564.0	2.025074929224908e+18
14565.0	2.0245903713501181e+18
14566.0	2.0241026509701112e+18
14567.0	2.023614668865536e+18
14568.0	2.0231197628039168e+18
14569.0	2.0226394394984445e+18
14570.0	2.022063777985331e+18
14571.0	2.0216634182467581e+18
14572.0	2.0211660258017277e+18
14573.0	2.0206788053827576e+18
14574.0	2.0201922644410363e+18
14575.0	2.0197116425011192e+18
14576.0	2.0191953203232763e+18
14577.0	2.0187056638525437e+18
14578.0	2.0182185424191483e+18
14579.0	2.0177305066274816e+18
14580.0	2.0172422292439035e+18
14581.0	2.0167504538107901e+18
14582.0	2.0162651980038144e+18
14583.0	2.0157767293599744e+18
14584.0	2.0152854186557437e+18
14585.0	2.0147994414284792e+18
14586.0	2.0143100013838333e+18
14587.0	2.0138200093687803e+18
14588.0	2.0133339734212603e+18
14589.0	2.0128610639675387e+18
14590.0	2.01238971982807e+18
14591.0	2.0119177918414843e+18
14592.0	2.0114462212095997e+18
14593.0	2.0109507883433981e+18
14594.0	2.0105029859934205e+18
14595.0	2.0100297057632248e+18
14596.0	2.0095382893625344e+18
14597.0	2.0090704751493115e+18
14598.0	2.0086135359275005e+18
14599.0	2.0081426179293181e+18
14600.0	2.007669718541926e+18
14601.0	2.0071974298451965e+18
14602.0	2.0067220054867963e+18
14603.0	2.0062516008714235e+18
14604.0	2.0057695612567552e+18
14605.0	2.005302421487616e+18
14606.0	2.0048143739518973e+18
14607.0	2.004346658724249e+18
14608.0	2.0038730295279616e+18
14609.0	2.0033910805102587e+18
14610.0	2.0029212060549115e+18
14611.0	2.002451514471219e+18
14612.0	2.0019795613188093e+18
14613.0	2.0015057626726397e+18
14614.0	2.0010307795550205e+18
14615.0	2.0005560128634875e+18
14616.0	2.0000822276390907e+18
14617.0	1.9996072344551421e+18
14618.0	1.999127857384652e+18
14619.0	1.998647960220467e+18
14620.0	1.9981374832246781e+18
14621.0	1.9977057635139581e+18
14622.0	1.9972299297914877e+18
14623.0	1.996753837699891e+18
14624.0	1.996265218061107e+18
14625.0	1.9958007509024765e+18
14626.0	1.99532125135831e+18
14627.0	1.9948409565741053e+18
14628.0	1.9943690252320765e+18
14629.0	1.9938913258831864e+18
14630.0	1.9934130007441403e+18
14631.0	1.9929343652265981e+18
14632.0	1.9918835897335808e+18
14633.0	1.9919182732722173e+18
14634.0	1.9914974436524027e+18
14635.0	1.9909978735247355e+18
14636.0	1.9904602409271296e+18
14637.0	1.9900608626556925e+18
14638.0	1.9895801937395707e+18
14639.0	1.9890983252525048e+18
14640.0	1.9886188491964416e+18
14641.0	1.985936321675262e+18
14642.0	1.9876356976279547e+18
14643.0	1.987155474985779e+18
14644.0	1.9866712560107515e+18
14645.0	1.9861872870162427e+18
14646.0	1.9857050745962493e+18
14647.0	1.9852226356838397e+18
14648.0	1.9847442501468155e+18
