# Flux units: erg / (cm m2 s)
# Wavelength units: Angstrom
wave	flux
14000.0	2.1409767775797243e+18
14001.0	2.1405933879951357e+18
14002.0	2.14023706509312e+18
14003.0	2.139811026147737e+18
14004.0	2.139383796020019e+18
14005.0	2.1389561162629115e+18
14006.0	2.1385223212105728e+18
14007.0	2.1380922473447421e+18
14008.0	2.13758990394327e+18
14009.0	2.1372403691028477e+18
14010.0	2.1368035054977021e+18
14011.0	2.1358784148406272e+18
14012.0	2.1359594756374525e+18
14013.0	2.1355367401259003e+18
14014.0	2.1351049180741627e+18
14015.0	2.1346815265734653e+18
14016.0	2.134256702298521e+18
14017.0	2.1338302237900795e+18
14018.0	2.1334035808649216e+18
14019.0	2.1329771644321787e+18
14020.0	2.1325500601335805e+18
14021.0	2.1321229659013115e+18
14022.0	2.1316942207909883e+18
14023.0	2.13125600158679e+18
14024.0	2.1308301891338235e+18
14025.0	2.130418737977753e+18
14026.0	2.1299923601326077e+18
14027.0	2.12956801400832e+18
14028.0	2.129135643341619e+18
14029.0	2.128708158200217e+18
14030.0	2.127155975474381e+18
14031.0	2.12778988077056e+18
14032.0	2.1274360576737277e+18
14033.0	2.1269728387399677e+18
14034.0	2.1265882713948157e+18
14035.0	2.1261661901946877e+18
14036.0	2.1257378930360315e+18
14037.0	2.1253178318127101e+18
14038.0	2.124893475622092e+18
14039.0	2.1244651381981184e+18
14040.0	2.1240379835678715e+18
14041.0	2.1235995999469565e+18
14042.0	2.1231679959990272e+18
14043.0	2.1227204620845048e+18
14044.0	2.1223201275117563e+18
14045.0	2.1219033915326461e+18
14046.0	2.1214770321424381e+18
14047.0	2.1210483642073088e+18
14048.0	2.1206332791062528e+18
14049.0	2.120211372389171e+18
14050.0	2.1197881771819008e+18
14051.0	2.1193576234876928e+18
14052.0	2.1189375538757624e+18
14053.0	2.118518786175795e+18
14054.0	2.1180960875741181e+18
14055.0	2.1176732916645883e+18
14056.0	2.1172505544753147e+18
14057.0	2.116827976669593e+18
14058.0	2.1164054559064064e+18
14059.0	2.1159830324510717e+18
14060.0	2.1155606727491581e+18
14061.0	2.115132880584704e+18
14062.0	2.114715956700774e+18
14063.0	2.1142792491237373e+18
14064.0	2.113684305556275e+18
14065.0	2.1134429317496835e+18
14066.0	2.113028752618291e+18
14067.0	2.1125986435203064e+18
14068.0	2.1121856320831483e+18
14069.0	2.111761869805977e+18
14070.0	2.1113419679662075e+18
14071.0	2.1109193213739003e+18
14072.0	2.1105005872283645e+18
14073.0	2.1100795277606902e+18
14074.0	2.1096584649375736e+18
14075.0	2.1092207406612477e+18
14076.0	2.108805346859417e+18
14077.0	2.1081401369559037e+18
14078.0	2.107954064208691e+18
14079.0	2.1075451162132475e+18
14080.0	2.1071347304103933e+18
14081.0	2.1067147631394816e+18
14082.0	2.106292765825433e+18
14083.0	2.1058727918436347e+18
14084.0	2.1054505529376765e+18
14085.0	2.1047162947239933e+18
14086.0	2.1045877325955064e+18
14087.0	2.1041939931463677e+18
14088.0	2.1037628388278267e+18
14089.0	2.1033483979718653e+18
14090.0	2.102934197030092e+18
14091.0	2.102517892225433e+18
14092.0	2.102099070838374e+18
14093.0	2.101679934039654e+18
14094.0	2.1012605187391483e+18
14095.0	2.1008396454985725e+18
14096.0	2.1003784045985787e+18
14097.0	2.0999742683086843e+18
14098.0	2.0995641509412856e+18
14099.0	2.099165985662566e+18
14100.0	2.098739270595379e+18
14101.0	2.0983314819055608e+18
14102.0	2.0979132946972664e+18
14103.0	2.0974836083851261e+18
14104.0	2.0970749254696955e+18
14105.0	2.0966596289757184e+18
14106.0	2.0962419769606144e+18
14107.0	2.0958237343875072e+18
14108.0	2.0953956435886072e+18
14109.0	2.0949846219292672e+18
14110.0	2.0945681795514365e+18
14111.0	2.0941441740046333e+18
14112.0	2.0937287902691328e+18
14113.0	2.0933144517541888e+18
14114.0	2.0928884060979192e+18
14115.0	2.0924785034788861e+18
14116.0	2.0920099644899325e+18
14117.0	2.0896502289268736e+18
14118.0	2.091214558357094e+18
14119.0	2.0907779816423421e+18
14120.0	2.0903733739126776e+18
14121.0	2.0899667998932987e+18
14122.0	2.0895503038283773e+18
14123.0	2.089130039600742e+18
14124.0	2.0887090052988925e+18
14125.0	2.087915518479564e+18
14126.0	2.0878966474670075e+18
14127.0	2.0874897798463483e+18
14128.0	2.0870741327085565e+18
14129.0	2.0866474713284603e+18
14130.0	2.086190587471462e+18
14131.0	2.085794963940966e+18
14132.0	2.085369320937881e+18
14133.0	2.084493070434303e+18
14134.0	2.0845432510873597e+18
14135.0	2.08411555790848e+18
14136.0	2.0836950957096952e+18
14137.0	2.0832967593033725e+18
14138.0	2.0828715223089152e+18
14139.0	2.08247415898112e+18
14140.0	2.082054483633766e+18
14141.0	2.0816119208083448e+18
14142.0	2.0811062085419005e+18
14143.0	2.0808101359779837e+18
14144.0	2.0804047296528381e+18
14145.0	2.0799921359683581e+18
14146.0	2.0795745678393336e+18
14147.0	2.0791629640105976e+18
14148.0	2.0787475332988925e+18
14149.0	2.078334510117683e+18
14150.0	2.0779254379708416e+18
14151.0	2.0775041956315133e+18
14152.0	2.0770991382724605e+18
14153.0	2.076685895309721e+18
14154.0	2.0762490367377405e+18
14155.0	2.075823638682009e+18
14156.0	2.0754414251802621e+18
14157.0	2.0750340609540096e+18
14158.0	2.0746180581392381e+18
14159.0	2.0742088232534008e+18
14160.0	2.0737874886393856e+18
14161.0	2.07333266334679e+18
14162.0	2.0728777625567227e+18
14163.0	2.0725518030602235e+18
14164.0	2.0720842639933435e+18
14165.0	2.0716874090151933e+18
14166.0	2.0713191004700672e+18
14167.0	2.0708976870031352e+18
14168.0	2.0704973306200061e+18
14169.0	2.070088745012428e+18
14170.0	2.0696739803561981e+18
14171.0	2.0692637254156283e+18
14172.0	2.068854681790054e+18
14173.0	2.0684134242320384e+18
14174.0	2.0680263302381565e+18
14175.0	2.0676216772100093e+18
14176.0	2.0672109894172667e+18
14177.0	2.066800227804774e+18
14178.0	2.066388607198822e+18
14179.0	2.065973000326348e+18
14180.0	2.0655683321987067e+18
14181.0	2.065157860832051e+18
14182.0	2.064746733476249e+18
14183.0	2.0643367402602493e+18
14184.0	2.063921217273856e+18
14185.0	2.0635097912836093e+18
14186.0	2.0627326991597565e+18
14187.0	2.0626584281022461e+18
14188.0	2.0622815531106301e+18
14189.0	2.061873462430924e+18
14190.0	2.0614644976582653e+18
14191.0	2.0610535296860155e+18
14192.0	2.060639088830054e+18
14193.0	2.0601782841376763e+18
14194.0	2.0598266202685437e+18
14195.0	2.059421520966451e+18
14196.0	2.0590126803451901e+18
14197.0	2.0586038044917755e+18
14198.0	2.0581906890358781e+18
14199.0	2.0577834640605181e+18
14200.0	2.0571569340284928e+18
14201.0	2.0569486566359035e+18
14202.0	2.0565600979910653e+18
14203.0	2.056146071532339e+18
14204.0	2.0557415191674872e+18
14205.0	2.0553328026976253e+18
14206.0	2.0546933542092797e+18
14207.0	2.0543774962745344e+18
14208.0	2.053970772937932e+18
14209.0	2.0534459933655035e+18
14210.0	2.0530702709686272e+18
14211.0	2.0527422680072187e+18
14212.0	2.0523389923885053e+18
14213.0	2.0519308815761403e+18
14214.0	2.0515237237096445e+18
14215.0	2.0511072008011773e+18
14216.0	2.0507098609614843e+18
14217.0	2.0503025101570043e+18
14218.0	2.0498838347317243e+18
14219.0	2.0494878253252603e+18
14220.0	2.0490786525151227e+18
14221.0	2.0486710936731645e+18
14222.0	2.0482450379505661e+18
14223.0	2.0478586855096315e+18
14224.0	2.0472993532608512e+18
14225.0	2.0462119430389763e+18
14226.0	2.0464489715466237e+18
14227.0	2.046054569397452e+18
14228.0	2.044089353424077e+18
14229.0	2.0449421242138606e+18
14230.0	2.044836993145241e+18
14231.0	2.0444189703536637e+18
14232.0	2.0440265881812987e+18
14233.0	2.0436174673805307e+18
14234.0	2.0432143209463803e+18
14235.0	2.0428060473950205e+18
14236.0	2.042401991635763e+18
14237.0	2.04199467941888e+18
14238.0	2.0415887043461115e+18
14239.0	2.0411733172551677e+18
14240.0	2.0394664972517379e+18
14241.0	2.0403532955910136e+18
14242.0	2.039959036048179e+18
14243.0	2.0394250071965693e+18
14244.0	2.0390082594734075e+18
14245.0	2.038592776752332e+18
14246.0	2.038185461180006e+18
14247.0	2.037788185093734e+18
14248.0	2.0373744069378045e+18
14249.0	2.036980214503833e+18
14250.0	2.0365748266336253e+18
14251.0	2.0361716919435261e+18
14252.0	2.0357662487085048e+18
14253.0	2.035359870982553e+18
14254.0	2.0349519614967803e+18
14255.0	2.034514210376908e+18
14256.0	2.0334398377295872e+18
14257.0	2.03364284539863e+18
14258.0	2.0333314703359997e+18
14259.0	2.0329117127802875e+18
14260.0	2.032501645744537e+18
14261.0	2.0320998867861501e+18
14262.0	2.0317309725835261e+18
14263.0	2.0303079207337987e+18
14264.0	2.0306295735189496e+18
14265.0	2.03051817280471e+18
14266.0	2.030104473501696e+18
14267.0	2.0295745399685115e+18
14268.0	2.029171007658393e+18
14269.0	2.0287584273956861e+18
14270.0	2.0283623995342843e+18
14271.0	2.027956624110387e+18
14272.0	2.027548880719052e+18
14273.0	2.0271196524249083e+18
14274.0	2.0251064502583299e+18
14275.0	2.0261304207933437e+18
14276.0	2.0259161052807163e+18
14277.0	2.0255237902172155e+18
14278.0	2.0251330404679675e+18
14279.0	2.0247298067922936e+18
14280.0	2.0243223653908475e+18
14281.0	2.023925745293721e+18
14282.0	2.0235231793512443e+18
14283.0	2.0231203365847035e+18
14284.0	2.0227174569082877e+18
14285.0	2.0223142836305915e+18
14286.0	2.0219107664199677e+18
14287.0	2.0215084085149693e+18
14288.0	2.0211011298525181e+18
14289.0	2.0198610855526385e+18
14290.0	2.0202961405739003e+18
14291.0	2.0198980256268288e+18
14292.0	2.019351705786777e+18
14293.0	2.0189386792501245e+18
14294.0	2.018418179545497e+18
14295.0	2.018117681152e+18
14296.0	2.0170550793994243e+18
14297.0	2.0173160473165821e+18
14298.0	2.0166394742046717e+18
14299.0	2.016507972707942e+18
14300.0	2.0161169411014653e+18
14301.0	2.015718540941721e+18
14302.0	2.0153186945859581e+18
14303.0	2.0148847485386747e+18
14304.0	2.014500194615296e+18
14305.0	2.0141104934420477e+18
14306.0	2.0136910361985021e+18
14307.0	2.0132917787230203e+18
14308.0	2.012897089683456e+18
14309.0	2.0124849271734264e+18
14310.0	2.0120196110876672e+18
14311.0	2.0116081850974203e+18
14312.0	2.0112349004300288e+18
14313.0	2.01081527205888e+18
14314.0	2.0104849823629312e+18
14315.0	2.010094383608627e+18
14316.0	2.0096524700614648e+18
14317.0	2.0092751320186875e+18
14318.0	2.0088997116116987e+18
14319.0	2.0084677620531197e+18
14320.0	2.007936984625971e+18
14321.0	2.007534418683494e+18
14322.0	2.0071025563664381e+18
14323.0	2.0067181685374973e+18
14324.0	2.006336866038579e+18
14325.0	2.0059272469544955e+18
14326.0	2.0055369267019773e+18
14327.0	2.0051304298577917e+18
14328.0	2.0047311572828155e+18
14329.0	2.004336862507827e+18
14330.0	2.0039369658204155e+18
14331.0	2.003536840962867e+18
14332.0	2.0031372261326843e+18
14333.0	2.0027374720516093e+18
14334.0	2.0023376475062272e+18
14335.0	2.0019269093818363e+18
14336.0	2.0014653799137277e+18
14337.0	2.0011354643496955e+18
14338.0	2.000736612882841e+18
14339.0	2.0003288090935293e+18
14340.0	1.999939554194227e+18
14341.0	1.9995377314824187e+18
14342.0	1.9991399755677696e+18
14343.0	1.9987407449358333e+18
14344.0	1.9983389675225083e+18
14345.0	1.997944343914086e+18
14346.0	1.9975411052052477e+18
14347.0	1.9971242148757501e+18
14348.0	1.9967442059001853e+18
14349.0	1.9963485974691835e+18
14350.0	1.9958924786532347e+18
14351.0	1.9954618947600381e+18
14352.0	1.9949913190170621e+18
14353.0	1.994599960254873e+18
14354.0	1.99419474518999e+18
14355.0	1.9937824635617272e+18
14356.0	1.9933880396021755e+18
14357.0	1.9930070005055483e+18
14358.0	1.9926089442787325e+18
14359.0	1.9921954479800315e+18
14360.0	1.991807219846348e+18
14361.0	1.9914112691601405e+18
14362.0	1.9910154409476093e+18
14363.0	1.9906155912364027e+18
14364.0	1.9900385640579072e+18
14365.0	1.9897692528312317e+18
14366.0	1.989391341007667e+18
14367.0	1.9890259735085053e+18
14368.0	1.9886281555181568e+18
14369.0	1.9882310253936637e+18
14370.0	1.9878336083787773e+18
14371.0	1.9874363339702264e+18
14372.0	1.9870338317811707e+18
14373.0	1.9866410570219517e+18
14374.0	1.986243695371878e+18
14375.0	1.985845382453657e+18
14376.0	1.9854492790947835e+18
14377.0	1.9850514829148155e+18
14378.0	1.9846525072965627e+18
14379.0	1.9842576873947133e+18
14380.0	1.9838597737742333e+18
14381.0	1.9834523273396221e+18
14382.0	1.9830652618670075e+18
14383.0	1.9826667945983997e+18
14384.0	1.9822550984949755e+18
14385.0	1.981876482028339e+18
14386.0	1.9814623129632765e+18
14387.0	1.981082954943692e+18
14388.0	1.980612864062259e+18
14389.0	1.9801356780961787e+18
14390.0	1.9797374222204925e+18
14391.0	1.9793423808593917e+18
14392.0	1.9789446668877821e+18
14393.0	1.978548972892979e+18
14394.0	1.9781159529480187e+18
14395.0	1.9777439735480315e+18
14396.0	1.977358778735001e+18
14397.0	1.976962527736627e+18
14398.0	1.9765654462660605e+18
14399.0	1.9761687926145021e+18
14400.0	1.9757556402487293e+18
14401.0	1.97536790872064e+18
14402.0	1.974970127640166e+18
14403.0	1.9738169490538483e+18
14404.0	1.9708038583681009e+18
14405.0	1.9723799737925599e+18
14406.0	1.9733781174812672e+18
14407.0	1.971971763994624e+18
14408.0	1.9725698616786941e+18
14409.0	1.9721891782590461e+18
14410.0	1.9717983932776443e+18
14411.0	1.971415720080179e+18
14412.0	1.9710188936232955e+18
14413.0	1.9706267178106877e+18
14414.0	1.9702289216307197e+18
14415.0	1.9698343181549565e+18
14416.0	1.9694367400787965e+18
14417.0	1.9690300687515643e+18
14418.0	1.968627606827827e+18
14419.0	1.968250335893913e+18
14420.0	1.967851960899993e+18
14421.0	1.9674591626526717e+18
14422.0	1.9670539257774075e+18
14423.0	1.966611164980838e+18
14424.0	1.9620568085037033e+18
14425.0	1.965826180854579e+18
14426.0	1.9654799846801405e+18
14427.0	1.965091563608473e+18
14428.0	1.9646766781562877e+18
14429.0	1.9642132260192253e+18
14430.0	1.963751362684518e+18
14431.0	1.9630519826251773e+18
14432.0	1.962953705049292e+18
14433.0	1.961788411635302e+18
14434.0	1.9621526466723837e+18
14435.0	1.961741188805427e+18
14436.0	1.9613845957902333e+18
14437.0	1.9609924753424381e+18
14438.0	1.9605517462667261e+18
14439.0	1.9601937640980477e+18
14440.0	1.9598090759569403e+18
14441.0	1.9594091943690237e+18
14442.0	1.95901019694039e+18
14443.0	1.9585800425439227e+18
14444.0	1.9582259224903677e+18
14445.0	1.9578311545978875e+18
14446.0	1.9560776587018243e+18
14447.0	1.9570181609095165e+18
14448.0	1.9566533504139261e+18
14449.0	1.956260860867379e+18
14450.0	1.955861256103526e+18
14451.0	1.9554685820076035e+18
14452.0	1.955075834091929e+18
14453.0	1.9546723521134587e+18
14454.0	1.9542887494582272e+18
14455.0	1.953886264046387e+18
14456.0	1.9534938130874363e+18
14457.0	1.9531000316952573e+18
14458.0	1.952705802351411e+18
14459.0	1.952306504610611e+18
14460.0	1.9519040577863677e+18
14461.0	1.9514697627729915e+18
14462.0	1.9510392661213181e+18
14463.0	1.950706218251059e+18
14464.0	1.9503356565258235e+18
14465.0	1.949930649498419e+18
14466.0	1.949557457105715e+18
14467.0	1.949143586675097e+18
14468.0	1.9487711391907837e+18
14469.0	1.9483483365703677e+18
14470.0	1.9479621217026045e+18
14471.0	1.947591710972313e+18
14472.0	1.9472026121011197e+18
14473.0	1.9468141289537528e+18
14474.0	1.9464242566529021e+18
14475.0	1.9460286230560765e+18
14476.0	1.9455901572268035e+18
14477.0	1.9452449844625403e+18
14478.0	1.944828726634086e+18
14479.0	1.9443090171363325e+18
14480.0	1.943899819160371e+18
14481.0	1.943524393720217e+18
14482.0	1.9431272635957243e+18
14483.0	1.9427283869630456e+18
14484.0	1.9423318557851643e+18
14485.0	1.941912700531507e+18
14486.0	1.9412802514976765e+18
14487.0	1.941162495574016e+18
14488.0	1.9407524771921915e+18
14489.0	1.940351146052812e+18
14490.0	1.9399791280652283e+18
14491.0	1.939593661461299e+18
14492.0	1.9392025191251963e+18
14493.0	1.938800500119961e+18
14494.0	1.938395605499904e+18
14495.0	1.9380203914526712e+18
14496.0	1.937505574191104e+18
14497.0	1.9372362377986045e+18
14498.0	1.936845771584307e+18
14499.0	1.9364532551942136e+18
14500.0	1.9360598043131904e+18
14501.0	1.9356370738348027e+18
14502.0	1.935060580171776e+18
14503.0	1.9348423337574397e+18
14504.0	1.934432100627251e+18
14505.0	1.9340202753392637e+18
14506.0	1.933604564448051e+18
14507.0	1.9330317298958336e+18
14508.0	1.932867264525107e+18
14509.0	1.932477004670566e+18
14510.0	1.932082040484659e+18
14511.0	1.9316917957296125e+18
14512.0	1.9312855790649344e+18
14513.0	1.9309061086380032e+18
14514.0	1.9304837355143165e+18
14515.0	1.9301138012569597e+18
14516.0	1.9275931470266383e+18
14517.0	1.929313546508697e+18
14518.0	1.928944357159731e+18
14519.0	1.928554353996595e+18
14520.0	1.928162746931609e+18
14521.0	1.9277702120865787e+18
14522.0	1.9273748754464765e+18
14523.0	1.9269117521428477e+18
14524.0	1.9265367058677755e+18
14525.0	1.9261963011883005e+18
14526.0	1.9258078801166333e+18
14527.0	1.9253962964205565e+18
14528.0	1.924907909985075e+18
14529.0	1.9246238012538877e+18
14530.0	1.9242257332830203e+18
14531.0	1.9238481872027643e+18
14532.0	1.9233919224250365e+18
14533.0	1.9230653539155965e+18
14534.0	1.922676696285184e+18
14535.0	1.9221363256459261e+18
14536.0	1.9217435777302525e+18
14537.0	1.9213441491271675e+18
14538.0	1.920963318068019e+18
14539.0	1.920571226141491e+18
14540.0	1.9201788037038077e+18
14541.0	1.9197630173151224e+18
14542.0	1.919390501044224e+18
14543.0	1.9189567009587192e+18
14544.0	1.9186040673665021e+18
14545.0	1.9181949364994045e+18
14546.0	1.9129124874354655e+18
14547.0	1.9128800520437727e+18
14548.0	1.917010270434099e+18
14549.0	1.916530660160307e+18
14550.0	1.9162443787796477e+18
14551.0	1.9158641667997693e+18
14552.0	1.91547168564183e+18
14553.0	1.915074329024921e+18
14554.0	1.9146886996819965e+18
14555.0	1.9142960255860728e+18
14556.0	1.91390242874327e+18
14557.0	1.913510014694195e+18
14558.0	1.913108510749491e+18
14559.0	1.9111457476050916e+18
14560.0	1.912319011874406e+18
14561.0	1.911933634189721e+18
14562.0	1.9115208056242173e+18
14563.0	1.911150572732416e+18
14564.0	1.9107433527902208e+18
14565.0	1.9103725880606723e+18
14566.0	1.9099811135356925e+18
14567.0	1.9095861510275072e+18
14568.0	1.90918001992663e+18
14569.0	1.9087983365849083e+18
14570.0	1.9079668443381752e+18
14571.0	1.9080128088768507e+18
14572.0	1.9075865132400637e+18
14573.0	1.907181512923545e+18
14574.0	1.9067979522113533e+18
14575.0	1.9064348546695158e+18
14576.0	1.906041886972313e+18
14577.0	1.9056590376140792e+18
14578.0	1.9052715476779005e+18
14579.0	1.9048825125601275e+18
14580.0	1.904490348491571e+18
14581.0	1.9040921546915837e+18
14582.0	1.903699002445004e+18
14583.0	1.9033122892939261e+18
14584.0	1.9029002794565627e+18
14585.0	1.9025263891316733e+18
14586.0	1.9021321883090941e+18
14587.0	1.9017419502649341e+18
14588.0	1.9013502928683005e+18
14589.0	1.9009624187338747e+18
14590.0	1.9005746603622397e+18
14591.0	1.9001842897780733e+18
14592.0	1.8997901912965117e+18
14593.0	1.8992998469599227e+18
14594.0	1.8990204610150397e+18
14595.0	1.8986252451708925e+18
14596.0	1.8980813295058941e+18
14597.0	1.8976600183799808e+18
14598.0	1.8974480416112637e+18
14599.0	1.8970676819918843e+18
14600.0	1.8965506182610941e+18
14601.0	1.8961623951605755e+18
14602.0	1.8957699307798525e+18
14603.0	1.895382727734067e+18
14604.0	1.8949503419678717e+18
14605.0	1.8945815435280381e+18
14606.0	1.8941501207740416e+18
14607.0	1.8938219852726272e+18
14608.0	1.893437055539609e+18
14609.0	1.8930430543659003e+18
14610.0	1.8926402384429053e+18
14611.0	1.89226216891351e+18
14612.0	1.891884183270195e+18
14613.0	1.891498448230809e+18
14614.0	1.8911076112400381e+18
14615.0	1.8907213594623997e+18
14616.0	1.8903338779148283e+18
14617.0	1.8899441331208184e+18
14618.0	1.889543909277696e+18
14619.0	1.8890064880730107e+18
14620.0	1.888341336889753e+18
14621.0	1.888383509777612e+18
14622.0	1.887994630687948e+18
14623.0	1.88760833696727e+18
14624.0	1.8871644067987456e+18
14625.0	1.8868250574061563e+18
14626.0	1.8864384482738173e+18
14627.0	1.8860457003581437e+18
14628.0	1.8856600978587643e+18
14629.0	1.8852694823272445e+18
14630.0	1.8848762982039547e+18
14631.0	1.884487838544691e+18
14632.0	1.8837634738552832e+18
14633.0	1.8836512309247997e+18
14634.0	1.8833110477045752e+18
14635.0	1.8828835592077302e+18
14636.0	1.8824115171360763e+18
14637.0	1.8821462911614973e+18
14638.0	1.8817449348562936e+18
14639.0	1.8813450432020475e+18
14640.0	1.8809581857669117e+18
14641.0	1.8792685808648182e+18
14642.0	1.880173349280153e+18
14643.0	1.8797957461573627e+18
14644.0	1.879392698708787e+18
14645.0	1.878993892540416e+18
14646.0	1.878606119069286e+18
14647.0	1.8781998269071355e+18
14648.0	1.877826907983052e+18
