# Flux units: erg / (cm m2 s)
# Wavelength units: Angstrom
wave	flux
14000.0	1.9306558143856635e+18
14001.0	1.9301709511655424e+18
14002.0	1.9297046435463168e+18
14003.0	1.9292325662425088e+18
14004.0	1.9287597356417016e+18
14005.0	1.928286353070489e+18
14006.0	1.9278098465816573e+18
14007.0	1.9273344725549053e+18
14008.0	1.9268327851425787e+18
14009.0	1.926389848185241e+18
14010.0	1.925911283132006e+18
14011.0	1.9252812550504445e+18
14012.0	1.9249696719503355e+18
14013.0	1.9244955193049088e+18
14014.0	1.9240199271743483e+18
14015.0	1.9235485964566525e+18
14016.0	1.9230762674946045e+18
14017.0	1.92260372210647e+18
14018.0	1.9221279336824827e+18
14019.0	1.9216594332811261e+18
14020.0	1.9211866731446264e+18
14021.0	1.920715032048435e+18
14022.0	1.9202423306321917e+18
14023.0	1.9197512682307581e+18
14024.0	1.919290745395609e+18
14025.0	1.9188288451510264e+18
14026.0	1.918357193988505e+18
14027.0	1.9178849522679803e+18
14028.0	1.91741373227991e+18
14029.0	1.9169404386279421e+18
14030.0	1.9157438087299075e+18
14031.0	1.9159943361855483e+18
14032.0	1.9155324728508408e+18
14033.0	1.9150390884827133e+18
14034.0	1.914592596433305e+18
14035.0	1.914122131419955e+18
14036.0	1.9136524415139837e+18
14037.0	1.9131742556258304e+18
14038.0	1.9127112900280317e+18
14039.0	1.912240992786841e+18
14040.0	1.91176904802304e+18
14041.0	1.911303112858009e+18
14042.0	1.910832550536806e+18
14043.0	1.9103555726082045e+18
14044.0	1.909895380284211e+18
14045.0	1.9094282220601341e+18
14046.0	1.9089592837734397e+18
14047.0	1.908487766828646e+18
14048.0	1.9080230580781053e+18
14049.0	1.9075570742591488e+18
14050.0	1.9070893053444096e+18
14051.0	1.9066177934327805e+18
14052.0	1.906152408560435e+18
14053.0	1.905685379520921e+18
14054.0	1.9052196423270397e+18
14055.0	1.9047484676374525e+18
14056.0	1.904285589281177e+18
14057.0	1.9038178103001083e+18
14058.0	1.903351611732787e+18
14059.0	1.902885777231052e+18
14060.0	1.9024192313753597e+18
14061.0	1.9019506890309627e+18
14062.0	1.9014871748182016e+18
14063.0	1.9010163339952125e+18
14064.0	1.9004643065462781e+18
14065.0	1.9000858058424315e+18
14066.0	1.899620264941977e+18
14067.0	1.899130177296793e+18
14068.0	1.8986915772497912e+18
14069.0	1.898224242864947e+18
14070.0	1.8977612705562621e+18
14071.0	1.8972954712866813e+18
14072.0	1.896830960507289e+18
14073.0	1.8963647569068027e+18
14074.0	1.8959033130024952e+18
14075.0	1.8954327590699005e+18
14076.0	1.89494653353984e+18
14077.0	1.894328539755315e+18
14078.0	1.8940332288770043e+18
14079.0	1.8935805879779328e+18
14080.0	1.8931203973316603e+18
14081.0	1.892656874730291e+18
14082.0	1.8921799370670075e+18
14083.0	1.8917297053761533e+18
14084.0	1.8912674997862397e+18
14085.0	1.8906082189508603e+18
14086.0	1.8903278129512443e+18
14087.0	1.8898794988961787e+18
14088.0	1.8894116309958653e+18
14089.0	1.888927234182348e+18
14090.0	1.8884889730351104e+18
14091.0	1.8880308677967864e+18
14092.0	1.887568554832691e+18
14093.0	1.8871072149471224e+18
14094.0	1.8866457978863616e+18
14095.0	1.8861845485977597e+18
14096.0	1.8856837101125632e+18
14097.0	1.8852338676531192e+18
14098.0	1.8847674425933821e+18
14099.0	1.8843371170693115e+18
14100.0	1.8838707440189435e+18
14101.0	1.8834170277003261e+18
14102.0	1.8829552499294205e+18
14103.0	1.8824925762551805e+18
14104.0	1.8820353182662653e+18
14105.0	1.8815672708497403e+18
14106.0	1.8811163613593597e+18
14107.0	1.880629374143692e+18
14108.0	1.8801906918883325e+18
14109.0	1.8797361367089147e+18
14110.0	1.8792660558938107e+18
14111.0	1.878793616202137e+18
14112.0	1.878356083186073e+18
14113.0	1.8778839370956803e+18
14114.0	1.8774238890557435e+18
14115.0	1.876980629975859e+18
14116.0	1.8764476446670843e+18
14117.0	1.8749336686952453e+18
14118.0	1.8756066128953336e+18
14119.0	1.87512956953559e+18
14120.0	1.8746732779143165e+18
14121.0	1.8742264637423616e+18
14122.0	1.8737625233883133e+18
14123.0	1.8732700634447872e+18
14124.0	1.8728115974963197e+18
14125.0	1.872269537391411e+18
14126.0	1.871936679103692e+18
14127.0	1.8714921516662784e+18
14128.0	1.8710348785778688e+18
14129.0	1.8705750436085755e+18
14130.0	1.870114718744576e+18
14131.0	1.86966334284759e+18
14132.0	1.86920687674327e+18
14133.0	1.868594402662809e+18
14134.0	1.8682951290060792e+18
14135.0	1.8678306803023872e+18
14136.0	1.8672790605398008e+18
14137.0	1.8669269520744443e+18
14138.0	1.8664547019653112e+18
14139.0	1.8660177427300347e+18
14140.0	1.865542544864051e+18
14141.0	1.8651066878918653e+18
14142.0	1.8645287094452221e+18
14143.0	1.8641001421733883e+18
14144.0	1.8637438813470715e+18
14145.0	1.863289233892966e+18
14146.0	1.8628334992752637e+18
14147.0	1.8623795749191675e+18
14148.0	1.861919276898713e+18
14149.0	1.861460572713779e+18
14150.0	1.861018483005849e+18
14151.0	1.8605475381641213e+18
14152.0	1.8601119664046077e+18
14153.0	1.8596592416194555e+18
14154.0	1.8591980359516155e+18
14155.0	1.857784610868429e+18
14156.0	1.858264078535884e+18
14157.0	1.8578447940976637e+18
14158.0	1.857378457957171e+18
14159.0	1.8569411497558013e+18
14160.0	1.8564895389777917e+18
14161.0	1.856017728431718e+18
14162.0	1.8555540900675581e+18
14163.0	1.8551334047318013e+18
14164.0	1.8546364921151488e+18
14165.0	1.8540240230678528e+18
14166.0	1.8537763695493115e+18
14167.0	1.8533230223294467e+18
14168.0	1.8528637896622075e+18
14169.0	1.8524248154832893e+18
14170.0	1.8519667672875003e+18
14171.0	1.8515123916242944e+18
14172.0	1.8510724561108987e+18
14173.0	1.850529266899353e+18
14174.0	1.850164986563788e+18
14175.0	1.8497191941242877e+18
14176.0	1.849249234105139e+18
14177.0	1.8488131791618043e+18
14178.0	1.848366510951628e+18
14179.0	1.8478995624427515e+18
14180.0	1.8474699516280827e+18
14181.0	1.8470204833005565e+18
14182.0	1.846570927731507e+18
14183.0	1.846121950976409e+18
14184.0	1.8456713736749053e+18
14185.0	1.845223628367462e+18
14186.0	1.8445467029340163e+18
14187.0	1.8443193934675965e+18
14188.0	1.8438767568224253e+18
14189.0	1.8434252349636605e+18
14190.0	1.8429795482206203e+18
14191.0	1.842530423826022e+18
14192.0	1.8420821869461504e+18
14193.0	1.8415989980921853e+18
14194.0	1.8411871493160952e+18
14195.0	1.8407420917186555e+18
14196.0	1.8402946718892032e+18
14197.0	1.83984687457239e+18
14198.0	1.8393988104978424e+18
14199.0	1.8389465789628413e+18
14200.0	1.8383758096859133e+18
14201.0	1.838057718703718e+18
14202.0	1.8376123003961341e+18
14203.0	1.837144464372531e+18
14204.0	1.8367165598007293e+18
14205.0	1.8362729332998136e+18
14206.0	1.8357913483476987e+18
14207.0	1.8353818618036221e+18
14208.0	1.834936077752729e+18
14209.0	1.834447719838515e+18
14210.0	1.8340208554541053e+18
14211.0	1.8335973012144125e+18
14212.0	1.8331539850919933e+18
14213.0	1.8327006630379515e+18
14214.0	1.8322639202287608e+18
14215.0	1.831810364971417e+18
14216.0	1.8313739006640128e+18
14217.0	1.830929703737753e+18
14218.0	1.8304817604591613e+18
14219.0	1.8300392731312125e+18
14220.0	1.8295957959475197e+18
14221.0	1.8291460071751677e+18
14222.0	1.8286629793824768e+18
14223.0	1.8282554440286203e+18
14224.0	1.827819375663513e+18
14225.0	1.8270244359372797e+18
14226.0	1.8269324984713213e+18
14227.0	1.8264890128990205e+18
14228.0	1.8252680593932288e+18
14229.0	1.825506047557631e+18
14230.0	1.8251604704624637e+18
14231.0	1.824675618986393e+18
14232.0	1.8242751602622461e+18
14233.0	1.8238299852242941e+18
14234.0	1.8233903802220541e+18
14235.0	1.8229470439669752e+18
14236.0	1.8225027430219776e+18
14237.0	1.8220624702865405e+18
14238.0	1.8216200584560635e+18
14239.0	1.821174365002137e+18
14240.0	1.8203610257031168e+18
14241.0	1.8202961331093504e+18
14242.0	1.8198562529607677e+18
14243.0	1.819370488804147e+18
14244.0	1.8189746857574397e+18
14245.0	1.818527507519897e+18
14246.0	1.8180790240149504e+18
14247.0	1.8176496849911803e+18
14248.0	1.8172073302032381e+18
14249.0	1.8167701746745341e+18
14250.0	1.8163308431409152e+18
14251.0	1.8158909713809403e+18
14252.0	1.8154510845214715e+18
14253.0	1.8150116154146813e+18
14254.0	1.8145712554377213e+18
14255.0	1.8141244496543741e+18
14256.0	1.813525758056857e+18
14257.0	1.8132512526041088e+18
14258.0	1.8128148755382272e+18
14259.0	1.812355241895526e+18
14260.0	1.81193189401559e+18
14261.0	1.8114911146082304e+18
14262.0	1.8110605508476925e+18
14263.0	1.8103676870590467e+18
14264.0	1.8101486688927744e+18
14265.0	1.809716315003289e+18
14266.0	1.8093069576437755e+18
14267.0	1.808867891190169e+18
14268.0	1.808430272610304e+18
14269.0	1.8079906994847744e+18
14270.0	1.8075559246430203e+18
14271.0	1.807115235832627e+18
14272.0	1.806678130635571e+18
14273.0	1.8062445620756475e+18
14274.0	1.8054467534454781e+18
14275.0	1.8053389027901437e+18
14276.0	1.8049097567043581e+18
14277.0	1.8044827329363965e+18
14278.0	1.8040588196642813e+18
14279.0	1.80362184532951e+18
14280.0	1.8031839197265915e+18
14281.0	1.8027501162856443e+18
14282.0	1.8023142324699133e+18
14283.0	1.8018783855640576e+18
14284.0	1.801442691330867e+18
14285.0	1.8010070876946427e+18
14286.0	1.8005699757867003e+18
14287.0	1.8001343184633856e+18
14288.0	1.7997002751082496e+18
14289.0	1.7990248294252534e+18
14290.0	1.79882662339543e+18
14291.0	1.7983952073523195e+18
14292.0	1.7979610163576832e+18
14293.0	1.797526620681011e+18
14294.0	1.7970470422839293e+18
14295.0	1.796650172206284e+18
14296.0	1.7960287726469115e+18
14297.0	1.7957905579900925e+18
14298.0	1.7951975924563965e+18
14299.0	1.7949117338615805e+18
14300.0	1.79448623178711e+18
14301.0	1.794043455891046e+18
14302.0	1.7936205710622715e+18
14303.0	1.7931726730821627e+18
14304.0	1.7927511975395325e+18
14305.0	1.7923202378366976e+18
14306.0	1.7918369919401981e+18
14307.0	1.7914423112892413e+18
14308.0	1.791022151080345e+18
14309.0	1.7905847153721344e+18
14310.0	1.7899399518617597e+18
14311.0	1.7894698844684285e+18
14312.0	1.789258110704025e+18
14313.0	1.7888427135467517e+18
14314.0	1.7884249357025275e+18
14315.0	1.7879981132611581e+18
14316.0	1.7875535069708288e+18
14317.0	1.7870413136658424e+18
14318.0	1.7867053616594944e+18
14319.0	1.7862747307900928e+18
14320.0	1.7858444220432381e+18
14321.0	1.7854124305416187e+18
14322.0	1.7849690271776765e+18
14323.0	1.7845479945535488e+18
14324.0	1.784112110737817e+18
14325.0	1.7836879776841725e+18
14326.0	1.783260990826086e+18
14327.0	1.7828261018992635e+18
14328.0	1.7823985110614016e+18
14329.0	1.7819713010663421e+18
14330.0	1.781541264110387e+18
14331.0	1.7811060849377275e+18
14332.0	1.7806809469288443e+18
14333.0	1.7802527303008253e+18
14334.0	1.7798239180816381e+18
14335.0	1.77937977484247e+18
14336.0	1.7789197570015224e+18
14337.0	1.7785355772100603e+18
14338.0	1.7781062314754048e+18
14339.0	1.77767349003223e+18
14340.0	1.777249895527219e+18
14341.0	1.7768166742556672e+18
14342.0	1.7763910463520765e+18
14343.0	1.775954692774297e+18
14344.0	1.7755292762636288e+18
14345.0	1.7751058679857147e+18
14346.0	1.7746780758212605e+18
14347.0	1.7742337564213248e+18
14348.0	1.7738197786165248e+18
14349.0	1.773396586764697e+18
14350.0	1.772942085272371e+18
14351.0	1.7725137914691581e+18
14352.0	1.772112259003187e+18
14353.0	1.7716883406979072e+18
14354.0	1.7712593858723835e+18
14355.0	1.770830167644569e+18
14356.0	1.7704056403263485e+18
14357.0	1.769982728654028e+18
14358.0	1.7695565571686397e+18
14359.0	1.7691253894283261e+18
14360.0	1.7687031270342653e+18
14361.0	1.7682785460289533e+18
14362.0	1.7678532352147453e+18
14363.0	1.7674275016146941e+18
14364.0	1.76689454818263e+18
14365.0	1.7665644027707387e+18
14366.0	1.7661355955847165e+18
14367.0	1.7657264781393915e+18
14368.0	1.765301596821913e+18
14369.0	1.7648773949816827e+18
14370.0	1.7644526227161085e+18
14371.0	1.764028274914099e+18
14372.0	1.7635996942204925e+18
14373.0	1.763179441736908e+18
14374.0	1.7627537651793915e+18
14375.0	1.7623309894025213e+18
14376.0	1.761907425096499e+18
14377.0	1.7614838641459195e+18
14378.0	1.7610595045998587e+18
14379.0	1.7606368932397053e+18
14380.0	1.760213426241536e+18
14381.0	1.7597863521419261e+18
14382.0	1.7593656517066747e+18
14383.0	1.7589275180662781e+18
14384.0	1.7585135838822397e+18
14385.0	1.7580984618713085e+18
14386.0	1.7576701059923963e+18
14387.0	1.7572527509340157e+18
14388.0	1.756829455063449e+18
14389.0	1.7564080751509504e+18
14390.0	1.7559858446335997e+18
14391.0	1.7555607250796541e+18
14392.0	1.7551242322509824e+18
14393.0	1.7547208727461885e+18
14394.0	1.7542875306786813e+18
14395.0	1.7536983584735227e+18
14396.0	1.7534475474829307e+18
14397.0	1.7530350880161784e+18
14398.0	1.7525970533613563e+18
14399.0	1.7521897612771323e+18
14400.0	1.7516201680830461e+18
14401.0	1.75134869595095e+18
14402.0	1.7509285256757243e+18
14403.0	1.747549507131796e+18
14404.0	1.7426201463226353e+18
14405.0	1.7493296838344689e+18
14406.0	1.7492488327528443e+18
14407.0	1.7443352844697618e+18
14408.0	1.7483683678126077e+18
14409.0	1.7479810372599803e+18
14410.0	1.7475566508703741e+18
14411.0	1.7471430237093888e+18
14412.0	1.7467294267473917e+18
14413.0	1.7463106624028664e+18
14414.0	1.7458916916985856e+18
14415.0	1.7454734558363643e+18
14416.0	1.7450470947684347e+18
14417.0	1.744600694993715e+18
14418.0	1.744180751210905e+18
14419.0	1.7437964590120957e+18
14420.0	1.743376644413849e+18
14421.0	1.7429598715248637e+18
14422.0	1.7425400552488957e+18
14423.0	1.7421209016729595e+18
14424.0	1.7241205796503434e+18
14425.0	1.7412861848453115e+18
14426.0	1.740869571339878e+18
14427.0	1.7404530501091328e+18
14428.0	1.7400158006280187e+18
14429.0	1.7396176840032253e+18
14430.0	1.7392012969902075e+18
14431.0	1.7386214512394235e+18
14432.0	1.738351131702067e+18
14433.0	1.7345960300511206e+18
14434.0	1.7375297057849336e+18
14435.0	1.7370892216565757e+18
14436.0	1.7367011529064448e+18
14437.0	1.7362848799784957e+18
14438.0	1.7357578136715267e+18
14439.0	1.7354275944398843e+18
14440.0	1.7350363547959293e+18
14441.0	1.7346180719575037e+18
14442.0	1.7342023241564157e+18
14443.0	1.7337764680826875e+18
14444.0	1.7333726354604024e+18
14445.0	1.7329579429462013e+18
14446.0	1.729063375654094e+18
14447.0	1.7321232764502013e+18
14448.0	1.7317127161643003e+18
14449.0	1.7312985202556925e+18
14450.0	1.7308817993760765e+18
14451.0	1.7304678870024184e+18
14452.0	1.7300522247651325e+18
14453.0	1.729567344767795e+18
14454.0	1.729223317887385e+18
14455.0	1.7288090397704187e+18
14456.0	1.7283810529902587e+18
14457.0	1.7279542473261053e+18
14458.0	1.727451232835993e+18
14459.0	1.7271201126678525e+18
14460.0	1.7267407647145984e+18
14461.0	1.7263122075090936e+18
14462.0	1.7256976077553661e+18
14463.0	1.7254978649325565e+18
14464.0	1.7250884454973437e+18
14465.0	1.7246713840402432e+18
14466.0	1.7242598942965757e+18
14467.0	1.723799436892569e+18
14468.0	1.723432853045248e+18
14469.0	1.7230149074288637e+18
14470.0	1.7226047648956416e+18
14471.0	1.7221942096429053e+18
14472.0	1.7217845670707197e+18
14473.0	1.7213767666368512e+18
14474.0	1.7209654127886333e+18
14475.0	1.7205505978007547e+18
14476.0	1.719922220597248e+18
14477.0	1.7197302355591163e+18
14478.0	1.719317841523507e+18
14479.0	1.7189024124895227e+18
14480.0	1.7184921827147776e+18
14481.0	1.7180865750630397e+18
14482.0	1.7176744343633915e+18
14483.0	1.717260099203891e+18
14484.0	1.7168529765695485e+18
14485.0	1.7164307091423224e+18
14486.0	1.7159472719855613e+18
14487.0	1.7156212604796925e+18
14488.0	1.7151541660090365e+18
14489.0	1.714784020358758e+18
14490.0	1.7143791492268032e+18
14491.0	1.7139830374793213e+18
14492.0	1.7135692408684541e+18
14493.0	1.7131508858879997e+18
14494.0	1.7127462915801085e+18
14495.0	1.7123455342215165e+18
14496.0	1.7118966933618688e+18
14497.0	1.7115264554369016e+18
14498.0	1.7111167138791424e+18
14499.0	1.7107092691222523e+18
14500.0	1.7103004771549181e+18
14501.0	1.7097846549381115e+18
14502.0	1.7092943307341821e+18
14503.0	1.7090551731978237e+18
14504.0	1.7086647002726397e+18
14505.0	1.7081558288564216e+18
14506.0	1.7076148810809341e+18
14507.0	1.7073713446911997e+18
14508.0	1.7070327636951037e+18
14509.0	1.7066248474984448e+18
14510.0	1.706216880970137e+18
14511.0	1.705810152600371e+18
14512.0	1.7053978390953981e+18
14513.0	1.704994964452147e+18
14514.0	1.7045279773556739e+18
14515.0	1.704175108882432e+18
14516.0	1.703193339756544e+18
14517.0	1.7033675292016637e+18
14518.0	1.7029604552212472e+18
14519.0	1.702553832547942e+18
14520.0	1.7021477148688381e+18
14521.0	1.7017368660148221e+18
14522.0	1.7013312298418176e+18
14523.0	1.7006695733526523e+18
14524.0	1.7002691632824315e+18
14525.0	1.700115638334259e+18
14526.0	1.6997099635736576e+18
14527.0	1.6992622048444416e+18
14528.0	1.6987930669088765e+18
14529.0	1.6984917346877435e+18
14530.0	1.698083555088793e+18
14531.0	1.697683515795046e+18
14532.0	1.6967771434778621e+18
14533.0	1.696873682934169e+18
14534.0	1.696469487924019e+18
14535.0	1.6960601204981757e+18
14536.0	1.6956583229521915e+18
14537.0	1.695250423532748e+18
14538.0	1.6948477820927997e+18
14539.0	1.6944464593420285e+18
14540.0	1.694042588132147e+18
14541.0	1.6936310916775933e+18
14542.0	1.6932336696295421e+18
14543.0	1.6926762617274365e+18
14544.0	1.6924264473034747e+18
14545.0	1.6920150817112061e+18
14546.0	1.6742528787152788e+18
14547.0	1.6758038769696635e+18
14548.0	1.6908078419017723e+18
14549.0	1.69037530178519e+18
14550.0	1.6900042132553725e+18
14551.0	1.689604182350233e+18
14552.0	1.689192420815667e+18
14553.0	1.688787232594329e+18
14554.0	1.6883960248270848e+18
14555.0	1.68799214019543e+18
14556.0	1.687584475657011e+18
14557.0	1.6871887061647357e+18
14558.0	1.6867860731133947e+18
14559.0	1.6857991030505454e+18
14560.0	1.6858408296644605e+18
14561.0	1.6855796084113403e+18
14562.0	1.6851671439114235e+18
14563.0	1.6847780936941563e+18
14564.0	1.6843566600945661e+18
14565.0	1.6839759615754237e+18
14566.0	1.6835746673459197e+18
14567.0	1.6831725694877693e+18
14568.0	1.6826694073581565e+18
14569.0	1.6823700800143357e+18
14570.0	1.6818124556861437e+18
14571.0	1.6815686240174075e+18
14572.0	1.681132000326451e+18
14573.0	1.6807484010266621e+18
14574.0	1.6803110978584576e+18
14575.0	1.6799617492451323e+18
14576.0	1.679564067150233e+18
14577.0	1.6791628198969341e+18
14578.0	1.678761836045926e+18
14579.0	1.6783612464594944e+18
14580.0	1.6779631801663485e+18
14581.0	1.677536161431552e+18
14582.0	1.6771626955702272e+18
14583.0	1.6767643893628925e+18
14584.0	1.6763594309894141e+18
14585.0	1.675965300631142e+18
14586.0	1.6755654777634808e+18
14587.0	1.6751622877085693e+18
14588.0	1.674768004677632e+18
14589.0	1.674385571394355e+18
14590.0	1.674003463589069e+18
14591.0	1.6736164148936696e+18
14592.0	1.6732362247241728e+18
14593.0	1.6728195088777213e+18
14594.0	1.672473539195699e+18
14595.0	1.6720907972116475e+18
14596.0	1.6716152805785597e+18
14597.0	1.6712416654000123e+18
14598.0	1.670942421942272e+18
14599.0	1.670567144141619e+18
14600.0	1.6701821204561915e+18
14601.0	1.6698031550234621e+18
14602.0	1.6693926199033853e+18
14603.0	1.6690262189277184e+18
14604.0	1.6686389286404096e+18
14605.0	1.6682493667180541e+18
14606.0	1.6678349896155128e+18
14607.0	1.667517547911577e+18
14608.0	1.667131270968115e+18
14609.0	1.6667155953090552e+18
14610.0	1.666317404864512e+18
14611.0	1.665992634872627e+18
14612.0	1.6656152901189632e+18
14613.0	1.6652360562507776e+18
14614.0	1.6648542806343677e+18
14615.0	1.664437729204633e+18
14616.0	1.6640954723205115e+18
14617.0	1.663715689837363e+18
14618.0	1.6632962778923003e+18
14619.0	1.6629073384046584e+18
14620.0	1.662329296204595e+18
14621.0	1.6621953066467325e+18
14622.0	1.66181481784279e+18
14623.0	1.6614364211576832e+18
14624.0	1.661039460483072e+18
14625.0	1.6606766213103613e+18
14626.0	1.660288770664038e+18
14627.0	1.6599054918090747e+18
14628.0	1.6595404346884093e+18
14629.0	1.659161455833907e+18
14630.0	1.6587814384697341e+18
14631.0	1.658398272022118e+18
14632.0	1.6565490520424453e+18
14633.0	1.6574823383695352e+18
14634.0	1.6572621508313085e+18
14635.0	1.6560434672828357e+18
14636.0	1.6534263289610235e+18
14637.0	1.6561324234375165e+18
14638.0	1.6557363720880125e+18
14639.0	1.6553702412255224e+18
14640.0	1.654996003612262e+18
14641.0	1.6490352936484815e+18
14642.0	1.6542395894071293e+18
14643.0	1.6538625063780347e+18
14644.0	1.6534799506210816e+18
14645.0	1.653099091040665e+18
14646.0	1.6526966962257915e+18
14647.0	1.6523233746485248e+18
