# Flux units: erg / (cm m2 s)
# Wavelength units: Angstrom
wave	flux
14000.0	1.7038514008883195e+18
14001.0	1.7040725094957053e+18
14002.0	1.7040265214689275e+18
14003.0	1.7037444142596093e+18
14004.0	1.7034495328780285e+18
14005.0	1.7031610587152381e+18
14006.0	1.7028546748743677e+18
14007.0	1.7025566024663035e+18
14008.0	1.7021237217722363e+18
14009.0	1.701965203924582e+18
14010.0	1.7016612192255997e+18
14011.0	1.7006045498966013e+18
14012.0	1.7010776975867904e+18
14013.0	1.7008005094572032e+18
14014.0	1.7005008230809597e+18
14015.0	1.700210877556326e+18
14016.0	1.6999182912978944e+18
14017.0	1.699623931687731e+18
14018.0	1.6992792840503293e+18
14019.0	1.6990342343557115e+18
14020.0	1.6987384520376315e+18
14021.0	1.698442055673446e+18
14022.0	1.6981390608302077e+18
14023.0	1.6978331282964475e+18
14024.0	1.6975375271723003e+18
14025.0	1.6972605219143677e+18
14026.0	1.6969666505211904e+18
14027.0	1.6966716550545405e+18
14028.0	1.6963628066406397e+18
14029.0	1.696034167822745e+18
14030.0	1.6925785931644946e+18
14031.0	1.695104461753548e+18
14032.0	1.6951710069030907e+18
14033.0	1.6948407406952443e+18
14034.0	1.6946065592811515e+18
14035.0	1.694319123628032e+18
14036.0	1.6939959709597693e+18
14037.0	1.6937298440486912e+18
14038.0	1.6934461866246136e+18
14039.0	1.6931484497608704e+18
14040.0	1.6928573298311163e+18
14041.0	1.6925656260542461e+18
14042.0	1.6922617470517243e+18
14043.0	1.6919340259475453e+18
14044.0	1.691645165908787e+18
14045.0	1.6913596160147453e+18
14046.0	1.691095779193651e+18
14047.0	1.690789727541657e+18
14048.0	1.6905099037114365e+18
14049.0	1.6902229562753021e+18
14050.0	1.689930707238912e+18
14051.0	1.6896269809090552e+18
14052.0	1.689340516656742e+18
14053.0	1.6890533360173053e+18
14054.0	1.6887610903363581e+18
14055.0	1.68846874902528e+18
14056.0	1.6881764026810363e+18
14057.0	1.687884180488192e+18
14058.0	1.687591822399897e+18
14059.0	1.6872494715633661e+18
14060.0	1.6870072823840768e+18
14061.0	1.6867065507872763e+18
14062.0	1.68642087003095e+18
14063.0	1.686098480726016e+18
14064.0	1.6851062493282304e+18
14065.0	1.685531615507251e+18
14066.0	1.6852526791917563e+18
14067.0	1.68495290557399e+18
14068.0	1.684671078544179e+18
14069.0	1.684376755843891e+18
14070.0	1.684087483085619e+18
14071.0	1.683795059566182e+18
14072.0	1.683507409164697e+18
14073.0	1.6832158865817597e+18
14074.0	1.6829237163982843e+18
14075.0	1.682609326469939e+18
14076.0	1.6823200235126784e+18
14077.0	1.6813173533310979e+18
14078.0	1.681679860314931e+18
14079.0	1.6814510627094525e+18
14080.0	1.681155438097203e+18
14081.0	1.6808836186767357e+18
14082.0	1.680595941431705e+18
14083.0	1.680300539956428e+18
14084.0	1.6799947366072315e+18
14085.0	1.6791819744444408e+18
14086.0	1.6793396920188925e+18
14087.0	1.6791054837612541e+18
14088.0	1.6788323976609795e+18
14089.0	1.678556333604864e+18
14090.0	1.67826756248535e+18
14091.0	1.6779838949949432e+18
14092.0	1.677695011468083e+18
14093.0	1.677404706911027e+18
14094.0	1.677113093731123e+18
14095.0	1.6768156638904315e+18
14096.0	1.6764355139862528e+18
14097.0	1.6761779350667261e+18
14098.0	1.6759037450256381e+18
14099.0	1.6756595425804288e+18
14100.0	1.6753611027513341e+18
14101.0	1.6750881038925821e+18
14102.0	1.6747968564559867e+18
14103.0	1.6744903132315648e+18
14104.0	1.6742176465616893e+18
14105.0	1.6739319809048576e+18
14106.0	1.6736427148574715e+18
14107.0	1.6733150155636733e+18
14108.0	1.673043234730803e+18
14109.0	1.6727686185484285e+18
14110.0	1.6724819244482557e+18
14111.0	1.6721871907061757e+18
14112.0	1.6718911567298557e+18
14113.0	1.6716059289583613e+18
14114.0	1.6712979395379195e+18
14115.0	1.670994870874931e+18
14116.0	1.6704573691396093e+18
14117.0	1.6645555019055107e+18
14118.0	1.6700237452148733e+18
14119.0	1.669768312101273e+18
14120.0	1.669511613985587e+18
14121.0	1.6692599070916605e+18
14122.0	1.668954608736665e+18
14123.0	1.6686834302058493e+18
14124.0	1.6683836247113725e+18
14125.0	1.6676242308726784e+18
14126.0	1.6678477520437248e+18
14127.0	1.6675752732786685e+18
14128.0	1.66729228526551e+18
14129.0	1.6669938890571768e+18
14130.0	1.66668788605911e+18
14131.0	1.666420973974323e+18
14132.0	1.6661200309846013e+18
14133.0	1.665246102447718e+18
14134.0	1.6655139691560957e+18
14135.0	1.665259002449101e+18
14136.0	1.6649746504482813e+18
14137.0	1.664684954904166e+18
14138.0	1.664377364781465e+18
14139.0	1.6641279161008125e+18
14140.0	1.663832491137433e+18
14141.0	1.6634458853605376e+18
14142.0	1.6629888152764413e+18
14143.0	1.6629623609622525e+18
14144.0	1.662697727223398e+18
14145.0	1.6624135664828413e+18
14146.0	1.66211466863575e+18
14147.0	1.661839849449062e+18
14148.0	1.6615527459848192e+18
14149.0	1.6612706840739837e+18
14150.0	1.660987182678016e+18
14151.0	1.660695198721638e+18
14152.0	1.6604149051293693e+18
14153.0	1.6601310497341437e+18
14154.0	1.6598152773631995e+18
14155.0	1.659447943574323e+18
14156.0	1.65926136751063e+18
14157.0	1.6589862463340544e+18
14158.0	1.6586970155188221e+18
14159.0	1.658414626452275e+18
14160.0	1.6581111786242043e+18
14161.0	1.657776989903257e+18
14162.0	1.65743630001111e+18
14163.0	1.65721841598464e+18
14164.0	1.6568520988950525e+18
14165.0	1.6566643148718077e+18
14166.0	1.6564114704826368e+18
14167.0	1.656113879580672e+18
14168.0	1.6558419393642493e+18
14169.0	1.6555572014874621e+18
14170.0	1.6552734098456576e+18
14171.0	1.6549892524605437e+18
14172.0	1.6547079354580987e+18
14173.0	1.6544028350742525e+18
14174.0	1.6541285158486008e+18
14175.0	1.6538523410628605e+18
14176.0	1.6535698345558013e+18
14177.0	1.6532853332377597e+18
14178.0	1.6530003185369085e+18
14179.0	1.6527115323179003e+18
14180.0	1.6524314350190587e+18
14181.0	1.6521466518437885e+18
14182.0	1.651860538235289e+18
14183.0	1.6515750000852992e+18
14184.0	1.6512795080130557e+18
14185.0	1.6509675742691328e+18
14186.0	1.6497728603291643e+18
14187.0	1.6503186265210877e+18
14188.0	1.6501292369182715e+18
14189.0	1.649854441219686e+18
14190.0	1.6495785952673792e+18
14191.0	1.6492912585998333e+18
14192.0	1.6489921795588093e+18
14193.0	1.6485810169708544e+18
14194.0	1.6484427005689856e+18
14195.0	1.6481707452530688e+18
14196.0	1.6478887470956544e+18
14197.0	1.6476053597847547e+18
14198.0	1.6473148807446525e+18
14199.0	1.6470246516850685e+18
14200.0	1.646129478159565e+18
14201.0	1.6463600356950013e+18
14202.0	1.646179034700185e+18
14203.0	1.645900709075353e+18
14204.0	1.6456196957405181e+18
14205.0	1.645333640852275e+18
14206.0	1.644918037335244e+18
14207.0	1.644768691591577e+18
14208.0	1.6444905303834621e+18
14209.0	1.6440602333806587e+18
14210.0	1.6438107830222843e+18
14211.0	1.6436357412945915e+18
14212.0	1.6433632893730813e+18
14213.0	1.6430814606655485e+18
14214.0	1.642798761220505e+18
14215.0	1.6424977142120448e+18
14216.0	1.6422343236648952e+18
14217.0	1.641954310252134e+18
14218.0	1.6416577343717379e+18
14219.0	1.6413876312604672e+18
14220.0	1.6410982293176323e+18
14221.0	1.6408218582384637e+18
14222.0	1.640518594959769e+18
14223.0	1.6402506728865792e+18
14224.0	1.6399477401190397e+18
14225.0	1.637555594330113e+18
14226.0	1.63927546700759e+18
14227.0	1.6390635774803965e+18
14228.0	1.6328596582826e+18
14229.0	1.63717104208445e+18
14230.0	1.6382591183618048e+18
14231.0	1.6379856329637885e+18
14232.0	1.6377240560336893e+18
14233.0	1.6374443748098048e+18
14234.0	1.6371659183226877e+18
14235.0	1.636882512556851e+18
14236.0	1.6366043345715197e+18
14237.0	1.6363182813609981e+18
14238.0	1.6360346038042621e+18
14239.0	1.6357210359595003e+18
14240.0	1.6333864209219584e+18
14241.0	1.63512600011735e+18
14242.0	1.6348929310326781e+18
14243.0	1.634466492789555e+18
14244.0	1.6343550937530368e+18
14245.0	1.6340697737068541e+18
14246.0	1.6337750366093312e+18
14247.0	1.6334948889788413e+18
14248.0	1.6331982342455296e+18
14249.0	1.6329343454150653e+18
14250.0	1.632656617059123e+18
14251.0	1.6323778267054075e+18
14252.0	1.632094362219315e+18
14253.0	1.631802660120166e+18
14254.0	1.6315129310216192e+18
14255.0	1.6311433323085821e+18
14256.0	1.628906062033716e+18
14257.0	1.6301562062176246e+18
14258.0	1.6303704630099963e+18
14259.0	1.630091729698816e+18
14260.0	1.629758492246016e+18
14261.0	1.6295159658446848e+18
14262.0	1.6292083371343872e+18
14263.0	1.6260054407708685e+18
14264.0	1.627465706163404e+18
14265.0	1.628374970872627e+18
14266.0	1.6281589138849792e+18
14267.0	1.627893884203827e+18
14268.0	1.6276139714543616e+18
14269.0	1.6273296060317693e+18
14270.0	1.6270573017497597e+18
14271.0	1.6267659385503741e+18
14272.0	1.626457283074457e+18
14273.0	1.626001011585843e+18
14274.0	1.6209307087405066e+18
14275.0	1.6247471697035261e+18
14276.0	1.6252950213033981e+18
14277.0	1.6250807158571005e+18
14278.0	1.624826237367091e+18
14279.0	1.6245533593042941e+18
14280.0	1.6242737787437053e+18
14281.0	1.6240049959993341e+18
14282.0	1.6237283665510397e+18
14283.0	1.623450748924723e+18
14284.0	1.6231571291897856e+18
14285.0	1.6228748290424824e+18
14286.0	1.6225940388446203e+18
14287.0	1.6223157820063744e+18
14288.0	1.6220168891924477e+18
14289.0	1.6204175272574956e+18
14290.0	1.621462873643417e+18
14291.0	1.621203204282777e+18
14292.0	1.6209238602809341e+18
14293.0	1.6206441102704635e+18
14294.0	1.6202167593467901e+18
14295.0	1.6200530908938235e+18
14296.0	1.618749616973415e+18
14297.0	1.619465504135577e+18
14298.0	1.6186108979183608e+18
14299.0	1.618927749064294e+18
14300.0	1.6186924838420477e+18
14301.0	1.618423028331315e+18
14302.0	1.618145269776384e+18
14303.0	1.6178275327934461e+18
14304.0	1.6175690747478013e+18
14305.0	1.6173054711300093e+18
14306.0	1.616999892595507e+18
14307.0	1.6166973759029243e+18
14308.0	1.6164235214061563e+18
14309.0	1.6161123241820157e+18
14310.0	1.6157337228148733e+18
14311.0	1.6152967551909885e+18
14312.0	1.6151717515100157e+18
14313.0	1.6148212570128381e+18
14314.0	1.614751032619827e+18
14315.0	1.6144976480043005e+18
14316.0	1.6141776679075837e+18
14317.0	1.61391621177344e+18
14318.0	1.613692143665152e+18
14319.0	1.6134263741087741e+18
14320.0	1.613153002795827e+18
14321.0	1.6128750429143035e+18
14322.0	1.6125612972310525e+18
14323.0	1.6123029633368061e+18
14324.0	1.6120514980347904e+18
14325.0	1.6117654381133821e+18
14326.0	1.6115034098761725e+18
14327.0	1.611219822916403e+18
14328.0	1.610944332641075e+18
14329.0	1.610679292893593e+18
14330.0	1.6104040374992893e+18
14331.0	1.610128320731545e+18
14332.0	1.6098407072399357e+18
14333.0	1.6095589255086075e+18
14334.0	1.6092824554438653e+18
14335.0	1.6089823110496253e+18
14336.0	1.6085193370632187e+18
14337.0	1.608449434792755e+18
14338.0	1.6081779811155965e+18
14339.0	1.607892973125632e+18
14340.0	1.6076275458244603e+18
14341.0	1.6073457607376893e+18
14342.0	1.6070682521632763e+18
14343.0	1.606804814639923e+18
14344.0	1.6065026284584957e+18
14345.0	1.6062398754455547e+18
14346.0	1.605965277718118e+18
14347.0	1.605649726806425e+18
14348.0	1.6054135354818552e+18
14349.0	1.605147064637849e+18
14350.0	1.6046931436371963e+18
14351.0	1.6044135261667325e+18
14352.0	1.6043125810135037e+18
14353.0	1.6040515594092541e+18
14354.0	1.6037603706929147e+18
14355.0	1.6034443516968952e+18
14356.0	1.6031703176839163e+18
14357.0	1.6029474055258112e+18
14358.0	1.6026892226265085e+18
14359.0	1.602397872848896e+18
14360.0	1.6021093265440763e+18
14361.0	1.6018389667414013e+18
14362.0	1.6015715463069693e+18
14363.0	1.6012864879853568e+18
14364.0	1.600514212600217e+18
14365.0	1.600541676902809e+18
14366.0	1.600363781370675e+18
14367.0	1.6002034767495165e+18
14368.0	1.5999290266615805e+18
14369.0	1.5996596130938877e+18
14370.0	1.5993866595336192e+18
14371.0	1.5991156168982525e+18
14372.0	1.5988323034071037e+18
14373.0	1.5985596837134333e+18
14374.0	1.5982900738523133e+18
14375.0	1.598009295398502e+18
14376.0	1.597749074067456e+18
14377.0	1.5974750568316925e+18
14378.0	1.5971995044806656e+18
14379.0	1.596927815922483e+18
14380.0	1.5966531309535232e+18
14381.0	1.5963692067717115e+18
14382.0	1.596108321062912e+18
14383.0	1.5958358137765888e+18
14384.0	1.5955429574049787e+18
14385.0	1.595291872945766e+18
14386.0	1.5949975720558592e+18
14387.0	1.5947458114748413e+18
14388.0	1.5944693783199741e+18
14389.0	1.594199770136576e+18
14390.0	1.593925608616755e+18
14391.0	1.593655559192576e+18
14392.0	1.5933677829619712e+18
14393.0	1.5930912407552e+18
14394.0	1.592771826050662e+18
14395.0	1.5925337305120765e+18
14396.0	1.592269294744371e+18
14397.0	1.5920020253048832e+18
14398.0	1.5917289828253693e+18
14399.0	1.5914505749921787e+18
14400.0	1.5911578880704507e+18
14401.0	1.590897077859123e+18
14402.0	1.5906176147390464e+18
14403.0	1.5900313617694712e+18
14404.0	1.586539430884145e+18
14405.0	1.5874120457650132e+18
14406.0	1.5894997639364605e+18
14407.0	1.5888788374945795e+18
14408.0	1.5889730767945725e+18
14409.0	1.588705939895091e+18
14410.0	1.5884238729510907e+18
14411.0	1.5881873225940987e+18
14412.0	1.5879174577192952e+18
14413.0	1.5876514868363264e+18
14414.0	1.5873772816957435e+18
14415.0	1.5871064638750715e+18
14416.0	1.5868300340756475e+18
14417.0	1.5865409425113088e+18
14418.0	1.586251624454553e+18
14419.0	1.586013681588633e+18
14420.0	1.5857398925230075e+18
14421.0	1.5854698229661693e+18
14422.0	1.5851824946872315e+18
14423.0	1.5848310287892477e+18
14424.0	1.5830174486495224e+18
14425.0	1.5843195401273341e+18
14426.0	1.5841101587939325e+18
14427.0	1.5838465232994304e+18
14428.0	1.5835500380159997e+18
14429.0	1.5832817183227901e+18
14430.0	1.5829756767371264e+18
14431.0	1.581795300605952e+18
14432.0	1.5824506924826621e+18
14433.0	1.5818878152081405e+18
14434.0	1.581899362965913e+18
14435.0	1.5815800740904957e+18
14436.0	1.5813859180806144e+18
14437.0	1.5811258410336253e+18
14438.0	1.5807546216415232e+18
14439.0	1.5805602492055555e+18
14440.0	1.580318445902233e+18
14441.0	1.580035377358438e+18
14442.0	1.579755295159091e+18
14443.0	1.57943454498816e+18
14444.0	1.5792260629135357e+18
14445.0	1.578953463352524e+18
14446.0	1.577437450626663e+18
14447.0	1.5783666298912765e+18
14448.0	1.5781536481673216e+18
14449.0	1.5778859290984448e+18
14450.0	1.5776109337509885e+18
14451.0	1.5773436760555515e+18
14452.0	1.5770766767292413e+18
14453.0	1.576803213141606e+18
14454.0	1.57652826980352e+18
14455.0	1.576251776250675e+18
14456.0	1.5759776147308541e+18
14457.0	1.575708815209267e+18
14458.0	1.575432930669363e+18
14459.0	1.575145399386112e+18
14460.0	1.5748426461347835e+18
14461.0	1.5744577516339197e+18
14462.0	1.5740468239269888e+18
14463.0	1.5739780809621501e+18
14464.0	1.5737817808240637e+18
14465.0	1.5735029116174333e+18
14466.0	1.5732801991081981e+18
14467.0	1.5729955048521728e+18
14468.0	1.5727476382629885e+18
14469.0	1.5723903087280125e+18
14470.0	1.5721489382768637e+18
14471.0	1.5719201104723965e+18
14472.0	1.5716615265976315e+18
14473.0	1.571399350720921e+18
14474.0	1.5711374650900477e+18
14475.0	1.5708677059117053e+18
14476.0	1.5705823422447613e+18
14477.0	1.5703277429587965e+18
14478.0	1.5700621713735677e+18
14479.0	1.5697915498463224e+18
14480.0	1.5695039866863616e+18
14481.0	1.5692613529108477e+18
14482.0	1.5689869749649405e+18
14483.0	1.5687124158251005e+18
14484.0	1.568434279782809e+18
14485.0	1.5681273808814077e+18
14486.0	1.5675473740693501e+18
14487.0	1.5676423683440635e+18
14488.0	1.567362005965209e+18
14489.0	1.5670289379622907e+18
14490.0	1.5668235277959168e+18
14491.0	1.5665795249995768e+18
14492.0	1.566313758798643e+18
14493.0	1.5660252745695224e+18
14494.0	1.565747980743475e+18
14495.0	1.5654986629251072e+18
14496.0	1.5650793835200507e+18
14497.0	1.5649674459348987e+18
14498.0	1.564704261747507e+18
14499.0	1.5644398377238523e+18
14500.0	1.5641717210349565e+18
14501.0	1.5638789787484157e+18
14502.0	1.5633379118546944e+18
14503.0	1.563341136435609e+18
14504.0	1.563090729775923e+18
14505.0	1.5628248377458685e+18
14506.0	1.562538640251289e+18
14507.0	1.5619932867788797e+18
14508.0	1.5620228985651195e+18
14509.0	1.5617641267855357e+18
14510.0	1.5614938894565376e+18
14511.0	1.561229799299481e+18
14512.0	1.5609464354766843e+18
14513.0	1.560690673529651e+18
14514.0	1.560385727496192e+18
14515.0	1.560119979750195e+18
14516.0	1.5563967346769938e+18
14517.0	1.5595138357133307e+18
14518.0	1.559349662266163e+18
14519.0	1.5590604113182715e+18
14520.0	1.558808249761792e+18
14521.0	1.5585431261282304e+18
14522.0	1.5582704863019003e+18
14523.0	1.5579401127198715e+18
14524.0	1.5577113235030013e+18
14525.0	1.5574687367036925e+18
14526.0	1.5572025678495741e+18
14527.0	1.556898299615641e+18
14528.0	1.5565011812351997e+18
14529.0	1.5563965081845757e+18
14530.0	1.556124041163571e+18
14531.0	1.555877189595955e+18
14532.0	1.55559294664704e+18
14533.0	1.5553436590276605e+18
14534.0	1.555080382565581e+18
14535.0	1.5548026592428032e+18
14536.0	1.554544743101235e+18
14537.0	1.554264508229222e+18
14538.0	1.5540176348512253e+18
14539.0	1.5537520498442237e+18
14540.0	1.553485087427788e+18
14541.0	1.5531859765100544e+18
14542.0	1.5529492466368507e+18
14543.0	1.5526597121540093e+18
14544.0	1.552412296871936e+18
14545.0	1.5521191150223357e+18
14546.0	1.5495582189617134e+18
14547.0	1.549304960175307e+18
14548.0	1.5513080825905147e+18
14549.0	1.550930979428761e+18
14550.0	1.5508053549907965e+18
14551.0	1.5505588389675005e+18
14552.0	1.550289549551206e+18
14553.0	1.550016236958515e+18
14554.0	1.549763910985318e+18
14555.0	1.5494976246906875e+18
14556.0	1.5492284241936381e+18
14557.0	1.548959019014553e+18
14558.0	1.5486535998636032e+18
14559.0	1.545836480482505e+18
14560.0	1.548114987476582e+18
14561.0	1.5478846799216637e+18
14562.0	1.547588308723302e+18
14563.0	1.5473458309758973e+18
14564.0	1.547018750761369e+18
14565.0	1.5468384862863357e+18
14566.0	1.5465772012797947e+18
14567.0	1.546305900275302e+18
14568.0	1.546029254049792e+18
14569.0	1.5457625600688128e+18
14570.0	1.544795645489971e+18
14571.0	1.545234393176473e+18
14572.0	1.5449287710212093e+18
14573.0	1.5446391039983613e+18
14574.0	1.544355136195788e+18
14575.0	1.5441451995365373e+18
14576.0	1.5438637265059837e+18
14577.0	1.543632518014566e+18
14578.0	1.543370622317363e+18
14579.0	1.5431160481972221e+18
14580.0	1.5428493659602941e+18
14581.0	1.542575927538483e+18
14582.0	1.542302873314918e+18
14583.0	1.5420565401632765e+18
14584.0	1.5417469837508605e+18
14585.0	1.5415210198171648e+18
14586.0	1.541261055177523e+18
14587.0	1.5409999295545341e+18
14588.0	1.5407361548091387e+18
14589.0	1.5404725226700797e+18
14590.0	1.540208482844672e+18
14591.0	1.5399346166038523e+18
14592.0	1.5396602738900995e+18
14593.0	1.5392688245309437e+18
14594.0	1.5391417186648056e+18
14595.0	1.5388684530483197e+18
14596.0	1.5380571169488888e+18
14597.0	1.5376796128116728e+18
14598.0	1.538009944450662e+18
14599.0	1.5378236502441984e+18
14600.0	1.5375558758105085e+18
14601.0	1.5372914735972347e+18
14602.0	1.5370101482061821e+18
14603.0	1.5367570957795325e+18
14604.0	1.5364161072529403e+18
14605.0	1.5361255611039741e+18
14606.0	1.5358447105081341e+18
14607.0	1.5357003811520507e+18
14608.0	1.5354105396461565e+18
14609.0	1.5351090950176768e+18
14610.0	1.5347884891308032e+18
14611.0	1.5345478669434877e+18
14612.0	1.5343914680582144e+18
14613.0	1.5341391404072957e+18
14614.0	1.5338381034651643e+18
14615.0	1.5335905271218173e+18
14616.0	1.5333560437178363e+18
14617.0	1.5330054485573632e+18
14618.0	1.5327347196559352e+18
14619.0	1.5319441218732022e+18
14620.0	1.531023681860403e+18
14621.0	1.532008553093529e+18
14622.0	1.5317708400754685e+18
14623.0	1.5315169672429568e+18
14624.0	1.5311889693147133e+18
14625.0	1.530989171127091e+18
14626.0	1.5306995259146237e+18
14627.0	1.5304373466824701e+18
14628.0	1.5302107385036797e+18
14629.0	1.5299458816278525e+18
14630.0	1.5296470458564605e+18
14631.0	1.5293906161762301e+18
14632.0	1.5289640873361405e+18
14633.0	1.528851020644352e+18
14634.0	1.528617753588531e+18
14635.0	1.5282506999791606e+18
14636.0	1.527711882910105e+18
14637.0	1.527844072272691e+18
14638.0	1.5275448439144448e+18
14639.0	1.5272729741623293e+18
14640.0	1.5270385729667072e+18
14641.0	1.5262764394086395e+18
14642.0	1.5264898455961597e+18
14643.0	1.5262389473640443e+18
14644.0	1.5259575867408381e+18
14645.0	1.5256573433610237e+18
14646.0	1.525395333578752e+18
14647.0	1.525119553057587e+18
14648.0	1.5248852827242493e+18
14649.0	1.5246517069676541e+18
