# Flux units: erg / (cm m2 s)
# Wavelength units: Angstrom
wave	flux
14000.0	2.0980888363859968e+18
14001.0	2.0975769501040637e+18
14002.0	2.097079240569651e+18
14003.0	2.0965640223326205e+18
14004.0	2.0960515991797757e+18
14005.0	2.0955375016607744e+18
14006.0	2.095019107496755e+18
14007.0	2.094502973223731e+18
14008.0	2.093935936877363e+18
14009.0	2.09347983483863e+18
14010.0	2.092958008056217e+18
14011.0	2.0921471249416187e+18
14012.0	2.0919398105612283e+18
14013.0	2.091427566924595e+18
14014.0	2.090910979666739e+18
14015.0	2.0904002493349888e+18
14016.0	2.0898881818591227e+18
14017.0	2.089376325776179e+18
14018.0	2.0888601948585981e+18
14019.0	2.0883516942188536e+18
14020.0	2.0878391385260027e+18
14021.0	2.0873267740934144e+18
14022.0	2.0868077239402493e+18
14023.0	2.086262893916979e+18
14024.0	2.0857653806759933e+18
14025.0	2.085275084993331e+18
14026.0	2.0847632674979837e+18
14027.0	2.0842527519145981e+18
14028.0	2.083738664461926e+18
14029.0	2.083226464446054e+18
14030.0	2.0813601065402378e+18
14031.0	2.0821684680392696e+18
14032.0	2.0816972799279101e+18
14033.0	2.0811464084291581e+18
14034.0	2.0806784969080827e+18
14035.0	2.0801707780866045e+18
14036.0	2.079658621691494e+18
14037.0	2.079140918748774e+18
14038.0	2.0786419878330365e+18
14039.0	2.078130406896435e+18
14040.0	2.0776171482382333e+18
14041.0	2.0771125013250043e+18
14042.0	2.076600121792921e+18
14043.0	2.0760783134654464e+18
14044.0	2.0755828017463293e+18
14045.0	2.0750736367288315e+18
14046.0	2.0745647636348925e+18
14047.0	2.0740506560495616e+18
14048.0	2.0735483764015101e+18
14049.0	2.0730447763865597e+18
14050.0	2.072537351166361e+18
14051.0	2.0720234918838267e+18
14052.0	2.0715198935465976e+18
14053.0	2.0710141930242045e+18
14054.0	2.0705090444722173e+18
14055.0	2.0699983158181883e+18
14056.0	2.0694957157253117e+18
14057.0	2.0689886428266493e+18
14058.0	2.0684826185039864e+18
14059.0	2.067977115952742e+18
14060.0	2.0674709305688061e+18
14061.0	2.06696126391255e+18
14062.0	2.0664597996371965e+18
14063.0	2.065944933721702e+18
14064.0	2.0652748802359293e+18
14065.0	2.064939537242521e+18
14066.0	2.064436183852646e+18
14067.0	2.0638847872270333e+18
14068.0	2.0634293193670653e+18
14069.0	2.062917775340339e+18
14070.0	2.0624139337334784e+18
14071.0	2.0619085301678077e+18
14072.0	2.0614053579718648e+18
14073.0	2.0608995114876925e+18
14074.0	2.06039877198807e+18
14075.0	2.0598830168801277e+18
14076.0	2.0593386532634621e+18
14077.0	2.0585428679655421e+18
14078.0	2.0583587111763963e+18
14079.0	2.0578759769849853e+18
14080.0	2.057379253950873e+18
14081.0	2.0568763787116544e+18
14082.0	2.0563532013633533e+18
14083.0	2.0558701735706621e+18
14084.0	2.055369239455334e+18
14085.0	2.054496446735974e+18
14086.0	2.05433871573975e+18
14087.0	2.0538634037886973e+18
14088.0	2.0533498246856701e+18
14089.0	2.052813943629414e+18
14090.0	2.0523516004663293e+18
14091.0	2.051857687615897e+18
14092.0	2.0513566427709437e+18
14093.0	2.050855581148774e+18
14094.0	2.0503549238575101e+18
14095.0	2.049854504802713e+18
14096.0	2.0492791167582203e+18
14097.0	2.0488057375424507e+18
14098.0	2.048301229880115e+18
14099.0	2.047847154529075e+18
14100.0	2.0473359074590717e+18
14101.0	2.0468487356940283e+18
14102.0	2.0463472277979133e+18
14103.0	2.0458427201355773e+18
14104.0	2.045348839161856e+18
14105.0	2.044842155494604e+18
14106.0	2.0443523681615872e+18
14107.0	2.0438265567903744e+18
14108.0	2.0433436615376893e+18
14109.0	2.0428534195421184e+18
14110.0	2.0423352854249464e+18
14111.0	2.0418173090136064e+18
14112.0	2.0413544306573307e+18
14113.0	2.0408329025093627e+18
14114.0	2.0403466417471483e+18
14115.0	2.0398634864476155e+18
14116.0	2.0392313511477243e+18
14117.0	2.0367140573937664e+18
14118.0	2.038374473295462e+18
14119.0	2.0378362132299773e+18
14120.0	2.0373473704542205e+18
14121.0	2.036868983239475e+18
14122.0	2.0363532549750776e+18
14123.0	2.0358058563600381e+18
14124.0	2.035305791304499e+18
14125.0	2.0346426852638715e+18
14126.0	2.0343824739991547e+18
14127.0	2.0339096031330301e+18
14128.0	2.0334095582101496e+18
14129.0	2.0329058055225336e+18
14130.0	2.0324047690661883e+18
14131.0	2.031918291877888e+18
14132.0	2.0314229781299197e+18
14133.0	2.0306322662621176e+18
14134.0	2.0304373955428347e+18
14135.0	2.02991730688e+18
14136.0	2.0292640322879488e+18
14137.0	2.028949382312755e+18
14138.0	2.0284277870559227e+18
14139.0	2.0279660814270461e+18
14140.0	2.0274371713040381e+18
14141.0	2.0269703872118776e+18
14142.0	2.0262595449585661e+18
14143.0	2.0258906424999933e+18
14144.0	2.0254987015684093e+18
14145.0	2.025005243380531e+18
14146.0	2.0245094732922875e+18
14147.0	2.0240168405434365e+18
14148.0	2.0235111484096512e+18
14149.0	2.0230131922501624e+18
14150.0	2.0225414974668792e+18
14151.0	2.0220168286240763e+18
14152.0	2.021557171493273e+18
14153.0	2.0210663557169147e+18
14154.0	2.0205592459083773e+18
14155.0	2.0190669259669507e+18
14156.0	2.0194456397414387e+18
14157.0	2.0190957425131517e+18
14158.0	2.0185920284131325e+18
14159.0	2.0181167265284093e+18
14160.0	2.0176230217154555e+18
14161.0	2.0171021730447352e+18
14162.0	2.0165856428294136e+18
14163.0	2.0161527789125627e+18
14164.0	2.0155735589519355e+18
14165.0	2.0148114975358973e+18
14166.0	2.0146705471111168e+18
14167.0	2.014179362236006e+18
14168.0	2.0136766598021115e+18
14169.0	2.013208392604057e+18
14170.0	2.0127062371074043e+18
14171.0	2.0122169094701053e+18
14172.0	2.0117409633402877e+18
14173.0	2.011094956638208e+18
14174.0	2.010753350710067e+18
14175.0	2.0102743813259261e+18
14176.0	2.0097662397186045e+18
14177.0	2.0092884648722427e+18
14178.0	2.0088038902202365e+18
14179.0	2.008288140145459e+18
14180.0	2.007833470880972e+18
14181.0	2.007345675003494e+18
14182.0	2.0068576241123328e+18
14183.0	2.0063705261670397e+18
14184.0	2.0058802623610877e+18
14185.0	2.0053954964488187e+18
14186.0	2.0044733569040381e+18
14187.0	2.0044083804241917e+18
14188.0	2.00393282855895e+18
14189.0	2.0034406672498688e+18
14190.0	2.0029584648962045e+18
14191.0	2.0024700264513528e+18
14192.0	2.0019833227706365e+18
14193.0	2.0014298038271997e+18
14194.0	2.001012363205017e+18
14195.0	2.0005314711519232e+18
14196.0	2.0000458093363197e+18
14197.0	1.999559409323212e+18
14198.0	1.9990725747802107e+18
14199.0	1.9985798547898365e+18
14200.0	1.9978656537378816e+18
14201.0	1.997606378641817e+18
14202.0	1.9971339691491328e+18
14203.0	1.9966121205563387e+18
14204.0	1.9961585166450688e+18
14205.0	1.9956746365698045e+18
14206.0	1.9951227785707517e+18
14207.0	1.9947084987760637e+18
14208.0	1.9942247780843517e+18
14209.0	1.9936667896905725e+18
14210.0	1.9932054766485501e+18
14211.0	1.9927698495242237e+18
14212.0	1.9922901687861243e+18
14213.0	1.991795210715136e+18
14214.0	1.991324124944793e+18
14215.0	1.9908304587194365e+18
14216.0	1.990359260541747e+18
14217.0	1.98987649950679e+18
14218.0	1.9893872641441787e+18
14219.0	1.9889104053338112e+18
14220.0	1.988428343908761e+18
14221.0	1.9879355735867387e+18
14222.0	1.987386618046054e+18
14223.0	1.986972578165555e+18
14224.0	1.9865011853721597e+18
14225.0	1.9853506575859712e+18
14226.0	1.9855350056353787e+18
14227.0	1.9850563348856827e+18
14228.0	1.9832175905996803e+18
14229.0	1.98379233775452e+18
14230.0	1.9836138298540027e+18
14231.0	1.98305601594327e+18
14232.0	1.982652762134937e+18
14233.0	1.9821683166674944e+18
14234.0	1.981692551731609e+18
14235.0	1.981210735253913e+18
14236.0	1.980729088226099e+18
14237.0	1.9802505735045115e+18
14238.0	1.9797715789545472e+18
14239.0	1.9792827747663872e+18
14240.0	1.9780913156063227e+18
14241.0	1.9783315938607096e+18
14242.0	1.9778551427366912e+18
14243.0	1.9772919164960765e+18
14244.0	1.9768993480966136e+18
14245.0	1.9764076330614784e+18
14246.0	1.9759205485379584e+18
14247.0	1.9754598528974845e+18
14248.0	1.9749783065329661e+18
14249.0	1.974505093411635e+18
14250.0	1.974028962732441e+18
14251.0	1.9735526105939965e+18
14252.0	1.9730745706676221e+18
14253.0	1.9725939218841597e+18
14254.0	1.9721138401705981e+18
14255.0	1.9716224942342141e+18
14256.0	1.9707463343276032e+18
14257.0	1.9706663002963965e+18
14258.0	1.97020760450007e+18
14259.0	1.969704242721587e+18
14260.0	1.9692419868000253e+18
14261.0	1.968765042425856e+18
14262.0	1.9683036085878781e+18
14263.0	1.9672179851395072e+18
14264.0	1.9672368511188987e+18
14265.0	1.9668426083532797e+18
14266.0	1.9663998978883581e+18
14267.0	1.965923726943846e+18
14268.0	1.9654482539315192e+18
14269.0	1.9649690765099003e+18
14270.0	1.9645000442707965e+18
14271.0	1.9640183368450043e+18
14272.0	1.963546838355148e+18
14273.0	1.9630752056475643e+18
14274.0	1.961684332498125e+18
14275.0	1.962045809360896e+18
14276.0	1.9616146617532416e+18
14277.0	1.961157450740531e+18
14278.0	1.9607049088270333e+18
14279.0	1.9602305783431165e+18
14280.0	1.9597537396654077e+18
14281.0	1.9592841957212155e+18
14282.0	1.9588110312538112e+18
14283.0	1.9583378516869115e+18
14284.0	1.9578648063377405e+18
14285.0	1.9573917525999608e+18
14286.0	1.956915413883289e+18
14287.0	1.9564441905397755e+18
14288.0	1.9559728094904317e+18
14289.0	1.9550397043572728e+18
14290.0	1.9550207997902843e+18
14291.0	1.9545552119136253e+18
14292.0	1.9540834433105915e+18
14293.0	1.9536119045554173e+18
14294.0	1.9530593352024056e+18
14295.0	1.95265625587712e+18
14296.0	1.9518243811098624e+18
14297.0	1.9517271856644093e+18
14298.0	1.95095444890583e+18
14299.0	1.9507647975784443e+18
14300.0	1.9503097139167227e+18
14301.0	1.9498309576032253e+18
14302.0	1.9493716477607933e+18
14303.0	1.9488761175867387e+18
14304.0	1.9484238306869245e+18
14305.0	1.9479581438246912e+18
14306.0	1.9474024589426683e+18
14307.0	1.9469908584693755e+18
14308.0	1.9465458562367488e+18
14309.0	1.9460640951238648e+18
14310.0	1.9452044859408374e+18
14311.0	1.9446915359834107e+18
14312.0	1.944589142956441e+18
14313.0	1.9441621527429117e+18
14314.0	1.9437174927654912e+18
14315.0	1.943259528455782e+18
14316.0	1.942766073623347e+18
14317.0	1.942201827328e+18
14318.0	1.9418581913567227e+18
14319.0	1.9413907646971896e+18
14320.0	1.940923205497651e+18
14321.0	1.940454080983859e+18
14322.0	1.9399646057070587e+18
14323.0	1.9395095086235643e+18
14324.0	1.939042278257459e+18
14325.0	1.9385793747353597e+18
14326.0	1.93811849454551e+18
14327.0	1.937645242836582e+18
14328.0	1.937179611339161e+18
14329.0	1.936717917454336e+18
14330.0	1.9362509739786237e+18
14331.0	1.9357747191480317e+18
14332.0	1.9353173000978427e+18
14333.0	1.9348519152254973e+18
14334.0	1.9343860874346493e+18
14335.0	1.933899840094208e+18
14336.0	1.9333673094479872e+18
14337.0	1.9329861612994555e+18
14338.0	1.932519924144537e+18
14339.0	1.932045935915827e+18
14340.0	1.9315919410954235e+18
14341.0	1.9311193520865277e+18
14342.0	1.930659612747366e+18
14343.0	1.930180049449779e+18
14344.0	1.929720806716211e+18
14345.0	1.9292694710845435e+18
14346.0	1.928802841342771e+18
14347.0	1.9283049539698688e+18
14348.0	1.9278723802988541e+18
14349.0	1.9274124480217083e+18
14350.0	1.926895597361561e+18
14351.0	1.9264274744475643e+18
14352.0	1.9260160451018747e+18
14353.0	1.925557018794393e+18
14354.0	1.9250889680224253e+18
14355.0	1.9246184275116032e+18
14356.0	1.9241585791205373e+18
14357.0	1.9237050456735741e+18
14358.0	1.9232420465213435e+18
14359.0	1.922769851777024e+18
14360.0	1.9223136843071483e+18
14361.0	1.9218533678317563e+18
14362.0	1.921392328258355e+18
14363.0	1.9209298810765312e+18
14364.0	1.9202758464765947e+18
14365.0	1.9199665098457083e+18
14366.0	1.9195133522083835e+18
14367.0	1.9190831692906493e+18
14368.0	1.918621490505318e+18
14369.0	1.9181604274438144e+18
14370.0	1.917699444912947e+18
14371.0	1.9172386720972797e+18
14372.0	1.9167690392338427e+18
14373.0	1.9163111168671741e+18
14374.0	1.9158489716752381e+18
14375.0	1.9153903396323325e+18
14376.0	1.9149301103984637e+18
14377.0	1.9144697066815483e+18
14378.0	1.9140083382747136e+18
14379.0	1.913549872326246e+18
14380.0	1.913089190107545e+18
14381.0	1.912623434458726e+18
14382.0	1.9121684179058683e+18
14383.0	1.911685311260262e+18
14384.0	1.9112367220588536e+18
14385.0	1.910792506677657e+18
14386.0	1.9103225231704061e+18
14387.0	1.9098743399776256e+18
14388.0	1.9094128289644541e+18
14389.0	1.908956156500377e+18
14390.0	1.9084973147422715e+18
14391.0	1.908032352655769e+18
14392.0	1.9075641005572093e+18
14393.0	1.9071234922774525e+18
14394.0	1.9066429961666552e+18
14395.0	1.9060072386658296e+18
14396.0	1.905739620260249e+18
14397.0	1.905292190364467e+18
14398.0	1.904817636743577e+18
14399.0	1.9043715557359613e+18
14400.0	1.9037763118563328e+18
14401.0	1.9034578031214587e+18
14402.0	1.9030027429478397e+18
14403.0	1.8970024555315126e+18
14404.0	1.889800953004031e+18
14405.0	1.9008743635156972e+18
14406.0	1.9011792608952315e+18
14407.0	1.8929726605230106e+18
14408.0	1.900165541239193e+18
14409.0	1.8997971303530493e+18
14410.0	1.8993353760702461e+18
14411.0	1.8988909912391677e+18
14412.0	1.898440581709824e+18
14413.0	1.897986798282342e+18
14414.0	1.8975314998722555e+18
14415.0	1.8970769262379003e+18
14416.0	1.8966044630581243e+18
14417.0	1.8961092399071227e+18
14418.0	1.8956493244071933e+18
14419.0	1.8952568667373568e+18
14420.0	1.8948003586899965e+18
14421.0	1.8943482026524672e+18
14422.0	1.8938915167666173e+18
14423.0	1.89343233778647e+18
14424.0	1.863410726102617e+18
14425.0	1.8925245276618747e+18
14426.0	1.892076965226086e+18
14427.0	1.8916244417675261e+18
14428.0	1.891146312921907e+18
14429.0	1.8907144053063677e+18
14430.0	1.8902644051410941e+18
14431.0	1.8895005754064896e+18
14432.0	1.8893304192040955e+18
14433.0	1.883079919743792e+18
14434.0	1.8884426779852797e+18
14435.0	1.8879459616620536e+18
14436.0	1.8875476671987707e+18
14437.0	1.8870953417113592e+18
14438.0	1.8864515043033088e+18
14439.0	1.8861394715738107e+18
14440.0	1.8857383702822907e+18
14441.0	1.885282444404326e+18
14442.0	1.8848304813047805e+18
14443.0	1.8843587412230136e+18
14444.0	1.8839294072324093e+18
14445.0	1.8834798315307005e+18
14446.0	1.8769792391446543e+18
14447.0	1.8825510146539512e+18
14448.0	1.8821273698172928e+18
14449.0	1.881676289199308e+18
14450.0	1.8812177259429888e+18
14451.0	1.8807674942521341e+18
14452.0	1.880313007859302e+18
14453.0	1.879745723210137e+18
14454.0	1.8794160173613053e+18
14455.0	1.8789635241017341e+18
14456.0	1.878488311136256e+18
14457.0	1.8780199181090813e+18
14458.0	1.8775151336226813e+18
14459.0	1.8771286754852856e+18
14460.0	1.876713704469299e+18
14461.0	1.8762209408581627e+18
14462.0	1.8754364818587645e+18
14463.0	1.8753553891852283e+18
14464.0	1.87491989627863e+18
14465.0	1.874463195293286e+18
14466.0	1.8740207733964792e+18
14467.0	1.8734892024070136e+18
14468.0	1.8731147835998203e+18
14469.0	1.8726546097307645e+18
14470.0	1.8722167294263293e+18
14471.0	1.8717705091678205e+18
14472.0	1.8713266494636027e+18
14473.0	1.8708866267086845e+18
14474.0	1.8704399517876221e+18
14475.0	1.869980915413811e+18
14476.0	1.8691658983931904e+18
14477.0	1.8690969557794813e+18
14478.0	1.8686475226841083e+18
14479.0	1.8681955360964603e+18
14480.0	1.867746772412006e+18
14481.0	1.8673104238673917e+18
14482.0	1.8668612894064635e+18
14483.0	1.8664098027798525e+18
14484.0	1.8659649968406525e+18
14485.0	1.8655027258195965e+18
14486.0	1.8649137029316603e+18
14487.0	1.8646220427755515e+18
14488.0	1.8640852725268477e+18
14489.0	1.8637047652679675e+18
14490.0	1.8632779545706493e+18
14491.0	1.8628481793392637e+18
14492.0	1.8623991103094781e+18
14493.0	1.8619387166588925e+18
14494.0	1.861497485944422e+18
14495.0	1.8610685764173821e+18
14496.0	1.8605481807314941e+18
14497.0	1.8601781458108413e+18
14498.0	1.8597321721774075e+18
14499.0	1.8592894969446397e+18
14500.0	1.858844845355827e+18
14501.0	1.8582128090415104e+18
14502.0	1.8576231100317696e+18
14503.0	1.8574676171161592e+18
14504.0	1.8570635529682941e+18
14505.0	1.856430855631667e+18
14506.0	1.855785677724057e+18
14507.0	1.8556019101663227e+18
14508.0	1.8552930399420413e+18
14509.0	1.8548493631094784e+18
14510.0	1.854405374220697e+18
14511.0	1.8539634036310013e+18
14512.0	1.8535109623807992e+18
14513.0	1.8530767378317307e+18
14514.0	1.8525623282565115e+18
14515.0	1.852185079132979e+18
14516.0	1.850635953215898e+18
14517.0	1.85130651001815e+18
14518.0	1.850863007668633e+18
14519.0	1.8504208659513341e+18
14520.0	1.8499784490876925e+18
14521.0	1.8495320107253755e+18
14522.0	1.8490857770450941e+18
14523.0	1.8481951384010744e+18
14524.0	1.8477701631311864e+18
14525.0	1.8477663832244221e+18
14526.0	1.8473258739302397e+18
14527.0	1.8468286979112952e+18
14528.0	1.8463033764347896e+18
14529.0	1.8459975277871104e+18
14530.0	1.8455529131081725e+18
14531.0	1.8451206196166653e+18
14532.0	1.8439467295571965e+18
14533.0	1.8442322005983227e+18
14534.0	1.8438004825653243e+18
14535.0	1.8433520946905083e+18
14536.0	1.842916623594291e+18
14537.0	1.8424702758289403e+18
14538.0	1.8420362089857021e+18
14539.0	1.841599449399296e+18
14540.0	1.8411554756100093e+18
14541.0	1.8407007644024827e+18
14542.0	1.8402737406345213e+18
14543.0	1.8395650441871352e+18
14544.0	1.8393960976220155e+18
14545.0	1.838946052158259e+18
14546.0	1.8105382643695514e+18
14547.0	1.8127106806382456e+18
14548.0	1.8376305338744827e+18
14549.0	1.8371345054171139e+18
14550.0	1.8367569392041981e+18
14551.0	1.836323729676697e+18
14552.0	1.83587436536791e+18
14553.0	1.83543190823895e+18
14554.0	1.8350068054622205e+18
14555.0	1.8345662206705661e+18
14556.0	1.8341192236269565e+18
14557.0	1.8336920622858237e+18
14558.0	1.8332532642676739e+18
14559.0	1.8317684470972403e+18
14560.0	1.832163698173542e+18
14561.0	1.8319384623710203e+18
14562.0	1.8314816691109885e+18
14563.0	1.8310653911498747e+18
14564.0	1.8305930051452925e+18
14565.0	1.8301936302292987e+18
14566.0	1.8297565602643965e+18
14567.0	1.829318228652851e+18
14568.0	1.8287330242592765e+18
14569.0	1.8284431693316093e+18
14570.0	1.8277090637905915e+18
14571.0	1.8275703665459197e+18
14572.0	1.8270674594299904e+18
14573.0	1.8266616991055864e+18
14574.0	1.8261586980372475e+18
14575.0	1.825814473185689e+18
14576.0	1.8253834430185464e+18
14577.0	1.8249499767996416e+18
14578.0	1.8245179550990333e+18
14579.0	1.8240824336711677e+18
14580.0	1.8236484003823616e+18
14581.0	1.8231807338086397e+18
14582.0	1.8227742419976187e+18
14583.0	1.8223416515493885e+18
14584.0	1.8218950689030144e+18
14585.0	1.821471365346099e+18
14586.0	1.8210343406796797e+18
14587.0	1.8205928499183613e+18
14588.0	1.8201642507698176e+18
14589.0	1.8197496471748603e+18
14590.0	1.8193336930140152e+18
14591.0	1.8189101572292608e+18
14592.0	1.8184953808289787e+18
14593.0	1.818016315814707e+18
14594.0	1.8176671148408832e+18
14595.0	1.8172484931026941e+18
14596.0	1.8166549219115003e+18
14597.0	1.816251503686451e+18
14598.0	1.815992933233459e+18
14599.0	1.815590437755289e+18
14600.0	1.8151680948305917e+18
14601.0	1.8147571402801144e+18
14602.0	1.8143014257950715e+18
14603.0	1.8139098170523645e+18
14604.0	1.8134691030761472e+18
14605.0	1.8130417051762685e+18
14606.0	1.812600241258496e+18
14607.0	1.812262539388518e+18
14608.0	1.8118430385242112e+18
14609.0	1.8113802323099643e+18
14610.0	1.8109181810704384e+18
14611.0	1.8105974812311547e+18
14612.0	1.810192267843993e+18
14613.0	1.809779707713945e+18
14614.0	1.809362965023948e+18
14615.0	1.8089078796845056e+18
14616.0	1.808535786199449e+18
14617.0	1.8081215382814715e+18
14618.0	1.8076459545395197e+18
14619.0	1.807164424952217e+18
14620.0	1.8064431422373888e+18
14621.0	1.8064653401718781e+18
14622.0	1.8060494078214141e+18
14623.0	1.805637268799488e+18
14624.0	1.8051897499844605e+18
14625.0	1.8048072378482685e+18
14626.0	1.8043803331985405e+18
14627.0	1.803958262064742e+18
14628.0	1.8035679082577917e+18
14629.0	1.8031540965474304e+18
14630.0	1.8027375367290877e+18
14631.0	1.8023199467896827e+18
14632.0	1.7994398356733962e+18
14633.0	1.8011117288685553e+18
14634.0	1.801075000187289e+18
14635.0	1.7992649969500122e+18
14636.0	1.7971011018293235e+18
14637.0	1.7998458644332541e+18
14638.0	1.7994119301300224e+18
14639.0	1.7990067939180541e+18
14640.0	1.7986021593448448e+18
14641.0	1.788550340358958e+18
14642.0	1.7977749117337597e+18
14643.0	1.7973634270232576e+18
14644.0	1.7969418122297341e+18
14645.0	1.7965202259574781e+18
14646.0	1.7960695261822976e+18
14647.0	1.795657445880627e+18
14648.0	1.7952895030788093e+18
