# Flux units: erg / (cm m2 s)
# Wavelength units: Angstrom
wave	flux
14000.0	1.740738657045708e+18
14001.0	1.7414929925537787e+18
14002.0	1.741458253650329e+18
14003.0	1.7411839797231616e+18
14004.0	1.740883023311667e+18
14005.0	1.74058276651008e+18
14006.0	1.740265180522086e+18
14007.0	1.7399496983969787e+18
14008.0	1.7395375392423933e+18
14009.0	1.7393165430423547e+18
14010.0	1.7389895802683387e+18
14011.0	1.738186547213107e+18
14012.0	1.7383584096583677e+18
14013.0	1.7380960408436733e+18
14014.0	1.737785471087411e+18
14015.0	1.7374807515463675e+18
14016.0	1.7371713259962363e+18
14017.0	1.7368611656040443e+18
14018.0	1.7364934962708475e+18
14019.0	1.7362389859041277e+18
14020.0	1.7359269565300733e+18
14021.0	1.735614356730675e+18
14022.0	1.735300522128179e+18
14023.0	1.734977319128268e+18
14024.0	1.7346683281080315e+18
14025.0	1.7343657610838013e+18
14026.0	1.7340524734185472e+18
14027.0	1.7337348689756157e+18
14028.0	1.73339673928663e+18
14029.0	1.7329895763869693e+18
14030.0	1.731029388545229e+18
14031.0	1.7318808691671037e+18
14032.0	1.7321167601795064e+18
14033.0	1.7318193001398272e+18
14034.0	1.7315656873541627e+18
14035.0	1.731260660790067e+18
14036.0	1.7309204591149053e+18
14037.0	1.7306414221361147e+18
14038.0	1.7303433312731133e+18
14039.0	1.7300307197296637e+18
14040.0	1.7297243040120827e+18
14041.0	1.7294154237214715e+18
14042.0	1.7290972656304125e+18
14043.0	1.7287666387124221e+18
14044.0	1.728448489009971e+18
14045.0	1.728141994439475e+18
14046.0	1.727865958904627e+18
14047.0	1.727551543810457e+18
14048.0	1.7272487872036861e+18
14049.0	1.7269452001247227e+18
14050.0	1.7266365530374141e+18
14051.0	1.726321371224473e+18
14052.0	1.7260143733374976e+18
14053.0	1.7257112459542525e+18
14054.0	1.7254030401077248e+18
14055.0	1.7250946715222013e+18
14056.0	1.7247862777708544e+18
14057.0	1.7244779259625467e+18
14058.0	1.7241694047043581e+18
14059.0	1.7238050656485368e+18
14060.0	1.723551998122393e+18
14061.0	1.7232373984788477e+18
14062.0	1.7229291574001661e+18
14063.0	1.722575946671718e+18
14064.0	1.7218484396097539e+18
14065.0	1.7219892524613627e+18
14066.0	1.7216993153253376e+18
14067.0	1.721389386458726e+18
14068.0	1.721087800901632e+18
14069.0	1.7207806755078141e+18
14070.0	1.7204737094975485e+18
14071.0	1.720164738609971e+18
14072.0	1.719859517430169e+18
14073.0	1.7195515112325123e+18
14074.0	1.7192421712461821e+18
14075.0	1.7189123949330432e+18
14076.0	1.7185916061745147e+18
14077.0	1.7179015106265085e+18
14078.0	1.7179100972056576e+18
14079.0	1.7176852154023933e+18
14080.0	1.7173712885252093e+18
14081.0	1.7170881092517885e+18
14082.0	1.7167847855751165e+18
14083.0	1.7164698218659837e+18
14084.0	1.7161274005651453e+18
14085.0	1.7155648051478523e+18
14086.0	1.715460932370432e+18
14087.0	1.7152023082303488e+18
14088.0	1.714931681669939e+18
14089.0	1.7146388991180797e+18
14090.0	1.7143370971348987e+18
14091.0	1.7140329681518587e+18
14092.0	1.7137275204796413e+18
14093.0	1.7134207188860925e+18
14094.0	1.7131118838939643e+18
14095.0	1.7127976248279037e+18
14096.0	1.712464967866777e+18
14097.0	1.712149757532569e+18
14098.0	1.7118689639792637e+18
14099.0	1.711578201404211e+18
14100.0	1.7112705458503677e+18
14101.0	1.7109772532711424e+18
14102.0	1.7106708912406525e+18
14103.0	1.710355140680089e+18
14104.0	1.71006068040663e+18
14105.0	1.709758930432819e+18
14106.0	1.709453632077824e+18
14107.0	1.7091045418336256e+18
14108.0	1.7088232080539648e+18
14109.0	1.7085328330326013e+18
14110.0	1.7082271118917632e+18
14111.0	1.7079159062790144e+18
14112.0	1.7075988470956032e+18
14113.0	1.7072953590022136e+18
14114.0	1.7069536792543227e+18
14115.0	1.7065885365698557e+18
14116.0	1.7057663456116733e+18
14117.0	1.7026245233475581e+18
14118.0	1.705425311786598e+18
14119.0	1.7053602447097853e+18
14120.0	1.705109049520947e+18
14121.0	1.704828266033971e+18
14122.0	1.7045395200802816e+18
14123.0	1.7042370302312448e+18
14124.0	1.703895254853222e+18
14125.0	1.7033366708682747e+18
14126.0	1.7033157295472635e+18
14127.0	1.7030461784063997e+18
14128.0	1.702752016767385e+18
14129.0	1.70244067861463e+18
14130.0	1.7021180225519613e+18
14131.0	1.701826654319411e+18
14132.0	1.7014865415634941e+18
14133.0	1.7008675830890493e+18
14134.0	1.7008418619391995e+18
14135.0	1.7006144467763195e+18
14136.0	1.700320874017587e+18
14137.0	1.700014751901286e+18
14138.0	1.699707594630758e+18
14139.0	1.6994109549969405e+18
14140.0	1.699096607011635e+18
14141.0	1.698746844001075e+18
14142.0	1.698411328202342e+18
14143.0	1.6981818611859453e+18
14144.0	1.6979037184327675e+18
14145.0	1.6976084226539515e+18
14146.0	1.6972988058435581e+18
14147.0	1.6970105766281213e+18
14148.0	1.6967098970406912e+18
14149.0	1.6964095798411261e+18
14150.0	1.6961091485564925e+18
14151.0	1.6958055883210747e+18
14152.0	1.6955065378013184e+18
14153.0	1.6952069537660925e+18
14154.0	1.6948802879487995e+18
14155.0	1.694555784714649e+18
14156.0	1.6942984171880448e+18
14157.0	1.69399918044119e+18
14158.0	1.6936960312475643e+18
14159.0	1.693394185643622e+18
14160.0	1.6930732995772416e+18
14161.0	1.69274617406423e+18
14162.0	1.6924143626747896e+18
14163.0	1.6921263633072125e+18
14164.0	1.6918340924604408e+18
14165.0	1.6915631538438141e+18
14166.0	1.691281853618585e+18
14167.0	1.690973230019379e+18
14168.0	1.6906863580807165e+18
14169.0	1.690385138266931e+18
14170.0	1.6900873745596416e+18
14171.0	1.6897848008245243e+18
14172.0	1.689488624241868e+18
14173.0	1.6891795778568187e+18
14174.0	1.6888811313168384e+18
14175.0	1.68858735387607e+18
14176.0	1.68828943246295e+18
14177.0	1.6879894222864381e+18
14178.0	1.6876887510876157e+18
14179.0	1.6873862209732603e+18
14180.0	1.6870879841484797e+18
14181.0	1.686786797889126e+18
14182.0	1.6864839221641216e+18
14183.0	1.6861787093729277e+18
14184.0	1.6858611300958205e+18
14185.0	1.6855000592416768e+18
14186.0	1.6848098697412603e+18
14187.0	1.6848178976391163e+18
14188.0	1.6846394602029053e+18
14189.0	1.6843653154603003e+18
14190.0	1.6840783042707453e+18
14191.0	1.683777691792179e+18
14192.0	1.6834547370950653e+18
14193.0	1.6831172516511741e+18
14194.0	1.6828796342632443e+18
14195.0	1.6825935810527224e+18
14196.0	1.6822974027923453e+18
14197.0	1.6819981761118205e+18
14198.0	1.6816921060048896e+18
14199.0	1.681372179595264e+18
14200.0	1.6807678189764605e+18
14201.0	1.680656923256422e+18
14202.0	1.6804869012717568e+18
14203.0	1.6802019100590077e+18
14204.0	1.6799056311353341e+18
14205.0	1.6796000324681725e+18
14206.0	1.6792303146369024e+18
14207.0	1.6789994165239803e+18
14208.0	1.67870897103831e+18
14209.0	1.6783217713479675e+18
14210.0	1.6780373253947387e+18
14211.0	1.6778122607198205e+18
14212.0	1.6775279489843197e+18
14213.0	1.6772323730259963e+18
14214.0	1.6769338644103163e+18
14215.0	1.6766237543497725e+18
14216.0	1.6763391037145085e+18
14217.0	1.6760435445334013e+18
14218.0	1.6757334378283005e+18
14219.0	1.6754448294477821e+18
14220.0	1.6751409252794365e+18
14221.0	1.6748471293837307e+18
14222.0	1.6745312244727805e+18
14223.0	1.674231182419558e+18
14224.0	1.673875762131763e+18
14225.0	1.6723832945508352e+18
14226.0	1.673066097043046e+18
14227.0	1.6729017256247293e+18
14228.0	1.6691314003279875e+18
14229.0	1.670933132397771e+18
14230.0	1.6720911377891323e+18
14231.0	1.6718463649185787e+18
14232.0	1.6715741009018877e+18
14233.0	1.6712842946281472e+18
14234.0	1.67099153556439e+18
14235.0	1.6706948774756352e+18
14236.0	1.6703997108813821e+18
14237.0	1.6700971321131003e+18
14238.0	1.6697901375815675e+18
14239.0	1.6694220639174653e+18
14240.0	1.6677785779044347e+18
14241.0	1.6687520037208061e+18
14242.0	1.668571058090803e+18
14243.0	1.6682231086972923e+18
14244.0	1.668021778749849e+18
14245.0	1.6677306084884475e+18
14246.0	1.667437740372787e+18
14247.0	1.667138077484646e+18
14248.0	1.6668223369904125e+18
14249.0	1.66653626196951e+18
14250.0	1.6662417194876925e+18
14251.0	1.6659428048633853e+18
14252.0	1.6656391674527736e+18
14253.0	1.6653221720227837e+18
14254.0	1.664994474406707e+18
14255.0	1.664545727499469e+18
14256.0	1.6633357681033213e+18
14257.0	1.6635302714015736e+18
14258.0	1.6637400520327163e+18
14259.0	1.663490145334067e+18
14260.0	1.6631739518550013e+18
14261.0	1.662854976713523e+18
14262.0	1.662414452319846e+18
14263.0	1.6606975357878272e+18
14264.0	1.660931156842905e+18
14265.0	1.661590372247142e+18
14266.0	1.6614374445678587e+18
14267.0	1.661186675520307e+18
14268.0	1.6609026959736832e+18
14269.0	1.6606053617631232e+18
14270.0	1.660307707107737e+18
14271.0	1.6599802242400253e+18
14272.0	1.6595955377766395e+18
14273.0	1.658904658732646e+18
14274.0	1.6563558858883072e+18
14275.0	1.6577335268474875e+18
14276.0	1.658322222579712e+18
14277.0	1.6581961401237504e+18
14278.0	1.6579577828605947e+18
14279.0	1.6576860255158272e+18
14280.0	1.6574033327816704e+18
14281.0	1.657121168529817e+18
14282.0	1.6568328470396925e+18
14283.0	1.6565423931654144e+18
14284.0	1.6562505652371453e+18
14285.0	1.655953291424563e+18
14286.0	1.655647006569267e+18
14287.0	1.655346253162086e+18
14288.0	1.6549930541776893e+18
14289.0	1.6538483262750712e+18
14290.0	1.6544126782668797e+18
14291.0	1.6541739368054781e+18
14292.0	1.6538829779369981e+18
14293.0	1.65358493237248e+18
14294.0	1.653209439823462e+18
14295.0	1.6529382512263165e+18
14296.0	1.65201043259392e+18
14297.0	1.6522502712852475e+18
14298.0	1.65176853701591e+18
14299.0	1.651751991325491e+18
14300.0	1.6515293257924605e+18
14301.0	1.6512515101949947e+18
14302.0	1.650962351521792e+18
14303.0	1.6506353988141056e+18
14304.0	1.6503638176301053e+18
14305.0	1.6500793582551037e+18
14306.0	1.649776885183283e+18
14307.0	1.649478116520755e+18
14308.0	1.6491789116506107e+18
14309.0	1.6488640435716093e+18
14310.0	1.6485467075641341e+18
14311.0	1.6482122554408957e+18
14312.0	1.6479354464763896e+18
14313.0	1.6475740937650176e+18
14314.0	1.6474160859447296e+18
14315.0	1.647127813108531e+18
14316.0	1.6468189714055163e+18
14317.0	1.646546863416934e+18
14318.0	1.646279226556416e+18
14319.0	1.6459977686253563e+18
14320.0	1.6457108681654267e+18
14321.0	1.645417879253811e+18
14322.0	1.6451086801960957e+18
14323.0	1.6448255126667261e+18
14324.0	1.644550763944345e+18
14325.0	1.6442534330892285e+18
14326.0	1.6439761778507776e+18
14327.0	1.6436790919430144e+18
14328.0	1.6433923777101821e+18
14329.0	1.64310939640791e+18
14330.0	1.6428198619250685e+18
14331.0	1.6425297788272637e+18
14332.0	1.6422397913595904e+18
14333.0	1.6419480036966397e+18
14334.0	1.6416400948068347e+18
14335.0	1.6413204066336763e+18
14336.0	1.6409430081929213e+18
14337.0	1.6407592976777213e+18
14338.0	1.6404797456384e+18
14339.0	1.6401826563751939e+18
14340.0	1.6399027218153472e+18
14341.0	1.639611291507097e+18
14342.0	1.639311928931123e+18
14343.0	1.6390353498144763e+18
14344.0	1.6387168796671997e+18
14345.0	1.638440157944217e+18
14346.0	1.6381588526858235e+18
14347.0	1.6378572587401213e+18
14348.0	1.6375749736923133e+18
14349.0	1.6372811039768576e+18
14350.0	1.636888258753331e+18
14351.0	1.6365948504113147e+18
14352.0	1.6364034810970112e+18
14353.0	1.6361304637833213e+18
14354.0	1.6358360773296123e+18
14355.0	1.6355269151817725e+18
14356.0	1.635232095875891e+18
14357.0	1.6349673698623485e+18
14358.0	1.6346997246132221e+18
14359.0	1.634396899219865e+18
14360.0	1.634113287094272e+18
14361.0	1.6338231519870976e+18
14362.0	1.6335198249549824e+18
14363.0	1.6332029167665147e+18
14364.0	1.6326622122606592e+18
14365.0	1.6324614930038781e+18
14366.0	1.6322859597037565e+18
14367.0	1.632080584769536e+18
14368.0	1.631797836670566e+18
14369.0	1.6315168770228221e+18
14370.0	1.6312306845614075e+18
14371.0	1.6309460741914621e+18
14372.0	1.6306495654199293e+18
14373.0	1.6303638930522107e+18
14374.0	1.6300782592720896e+18
14375.0	1.6297843979452416e+18
14376.0	1.629509520038297e+18
14377.0	1.629221555902873e+18
14378.0	1.6289328820912123e+18
14379.0	1.6286452132347896e+18
14380.0	1.6283571836682237e+18
14381.0	1.6280617771597821e+18
14382.0	1.6277843558268925e+18
14383.0	1.6274980325031933e+18
14384.0	1.6271934824120315e+18
14385.0	1.626924788586905e+18
14386.0	1.6266195422412797e+18
14387.0	1.626350447440691e+18
14388.0	1.6260611562274813e+18
14389.0	1.6257758428921853e+18
14390.0	1.6254885313904635e+18
14391.0	1.625203093903769e+18
14392.0	1.6249144335138816e+18
14393.0	1.624626685804544e+18
14394.0	1.6242858231070723e+18
14395.0	1.6240285025566712e+18
14396.0	1.623745885319987e+18
14397.0	1.6234642898157563e+18
14398.0	1.6231760270458875e+18
14399.0	1.6228806608027648e+18
14400.0	1.6225808603414528e+18
14401.0	1.622291077555814e+18
14402.0	1.6219802192314363e+18
14403.0	1.621478694558105e+18
14404.0	1.6191460726538235e+18
14405.0	1.619197686081125e+18
14406.0	1.6207462549946365e+18
14407.0	1.6204068871471101e+18
14408.0	1.6202628950130685e+18
14409.0	1.6199988753203197e+18
14410.0	1.6197159711932416e+18
14411.0	1.6194480809967608e+18
14412.0	1.6191687973928957e+18
14413.0	1.6188879014985723e+18
14414.0	1.6186015228100605e+18
14415.0	1.6183158974185467e+18
14416.0	1.618026222007091e+18
14417.0	1.617733231417753e+18
14418.0	1.6174461900292093e+18
14419.0	1.617166372909875e+18
14420.0	1.6168783802531837e+18
14421.0	1.6165897584508925e+18
14422.0	1.6162863257223163e+18
14423.0	1.6159341048496123e+18
14424.0	1.615107462896025e+18
14425.0	1.6153627483701248e+18
14426.0	1.615155590017843e+18
14427.0	1.6148823747330043e+18
14428.0	1.614575717423513e+18
14429.0	1.614300173461094e+18
14430.0	1.6139293533667323e+18
14431.0	1.6131880151678976e+18
14432.0	1.6133830284935165e+18
14433.0	1.6130197866676221e+18
14434.0	1.6128435285917693e+18
14435.0	1.6125636443635712e+18
14436.0	1.612303790453555e+18
14437.0	1.6120247719297021e+18
14438.0	1.611691455623987e+18
14439.0	1.6114331317960701e+18
14440.0	1.611180069303091e+18
14441.0	1.6108871072350205e+18
14442.0	1.6105972556627965e+18
14443.0	1.6102813272637437e+18
14444.0	1.6100258253635581e+18
14445.0	1.6097221644648443e+18
14446.0	1.6087171068854272e+18
14447.0	1.6090694082887675e+18
14448.0	1.6088973965262843e+18
14449.0	1.6086236208824312e+18
14450.0	1.608337720344576e+18
14451.0	1.6080572371697661e+18
14452.0	1.6077764939481085e+18
14453.0	1.6074913232191485e+18
14454.0	1.6072013139410944e+18
14455.0	1.606913329673011e+18
14456.0	1.6066233891815424e+18
14457.0	1.6063400740126715e+18
14458.0	1.6060534218555387e+18
14459.0	1.605758985070182e+18
14460.0	1.6054614126231555e+18
14461.0	1.6051447107944448e+18
14462.0	1.6048350637850621e+18
14463.0	1.6045951445630968e+18
14464.0	1.6043313647845368e+18
14465.0	1.6040413135634432e+18
14466.0	1.6037887023775744e+18
14467.0	1.6034975019171837e+18
14468.0	1.6032259542876157e+18
14469.0	1.6028951998627835e+18
14470.0	1.6026418890670077e+18
14471.0	1.6023794648875003e+18
14472.0	1.6020941263863803e+18
14473.0	1.6018203004108795e+18
14474.0	1.6015440954261504e+18
14475.0	1.601261827155558e+18
14476.0	1.6009752756617216e+18
14477.0	1.6006978811723776e+18
14478.0	1.6004168594489344e+18
14479.0	1.6001352907882493e+18
14480.0	1.5998384464723965e+18
14481.0	1.5995745106657275e+18
14482.0	1.5992878199209981e+18
14483.0	1.599001521763123e+18
14484.0	1.598705957548851e+18
14485.0	1.5983785283682301e+18
14486.0	1.5979441058480125e+18
14487.0	1.5978588339699707e+18
14488.0	1.5975823974596603e+18
14489.0	1.5972743157645312e+18
14490.0	1.5970214512427003e+18
14491.0	1.596761250044313e+18
14492.0	1.596482197966028e+18
14493.0	1.596183087048294e+18
14494.0	1.5958941817110528e+18
14495.0	1.595616221829529e+18
14496.0	1.595265395143475e+18
14497.0	1.5950626877865981e+18
14498.0	1.5947917474922493e+18
14499.0	1.5945141969747965e+18
14500.0	1.594232187073331e+18
14501.0	1.5939161479446525e+18
14502.0	1.5934786015068157e+18
14503.0	1.5933659827666944e+18
14504.0	1.593099808879411e+18
14505.0	1.592820496754278e+18
14506.0	1.592509041161011e+18
14507.0	1.592087183097856e+18
14508.0	1.5919654526517248e+18
14509.0	1.5917047129047035e+18
14510.0	1.5914236005842941e+18
14511.0	1.5911442414829565e+18
14512.0	1.5908553428566013e+18
14513.0	1.5905696889438203e+18
14514.0	1.590260583838515e+18
14515.0	1.589899999523635e+18
14516.0	1.587377949428941e+18
14517.0	1.5891575875829757e+18
14518.0	1.5891457646788603e+18
14519.0	1.5888650617225213e+18
14520.0	1.5886227685244928e+18
14521.0	1.5883335662305277e+18
14522.0	1.588045295072051e+18
14523.0	1.587747462578176e+18
14524.0	1.5874759250149376e+18
14525.0	1.587206853702451e+18
14526.0	1.586924421015142e+18
14527.0	1.5866003657326587e+18
14528.0	1.586269505611366e+18
14529.0	1.5860846693449725e+18
14530.0	1.585804986443366e+18
14531.0	1.5855386330398715e+18
14532.0	1.5852566801809405e+18
14533.0	1.5849794618523648e+18
14534.0	1.5847032015028221e+18
14535.0	1.5844157792714744e+18
14536.0	1.5841428089339901e+18
14537.0	1.5838564285677563e+18
14538.0	1.5835893856206848e+18
14539.0	1.583311434127769e+18
14540.0	1.5830312864972795e+18
14541.0	1.582723870857625e+18
14542.0	1.582468790065561e+18
14543.0	1.5821740026363904e+18
14544.0	1.5819006833328125e+18
14545.0	1.5815819799822333e+18
14546.0	1.58026113828782e+18
14547.0	1.5799405324009467e+18
14548.0	1.5807197602643963e+18
14549.0	1.5804132589830144e+18
14550.0	1.5802129054695421e+18
14551.0	1.5799612673622013e+18
14552.0	1.5796800225017853e+18
14553.0	1.5794009486131197e+18
14554.0	1.5791306441752576e+18
14555.0	1.5788504931893248e+18
14556.0	1.5785649332289533e+18
14557.0	1.5782715349532672e+18
14558.0	1.577881578766336e+18
14559.0	1.5759604566720504e+18
14560.0	1.5773141213118464e+18
14561.0	1.5771493036195837e+18
14562.0	1.5768615055785981e+18
14563.0	1.5766085672370176e+18
14564.0	1.5762896709484541e+18
14565.0	1.5760669819273213e+18
14566.0	1.575793431098163e+18
14567.0	1.5755130687193085e+18
14568.0	1.575225678364672e+18
14569.0	1.5749140499660797e+18
14570.0	1.5742013555081213e+18
14571.0	1.5743695655534592e+18
14572.0	1.5740860859678715e+18
14573.0	1.5737907750895613e+18
14574.0	1.5735424941031421e+18
14575.0	1.573277645615923e+18
14576.0	1.572981687137075e+18
14577.0	1.5727286129000448e+18
14578.0	1.5724456013987835e+18
14579.0	1.5721763690250235e+18
14580.0	1.5718976524910587e+18
14581.0	1.5716182749347837e+18
14582.0	1.5713302386573307e+18
14583.0	1.5710663481491453e+18
14584.0	1.5707706362953725e+18
14585.0	1.570507727254323e+18
14586.0	1.5702384529375232e+18
14587.0	1.5699643685928957e+18
14588.0	1.5696884941193213e+18
14589.0	1.5694119150026747e+18
14590.0	1.569134658086502e+18
14591.0	1.5688509301981181e+18
14592.0	1.5685551327805437e+18
14593.0	1.5682169812811776e+18
14594.0	1.568004314968883e+18
14595.0	1.567715082475929e+18
14596.0	1.5670823029309435e+18
14597.0	1.5667452134293496e+18
14598.0	1.5668369948671997e+18
14599.0	1.5666301284384765e+18
14600.0	1.5663616644612093e+18
14601.0	1.5660869258051581e+18
14602.0	1.5658021057200125e+18
14603.0	1.5655280129867776e+18
14604.0	1.565211965469491e+18
14605.0	1.5649094873645053e+18
14606.0	1.5646036638826496e+18
14607.0	1.564423535303065e+18
14608.0	1.5641177151766523e+18
14609.0	1.563811970547712e+18
14610.0	1.563523655768473e+18
14611.0	1.563235143018086e+18
14612.0	1.563055621773721e+18
14613.0	1.562784595915571e+18
14614.0	1.5624646409846781e+18
14615.0	1.5622020708433912e+18
14616.0	1.5619539962167293e+18
14617.0	1.5615663435415547e+18
14618.0	1.5612529317249021e+18
14619.0	1.560588726776627e+18
14620.0	1.5601163978145787e+18
14621.0	1.560484499999948e+18
14622.0	1.5602826482810877e+18
14623.0	1.5600272638214141e+18
14624.0	1.559729092427776e+18
14625.0	1.5594839236149243e+18
14626.0	1.55918285144064e+18
14627.0	1.5589117786062848e+18
14628.0	1.5586775015620603e+18
14629.0	1.5584027964604416e+18
14630.0	1.558092872626995e+18
14631.0	1.557817130693427e+18
14632.0	1.557455663896985e+18
14633.0	1.5572659051954173e+18
14634.0	1.5570238485561344e+18
14635.0	1.5567086935867387e+18
14636.0	1.5563137143013373e+18
14637.0	1.5562046640750587e+18
14638.0	1.5559084354830333e+18
14639.0	1.555628557965721e+18
14640.0	1.555355762111283e+18
14641.0	1.5549128553529341e+18
14642.0	1.5548000789069821e+18
14643.0	1.554531101546905e+18
14644.0	1.5542439695613955e+18
14645.0	1.5539325206790141e+18
14646.0	1.5536532102316032e+18
14647.0	1.5534076370878464e+18
14648.0	1.5531406344060925e+18
