# Flux units: erg / (cm m2 s)
# Wavelength units: Angstrom
wave	flux
14000.0	2.5001290815766523e+18
14001.0	2.4997115704901627e+18
14002.0	2.499177345345126e+18
14003.0	2.4986173772398587e+18
14004.0	2.4980560283697147e+18
14005.0	2.497494271813222e+18
14006.0	2.496929309130751e+18
14007.0	2.4963655862845435e+18
14008.0	2.4957595647213563e+18
14009.0	2.495245302785638e+18
14010.0	2.4946777278906363e+18
14011.0	2.493861585118822e+18
14012.0	2.4935623248838656e+18
14013.0	2.4930023987216384e+18
14014.0	2.492438427572633e+18
14015.0	2.4918797110476795e+18
14016.0	2.491320284846489e+18
14017.0	2.490759860400947e+18
14018.0	2.490199360457933e+18
14019.0	2.489639256457216e+18
14020.0	2.4890786491400187e+18
14021.0	2.4885177868091387e+18
14022.0	2.487950082729574e+18
14023.0	2.4873673965961216e+18
14024.0	2.4868168639971323e+18
14025.0	2.486277550322483e+18
14026.0	2.4857198337196027e+18
14027.0	2.48516167419822e+18
14028.0	2.48457838240727e+18
14029.0	2.484003652029645e+18
14030.0	2.4806664741847055e+18
14031.0	2.482779400123186e+18
14032.0	2.4823281014013947e+18
14033.0	2.4817414994657275e+18
14034.0	2.481212440025497e+18
14035.0	2.4806607531540475e+18
14036.0	2.4800932000694267e+18
14037.0	2.479547108399513e+18
14038.0	2.4789912775557115e+18
14039.0	2.478434372970086e+18
14040.0	2.477873413331353e+18
14041.0	2.4773189565415424e+18
14042.0	2.4767585203519483e+18
14043.0	2.4761900612976635e+18
14044.0	2.4756466002952187e+18
14045.0	2.4750930159206395e+18
14046.0	2.474534854721536e+18
14047.0	2.4739673788121083e+18
14048.0	2.473424249998541e+18
14049.0	2.4728707360882683e+18
14050.0	2.472315588077158e+18
14051.0	2.4717560226250747e+18
14052.0	2.4712050219417595e+18
14053.0	2.4706500601577467e+18
14054.0	2.47009520910336e+18
14055.0	2.4695404218023936e+18
14056.0	2.468985767041433e+18
14057.0	2.4684312666308603e+18
14058.0	2.467876893727129e+18
14059.0	2.467317202445926e+18
14060.0	2.466768342535373e+18
14061.0	2.4662117416173563e+18
14062.0	2.4656606033608694e+18
14063.0	2.4650976422002683e+18
14064.0	2.464180258996224e+18
14065.0	2.4639960283873275e+18
14066.0	2.4634466634825723e+18
14067.0	2.462842333062758e+18
14068.0	2.4623406674608123e+18
14069.0	2.4617828652941307e+18
14070.0	2.461232747092377e+18
14071.0	2.4606815920586747e+18
14072.0	2.460130598086246e+18
14073.0	2.4595783022018555e+18
14074.0	2.459025788213657e+18
14075.0	2.458462405944934e+18
14076.0	2.457867410368102e+18
14077.0	2.456718412664013e+18
14078.0	2.4567701787639803e+18
14079.0	2.4562616160485366e+18
14080.0	2.455716264253849e+18
14081.0	2.4551657735979003e+18
14082.0	2.4546118067027963e+18
14083.0	2.4540629652471803e+18
14084.0	2.4535089798971387e+18
14085.0	2.452470792349286e+18
14086.0	2.4523529256959995e+18
14087.0	2.451860454008422e+18
14088.0	2.451296972754125e+18
14089.0	2.45071826953175e+18
14090.0	2.450204794447462e+18
14091.0	2.449662415575449e+18
14092.0	2.4491137687355387e+18
14093.0	2.448564150494822e+18
14094.0	2.448013664872038e+18
14095.0	2.447459281901977e+18
14096.0	2.446802601535078e+18
14097.0	2.4463007497060347e+18
14098.0	2.445761835329126e+18
14099.0	2.445266689353318e+18
14100.0	2.444713250940518e+18
14101.0	2.4441757324279803e+18
14102.0	2.4436280502779904e+18
14103.0	2.4430748148695035e+18
14104.0	2.442532986290176e+18
14105.0	2.4419850289938427e+18
14106.0	2.441437944112742e+18
14107.0	2.440889466722713e+18
14108.0	2.440333273491046e+18
14109.0	2.4397926595821563e+18
14110.0	2.439242972554854e+18
14111.0	2.438693262039449e+18
14112.0	2.438147373373849e+18
14113.0	2.4375764782678006e+18
14114.0	2.4370498901114875e+18
14115.0	2.436498857551462e+18
14116.0	2.4358351726968827e+18
14117.0	2.430712543392563e+18
14118.0	2.4348446257315835e+18
14119.0	2.4342387216089083e+18
14120.0	2.433712089831833e+18
14121.0	2.433212506282393e+18
14122.0	2.432662112934297e+18
14123.0	2.4320621563346934e+18
14124.0	2.431517432007885e+18
14125.0	2.430822058347724e+18
14126.0	2.4304888527716347e+18
14127.0	2.429967339723161e+18
14128.0	2.4294280461811707e+18
14129.0	2.4288788456931323e+18
14130.0	2.4283297223802875e+18
14131.0	2.4277935275900923e+18
14132.0	2.4272483351789563e+18
14133.0	2.4264424130871286e+18
14134.0	2.4261622084141056e+18
14135.0	2.4255752390574075e+18
14136.0	2.4249449509289984e+18
14137.0	2.4245114108903424e+18
14138.0	2.4239419233927163e+18
14139.0	2.4234454234955776e+18
14140.0	2.422891394524774e+18
14141.0	2.422273867146854e+18
14142.0	2.4214909432627195e+18
14143.0	2.421258983152025e+18
14144.0	2.420737424805069e+18
14145.0	2.4201994549854203e+18
14146.0	2.4196496169631744e+18
14147.0	2.419112142071398e+18
14148.0	2.418368748663602e+18
14149.0	2.417690177385267e+18
14150.0	2.4171717479890934e+18
14151.0	2.4165964455084027e+18
14152.0	2.416089139406438e+18
14153.0	2.4155477822668795e+18
14154.0	2.4149921997258747e+18
14155.0	2.414366406213632e+18
14156.0	2.4139071936790523e+18
14157.0	2.4133829056790523e+18
14158.0	2.4128397298892795e+18
14159.0	2.412302469745868e+18
14160.0	2.411757446784614e+18
14161.0	2.4111914388815867e+18
14162.0	2.410625362191974e+18
14163.0	2.410127307046912e+18
14164.0	2.4094585974161403e+18
14165.0	2.4089818006814715e+18
14166.0	2.408303487772262e+18
14167.0	2.4076358451724283e+18
14168.0	2.40709306196951e+18
14169.0	2.406560408849613e+18
14170.0	2.406018308479385e+18
14171.0	2.405485442288845e+18
14172.0	2.404948516012032e+18
14173.0	2.404374406391398e+18
14174.0	2.4038636810928123e+18
14175.0	2.403331076626841e+18
14176.0	2.402790305012121e+18
14177.0	2.402252851930726e+18
14178.0	2.401713659052032e+18
14179.0	2.401169461529805e+18
14180.0	2.400637863696793e+18
14181.0	2.4000994559918075e+18
14182.0	2.399560654022246e+18
14183.0	2.399022321814733e+18
14184.0	2.398480013407027e+18
14185.0	2.397934089509273e+18
14186.0	2.3960864046448635e+18
14187.0	2.3963499747082235e+18
14188.0	2.3958508022005755e+18
14189.0	2.395307101283942e+18
14190.0	2.3947709165600763e+18
14191.0	2.3942291332792315e+18
14192.0	2.3936942437564416e+18
14193.0	2.393008366000537e+18
14194.0	2.3926207653347323e+18
14195.0	2.3920913854496763e+18
14196.0	2.3915551235506176e+18
14197.0	2.3910183633682427e+18
14198.0	2.390479247664742e+18
14199.0	2.3899420378529787e+18
14200.0	2.388881479565312e+18
14201.0	2.3888321914601467e+18
14202.0	2.3883349751758843e+18
14203.0	2.3877919872909307e+18
14204.0	2.3872623356149755e+18
14205.0	2.386726456236441e+18
14206.0	2.3861296889855995e+18
14207.0	2.3856560463675387e+18
14208.0	2.385089637489049e+18
14209.0	2.3841712577183734e+18
14210.0	2.3836517982011387e+18
14211.0	2.383162747387904e+18
14212.0	2.382626842843545e+18
14213.0	2.382083610011238e+18
14214.0	2.381555173005721e+18
14215.0	2.3810122857840635e+18
14216.0	2.380485127202406e+18
14217.0	2.3799501672153083e+18
14218.0	2.3794082279063547e+18
14219.0	2.3788799301517307e+18
14220.0	2.378340889945702e+18
14221.0	2.377798343301529e+18
14222.0	2.3771958248210427e+18
14223.0	2.376737749781709e+18
14224.0	2.37620164558848e+18
14225.0	2.374205841394894e+18
14226.0	2.3751144534704123e+18
14227.0	2.374598790637158e+18
14228.0	2.3710667722719237e+18
14229.0	2.372934460610967e+18
14230.0	2.3730006198845435e+18
14231.0	2.372392341785805e+18
14232.0	2.3719360216432635e+18
14233.0	2.3714003050037243e+18
14234.0	2.3705162195402747e+18
14235.0	2.3699776306413563e+18
14236.0	2.3694448181379067e+18
14237.0	2.3689083180023803e+18
14238.0	2.3683747656237056e+18
14239.0	2.367832249178521e+18
14240.0	2.3666640851828736e+18
14241.0	2.3667574705225723e+18
14242.0	2.366235440735846e+18
14243.0	2.3656348315025403e+18
14244.0	2.3651785499475963e+18
14245.0	2.3646398285086715e+18
14246.0	2.3641026103083003e+18
14247.0	2.3635781830574075e+18
14248.0	2.3630424680955904e+18
14249.0	2.3625152222724096e+18
14250.0	2.3619828325548027e+18
14251.0	2.3614517934030843e+18
14252.0	2.3609193583869947e+18
14253.0	2.3603861952397307e+18
14254.0	2.3598512469966843e+18
14255.0	2.359295305423257e+18
14256.0	2.3571882112450565e+18
14257.0	2.3580875807522806e+18
14258.0	2.3577208123555835e+18
14259.0	2.357184094116249e+18
14260.0	2.3566173127835643e+18
14261.0	2.3559915930910715e+18
14262.0	2.3552414753751035e+18
14263.0	2.3524015138144266e+18
14264.0	2.353589337351782e+18
14265.0	2.353647242235085e+18
14266.0	2.3531345640685563e+18
14267.0	2.352606424019762e+18
14268.0	2.352076430088601e+18
14269.0	2.3515444396687355e+18
14270.0	2.3510140145631227e+18
14271.0	2.350480235692032e+18
14272.0	2.349943547651686e+18
14273.0	2.349369347434086e+18
14274.0	2.34524267910267e+18
14275.0	2.347913105217945e+18
14276.0	2.3477860698161147e+18
14277.0	2.3472715914543104e+18
14278.0	2.3467540445396987e+18
14279.0	2.346225313932902e+18
14280.0	2.345693588593049e+18
14281.0	2.345167950027161e+18
14282.0	2.3446388553547776e+18
14283.0	2.3441095576780795e+18
14284.0	2.343580164371251e+18
14285.0	2.3430503784775675e+18
14286.0	2.342520449977549e+18
14287.0	2.3419926035300347e+18
14288.0	2.3414628646125563e+18
14289.0	2.340519488467762e+18
14290.0	2.3404041971171323e+18
14291.0	2.3398771391987707e+18
14292.0	2.3393490176049147e+18
14293.0	2.3386554206519296e+18
14294.0	2.3378585934888955e+18
14295.0	2.3373879707697147e+18
14296.0	2.336530648321229e+18
14297.0	2.336331185677926e+18
14298.0	2.335270432774553e+18
14299.0	2.3352556621135867e+18
14300.0	2.3347461229641723e+18
14301.0	2.3342186707812347e+18
14302.0	2.3336908444663803e+18
14303.0	2.3331417479970816e+18
14304.0	2.332623964523725e+18
14305.0	2.3320952037179387e+18
14306.0	2.3315257665519606e+18
14307.0	2.3310025120284667e+18
14308.0	2.3304845993705467e+18
14309.0	2.3299382526869504e+18
14310.0	2.3293048809062395e+18
14311.0	2.328772023104307e+18
14312.0	2.3282681244549115e+18
14313.0	2.327804135446937e+18
14314.0	2.3273065299312635e+18
14315.0	2.3268055672946683e+18
14316.0	2.326263975274086e+18
14317.0	2.325700955393229e+18
14318.0	2.3252443869478907e+18
14319.0	2.324725346861056e+18
14320.0	2.3242016863289344e+18
14321.0	2.3236776634089467e+18
14322.0	2.3231331102097403e+18
14323.0	2.322617907072205e+18
14324.0	2.3221023130255355e+18
14325.0	2.3215724466012155e+18
14326.0	2.3210535893860347e+18
14327.0	2.320524712817459e+18
14328.0	2.320000470115942e+18
14329.0	2.319478530926182e+18
14330.0	2.318620190100685e+18
14331.0	2.318051573340569e+18
14332.0	2.317535521275904e+18
14333.0	2.3170097065492475e+18
14334.0	2.316483786126131e+18
14335.0	2.3159509031583744e+18
14336.0	2.3152639566938107e+18
14337.0	2.314906063444377e+18
14338.0	2.3143803426701307e+18
14339.0	2.3138441747234806e+18
14340.0	2.3133274247266304e+18
14341.0	2.312795620533862e+18
14342.0	2.312279808383385e+18
14343.0	2.311752800796672e+18
14344.0	2.3112272461168635e+18
14345.0	2.3107032601067515e+18
14346.0	2.310172777958605e+18
14347.0	2.3096150143795195e+18
14348.0	2.309120735785779e+18
14349.0	2.3086030915633147e+18
14350.0	2.307944429807206e+18
14351.0	2.307413820152217e+18
14352.0	2.30702977122304e+18
14353.0	2.3065096943042555e+18
14354.0	2.3059688471920635e+18
14355.0	2.3054128200548347e+18
14356.0	2.3048986571046904e+18
14357.0	2.3044141243957245e+18
14358.0	2.3038911987056632e+18
14359.0	2.3033583392260093e+18
14360.0	2.3028330664034296e+18
14361.0	2.3023145581543421e+18
14362.0	2.30179658006528e+18
14363.0	2.3012707603054587e+18
14364.0	2.300315608232755e+18
14365.0	2.3001132884295667e+18
14366.0	2.2996345824477184e+18
14367.0	2.2991817519661048e+18
14368.0	2.2986591198773243e+18
14369.0	2.2981367058923517e+18
14370.0	2.2975530148036603e+18
14371.0	2.2966821783076864e+18
14372.0	2.2960858539753467e+18
14373.0	2.295565225086156e+18
14374.0	2.2950418615107584e+18
14375.0	2.294518425793331e+18
14376.0	2.2939950387298301e+18
14377.0	2.2934714134298621e+18
14378.0	2.2929471740837885e+18
14379.0	2.2924252600598523e+18
14380.0	2.291901540807475e+18
14381.0	2.2913725233102843e+18
14382.0	2.2908551810777083e+18
14383.0	2.290329020740403e+18
14384.0	2.289799068752281e+18
14385.0	2.2892877478625277e+18
14386.0	2.288756504028774e+18
14387.0	2.2882424182538232e+18
14388.0	2.2877190899105787e+18
14389.0	2.2871973352701947e+18
14390.0	2.2866742887841784e+18
14391.0	2.2861491803783165e+18
14392.0	2.2856296235532283e+18
14393.0	2.2851082698883067e+18
14394.0	2.2845635019407357e+18
14395.0	2.2840380529573883e+18
14396.0	2.283539930703462e+18
14397.0	2.283020511451545e+18
14398.0	2.282497761922252e+18
14399.0	2.281975081179545e+18
14400.0	2.2814417569710077e+18
14401.0	2.2809278960107515e+18
14402.0	2.280405983664537e+18
14403.0	2.2788178255544302e+18
14404.0	2.2762783472877555e+18
14405.0	2.2781460725366764e+18
14406.0	2.2783177957310461e+18
14407.0	2.2763314924748803e+18
14408.0	2.2772160846102523e+18
14409.0	2.276753592129945e+18
14410.0	2.2762110790402043e+18
14411.0	2.2757193052848128e+18
14412.0	2.2751994364035067e+18
14413.0	2.2746801446584315e+18
14414.0	2.2741577793273848e+18
14415.0	2.2736370329976827e+18
14416.0	2.273098450809651e+18
14417.0	2.2725348621811712e+18
14418.0	2.272025928689254e+18
14419.0	2.271549066523443e+18
14420.0	2.2705348368400384e+18
14421.0	2.269987117780172e+18
14422.0	2.2694564376608765e+18
14423.0	2.2688722331893755e+18
14424.0	2.262364052468528e+18
14425.0	2.2678549550858237e+18
14426.0	2.2673768866381821e+18
14427.0	2.266863042455142e+18
14428.0	2.2663320486019064e+18
14429.0	2.26582173098967e+18
14430.0	2.265297672837529e+18
14431.0	2.2640832473464827e+18
14432.0	2.2642501353471995e+18
14433.0	2.2626448393109494e+18
14434.0	2.2632017036312568e+18
14435.0	2.2626163532759037e+18
14436.0	2.2621720590417915e+18
14437.0	2.2616583541096445e+18
14438.0	2.261046205507174e+18
14439.0	2.2606037500559355e+18
14440.0	2.2600994353315832e+18
14441.0	2.2595777142456315e+18
14442.0	2.259055919339929e+18
14443.0	2.2585173002420221e+18
14444.0	2.2580166312067067e+18
14445.0	2.2574959066873856e+18
14446.0	2.2556163400794115e+18
14447.0	2.256440242313625e+18
14448.0	2.2559375449128955e+18
14449.0	2.2554178807136256e+18
14450.0	2.2548941815939067e+18
14451.0	2.254375698510643e+18
14452.0	2.2538519658364923e+18
14453.0	2.2533150865358845e+18
14454.0	2.2528119462166523e+18
14455.0	2.2522877051928573e+18
14456.0	2.2517564462596096e+18
14457.0	2.2512343426531323e+18
14458.0	2.250706608612966e+18
14459.0	2.2501800875655165e+18
14460.0	2.2496412805627901e+18
14461.0	2.249062659548774e+18
14462.0	2.2484690212487165e+18
14463.0	2.2480491999395837e+18
14464.0	2.2475741379690493e+18
14465.0	2.2470638102904827e+18
14466.0	2.246563293927833e+18
14467.0	2.2460272568434685e+18
14468.0	2.2455293896032248e+18
14469.0	2.2449642591485947e+18
14470.0	2.2444780940165117e+18
14471.0	2.2439791362572283e+18
14472.0	2.2434638576222203e+18
14473.0	2.2429498070794232e+18
14474.0	2.2424334446362621e+18
14475.0	2.241912659718963e+18
14476.0	2.2409872838492155e+18
14477.0	2.2405311683887101e+18
14478.0	2.240015456901529e+18
14479.0	2.2394927627370496e+18
14480.0	2.2389657199181814e+18
14481.0	2.23845755650048e+18
14482.0	2.2379360921059323e+18
14483.0	2.2374132905672701e+18
14484.0	2.2368930727198715e+18
14485.0	2.23635951363031e+18
14486.0	2.235709725343744e+18
14487.0	2.235331883984486e+18
14488.0	2.2347116839960573e+18
14489.0	2.2342312617050104e+18
14490.0	2.233768822911795e+18
14491.0	2.2332628321435643e+18
14492.0	2.232743679649382e+18
14493.0	2.2322107396390912e+18
14494.0	2.2316921709920253e+18
14495.0	2.23118395220951e+18
14496.0	2.2305971137150973e+18
14497.0	2.230145769694822e+18
14498.0	2.229627123872563e+18
14499.0	2.2291077264310267e+18
14500.0	2.2285876528676861e+18
14501.0	2.2280303523397635e+18
14502.0	2.2273766767722493e+18
14503.0	2.2269930321739768e+18
14504.0	2.2265056188170232e+18
14505.0	2.2259508013170683e+18
14506.0	2.225397587718963e+18
14507.0	2.2248260232019965e+18
14508.0	2.2244305422778365e+18
14509.0	2.2239115978211323e+18
14510.0	2.2233920393183227e+18
14511.0	2.222872116749926e+18
14512.0	2.2223443374112768e+18
14513.0	2.2218324226080765e+18
14514.0	2.2212946625036283e+18
14515.0	2.2207912654929915e+18
14516.0	2.2192528451174403e+18
14517.0	2.2197481974530045e+18
14518.0	2.21923334160384e+18
14519.0	2.2187138099445755e+18
14520.0	2.218193780001996e+18
14521.0	2.2176730689044477e+18
14522.0	2.2171404325617661e+18
14523.0	2.2164862201233403e+18
14524.0	2.2160218469171192e+18
14525.0	2.2155895131602936e+18
14526.0	2.2150742311698427e+18
14527.0	2.2145421602193403e+18
14528.0	2.213968662967091e+18
14529.0	2.2135092155514877e+18
14530.0	2.2129874810437627e+18
14531.0	2.21247362343895e+18
14532.0	2.211851277644595e+18
14533.0	2.21143301661655e+18
14534.0	2.2109159512080381e+18
14535.0	2.2103897220841464e+18
14536.0	2.2098760624504827e+18
14537.0	2.2093498433929216e+18
14538.0	2.2088363397873661e+18
14539.0	2.20831649103872e+18
14540.0	2.2076687999041536e+18
14541.0	2.2069348134813693e+18
14542.0	2.2064251367587832e+18
14543.0	2.2058500188274683e+18
14544.0	2.2053821442162683e+18
14545.0	2.2048509037379581e+18
14546.0	2.198443919828579e+18
14547.0	2.198457707344687e+18
14548.0	2.2032859267071995e+18
14549.0	2.202716388877926e+18
14550.0	2.2022534434127867e+18
14551.0	2.2017366749609981e+18
14552.0	2.2012144623026173e+18
14553.0	2.2006906843299837e+18
14554.0	2.2001718506029048e+18
14555.0	2.1996493325991933e+18
14556.0	2.1991252744470523e+18
14557.0	2.1986037697871867e+18
14558.0	2.1980763092156416e+18
14559.0	2.1967821500055534e+18
14560.0	2.1970068120272893e+18
14561.0	2.1965068442796024e+18
14562.0	2.195963975512883e+18
14563.0	2.1954527921963003e+18
14564.0	2.194892468414054e+18
14565.0	2.1944227868966904e+18
14566.0	2.1939013761892347e+18
14567.0	2.1933675939627005e+18
14568.0	2.1927956116930557e+18
14569.0	2.1923194290044923e+18
14570.0	2.191555018778214e+18
14571.0	2.1912791443046395e+18
14572.0	2.190712428403097e+18
14573.0	2.1901888198803453e+18
14574.0	2.189603011506995e+18
14575.0	2.1891532227346427e+18
14576.0	2.1886355466354685e+18
14577.0	2.1881473833369595e+18
14578.0	2.1876278147678205e+18
14579.0	2.1871062278995965e+18
14580.0	2.186581451682611e+18
14581.0	2.1860509007478776e+18
14582.0	2.185522259060326e+18
14583.0	2.185011406254899e+18
14584.0	2.1844570065076221e+18
14585.0	2.1839621323227133e+18
14586.0	2.1834384130703357e+18
14587.0	2.1829146116096e+18
14588.0	2.1823916372656123e+18
14589.0	2.1818772864106493e+18
14590.0	2.1813637156962301e+18
14591.0	2.1808442528235517e+18
14592.0	2.1803289993543677e+18
14593.0	2.1797612701089787e+18
14594.0	2.1793060992057336e+18
14595.0	2.1787879751548925e+18
14596.0	2.1779306912940024e+18
14597.0	2.1773457788239864e+18
14598.0	2.177205382047334e+18
14599.0	2.1767282682232827e+18
14600.0	2.1762069112029181e+18
14601.0	2.1756931727163384e+18
14602.0	2.1751695239282685e+18
14603.0	2.1746560119341053e+18
14604.0	2.174111348005273e+18
14605.0	2.1735776999964672e+18
14606.0	2.1730708099694587e+18
14607.0	2.172592045267353e+18
14608.0	2.172077883994931e+18
14609.0	2.1715492305633277e+18
14610.0	2.1710121465806843e+18
14611.0	2.1705155208544253e+18
14612.0	2.1700156990685181e+18
14613.0	2.169505940137574e+18
14614.0	2.1689912570937336e+18
14615.0	2.1684733796679677e+18
14616.0	2.1679621141430264e+18
14617.0	2.1674447651995643e+18
14618.0	2.166847831854284e+18
14619.0	2.1655690103750646e+18
14620.0	2.1643949575766016e+18
14621.0	2.1648704943423485e+18
14622.0	2.1643576215601147e+18
14623.0	2.1638399605604347e+18
14624.0	2.163291488203571e+18
14625.0	2.1628022763290624e+18
14626.0	2.1622812162654203e+18
14627.0	2.1617589297872893e+18
14628.0	2.16124393300951e+18
14629.0	2.16072245519319e+18
14630.0	2.1601959811219448e+18
14631.0	2.1596813853196285e+18
14632.0	2.158705355679334e+18
14633.0	2.1585385834414072e+18
14634.0	2.1581051876868093e+18
14635.0	2.1574732738461686e+18
14636.0	2.1567559354548221e+18
14637.0	2.1565541491671037e+18
14638.0	2.1560074300293115e+18
14639.0	2.1554819844014077e+18
14640.0	2.154976364409651e+18
14641.0	2.152652577387314e+18
14642.0	2.1539267868098552e+18
14643.0	2.1534085503516667e+18
14644.0	2.1528741205245947e+18
14645.0	2.152347965220454e+18
14646.0	2.1517771774885885e+18
14647.0	2.1512339463340027e+18
14648.0	2.1507524352016381e+18
14649.0	2.150252093322035e+18
14650.0	2.1497208025120765e+18
