# Flux units: erg / (cm m2 s)
# Wavelength units: Angstrom
wave	flux
14000.0	2.3837923593945083e+18
14001.0	2.38313687524311e+18
14002.0	2.3826942805409787e+18
14003.0	2.382134295658496e+18
14004.0	2.381574010463846e+18
14005.0	2.381012493821542e+18
14006.0	2.380430718690918e+18
14007.0	2.3798608855826427e+18
14008.0	2.3790426691469307e+18
14009.0	2.3787647830851584e+18
14010.0	2.3781631974178806e+18
14011.0	2.3761731192881157e+18
14012.0	2.3770767569190907e+18
14013.0	2.376523526543769e+18
14014.0	2.3759426976481275e+18
14015.0	2.3753966613430267e+18
14016.0	2.3748436524269563e+18
14017.0	2.3742798708604923e+18
14018.0	2.37372141773783e+18
14019.0	2.373135887866265e+18
14020.0	2.372526074652262e+18
14021.0	2.3719677893017595e+18
14022.0	2.3714087254884347e+18
14023.0	2.3708061231218683e+18
14024.0	2.370247628056166e+18
14025.0	2.3697322839900155e+18
14026.0	2.3691710106173435e+18
14027.0	2.368614344268185e+18
14028.0	2.368040227936665e+18
14029.0	2.3674890695475195e+18
14030.0	2.3658901001994245e+18
14031.0	2.36632119747543e+18
14032.0	2.365822622236671e+18
14033.0	2.365138298050969e+18
14034.0	2.3647102642946043e+18
14035.0	2.364143618857369e+18
14036.0	2.363595797456486e+18
14037.0	2.3629896718745595e+18
14038.0	2.36241269334999e+18
14039.0	2.3618427444789243e+18
14040.0	2.3612662793371643e+18
14041.0	2.3607317471690747e+18
14042.0	2.3601582985707515e+18
14043.0	2.359528814070989e+18
14044.0	2.359049359825305e+18
14045.0	2.3585065615228923e+18
14046.0	2.357944999582105e+18
14047.0	2.3573825484488704e+18
14048.0	2.356848163920281e+18
14049.0	2.3562972253126656e+18
14050.0	2.3557394348900347e+18
14051.0	2.3551506770821115e+18
14052.0	2.354617612920422e+18
14053.0	2.3540764856287227e+18
14054.0	2.353523657906585e+18
14055.0	2.352966474819174e+18
14056.0	2.352414420526694e+18
14057.0	2.3517832599830523e+18
14058.0	2.351235997263462e+18
14059.0	2.350682172974694e+18
14060.0	2.3501284258611195e+18
14061.0	2.349558441757901e+18
14062.0	2.3490214366281723e+18
14063.0	2.348422297078989e+18
14064.0	2.347780097127219e+18
14065.0	2.3473410558394363e+18
14066.0	2.3468020558987254e+18
14067.0	2.346229127394098e+18
14068.0	2.3457043545325563e+18
14069.0	2.3451476563066875e+18
14070.0	2.3445990832865275e+18
14071.0	2.344040900277043e+18
14072.0	2.343492889293619e+18
14073.0	2.342944074681549e+18
14074.0	2.342390085976064e+18
14075.0	2.3417878996844544e+18
14076.0	2.341259435835392e+18
14077.0	2.3404839291584507e+18
14078.0	2.340160479533465e+18
14079.0	2.3395736813043707e+18
14080.0	2.3390166357901307e+18
14081.0	2.338465932063539e+18
14082.0	2.3378695490109435e+18
14083.0	2.3373563255848955e+18
14084.0	2.336814042343014e+18
14085.0	2.3354695598735365e+18
14086.0	2.335685866841702e+18
14087.0	2.335164971194777e+18
14088.0	2.334581800199782e+18
14089.0	2.334037661397811e+18
14090.0	2.3335080063664123e+18
14091.0	2.3329674914430976e+18
14092.0	2.332413787950285e+18
14093.0	2.3318697582002176e+18
14094.0	2.3313208529911803e+18
14095.0	2.330771957848473e+18
14096.0	2.3301664999997435e+18
14097.0	2.329606261781299e+18
14098.0	2.329098044676505e+18
14099.0	2.328578647234969e+18
14100.0	2.327996742919782e+18
14101.0	2.3274843818426363e+18
14102.0	2.3269304350801915e+18
14103.0	2.3263568438755323e+18
14104.0	2.325794610846105e+18
14105.0	2.3252195919003643e+18
14106.0	2.3246793789669376e+18
14107.0	2.3241127268188155e+18
14108.0	2.3235449153650683e+18
14109.0	2.323024977697177e+18
14110.0	2.3224393622618107e+18
14111.0	2.3218302671126523e+18
14112.0	2.3213737238331387e+18
14113.0	2.320836322761113e+18
14114.0	2.320261753444761e+18
14115.0	2.3197525750054907e+18
14116.0	2.319052569155993e+18
14117.0	2.316963111187251e+18
14118.0	2.318120734058086e+18
14119.0	2.3175326154620923e+18
14120.0	2.3170062940635126e+18
14121.0	2.316430421157478e+18
14122.0	2.315916469600256e+18
14123.0	2.3153423918563323e+18
14124.0	2.314799830112665e+18
14125.0	2.3130346606297073e+18
14126.0	2.31375386968064e+18
14127.0	2.313224603880653e+18
14128.0	2.312677458601574e+18
14129.0	2.3121025638072315e+18
14130.0	2.3115221929295867e+18
14131.0	2.3110353013440507e+18
14132.0	2.3104226041266176e+18
14133.0	2.308412804379439e+18
14134.0	2.309352432494182e+18
14135.0	2.3087631042609147e+18
14136.0	2.308165405874585e+18
14137.0	2.307720911991602e+18
14138.0	2.307159339984486e+18
14139.0	2.3066391036821494e+18
14140.0	2.3060138352967675e+18
14141.0	2.3055420130066427e+18
14142.0	2.3048308167540733e+18
14143.0	2.3043844404674555e+18
14144.0	2.3039312912187392e+18
14145.0	2.303387684254515e+18
14146.0	2.3028419734274043e+18
14147.0	2.3023024550707192e+18
14148.0	2.3017576518909952e+18
14149.0	2.301212709460377e+18
14150.0	2.3006846616862715e+18
14151.0	2.3001155835527165e+18
14152.0	2.2995983788933115e+18
14153.0	2.2990635262803965e+18
14154.0	2.2984460072910843e+18
14155.0	2.2978485555298301e+18
14156.0	2.2974301636395005e+18
14157.0	2.2968998626852861e+18
14158.0	2.2963481707806715e+18
14159.0	2.2958236982312955e+18
14160.0	2.2952761855311867e+18
14161.0	2.2945610030120957e+18
14162.0	2.2939072804683766e+18
14163.0	2.293624488748646e+18
14164.0	2.2929707880153083e+18
14165.0	2.2916605075783683e+18
14166.0	2.2919597963345915e+18
14167.0	2.291403915159142e+18
14168.0	2.290890156539904e+18
14169.0	2.2903713429454845e+18
14170.0	2.2898217297379323e+18
14171.0	2.2892746968662013e+18
14172.0	2.2887575358275581e+18
14173.0	2.2878129651449859e+18
14174.0	2.2876681677045755e+18
14175.0	2.2871452822798333e+18
14176.0	2.2866053176492027e+18
14177.0	2.2860619019452413e+18
14178.0	2.285500694003712e+18
14179.0	2.2848909764198395e+18
14180.0	2.2844389478891517e+18
14181.0	2.283899645958553e+18
14182.0	2.283363467945574e+18
14183.0	2.2828282563002368e+18
14184.0	2.2822771297878013e+18
14185.0	2.2817527008591867e+18
14186.0	2.2808268233506813e+18
14187.0	2.2806170913734646e+18
14188.0	2.2801361372446715e+18
14189.0	2.2795994223607805e+18
14190.0	2.279074669631897e+18
14191.0	2.278539619047833e+18
14192.0	2.2779804445048827e+18
14193.0	2.277417374292377e+18
14194.0	2.276934645134131e+18
14195.0	2.2764059212382205e+18
14196.0	2.2758706626166781e+18
14197.0	2.2753322783997947e+18
14198.0	2.2747891177095165e+18
14199.0	2.2742167579525117e+18
14200.0	2.2734759750795261e+18
14201.0	2.2731328843677693e+18
14202.0	2.272598345488793e+18
14203.0	2.2719731475677181e+18
14204.0	2.2715274910236672e+18
14205.0	2.2709950761402365e+18
14206.0	2.27012056711168e+18
14207.0	2.269936044579225e+18
14208.0	2.2694029586071547e+18
14209.0	2.268482590736383e+18
14210.0	2.268096850663832e+18
14211.0	2.2677838129790968e+18
14212.0	2.2672698916208637e+18
14213.0	2.2667344820043773e+18
14214.0	2.2662075113275387e+18
14215.0	2.2656449914077176e+18
14216.0	2.2651392321650683e+18
14217.0	2.2646145398341627e+18
14218.0	2.2640463576039421e+18
14219.0	2.2635461633638392e+18
14220.0	2.2630204828549117e+18
14221.0	2.2624816104210427e+18
14222.0	2.2618863027879933e+18
14223.0	2.2614253420675072e+18
14224.0	2.2608962574614528e+18
14225.0	2.2598378164584453e+18
14226.0	2.2598339023339515e+18
14227.0	2.2593015746920445e+18
14228.0	2.2576308340916224e+18
14229.0	2.2580808543895537e+18
14230.0	2.2577122841198587e+18
14231.0	2.2571402917838845e+18
14232.0	2.2566556902883323e+18
14233.0	2.2561012284653565e+18
14234.0	2.2555965563863037e+18
14235.0	2.2550612306558968e+18
14236.0	2.254535055219097e+18
14237.0	2.254000991135334e+18
14238.0	2.2534793807790077e+18
14239.0	2.252933411582771e+18
14240.0	2.2488148718125071e+18
14241.0	2.2518252831768573e+18
14242.0	2.2512993359101947e+18
14243.0	2.2503420564865021e+18
14244.0	2.2502481342758904e+18
14245.0	2.2496626564136955e+18
14246.0	2.2491095401234427e+18
14247.0	2.2486482136596477e+18
14248.0	2.2481022478188536e+18
14249.0	2.247594183386726e+18
14250.0	2.2470749654614008e+18
14251.0	2.2465500499935224e+18
14252.0	2.2460251563360253e+18
14253.0	2.2454985581133821e+18
14254.0	2.2449668428398587e+18
14255.0	2.2443679583043584e+18
14256.0	2.2433652059144192e+18
14257.0	2.2433704202731515e+18
14258.0	2.2428671625134077e+18
14259.0	2.2422815286231032e+18
14260.0	2.2417923452698621e+18
14261.0	2.2412193127464955e+18
14262.0	2.2407722704044027e+18
14263.0	2.2394242982739973e+18
14264.0	2.239571426069708e+18
14265.0	2.2391756901318653e+18
14266.0	2.2386666559766523e+18
14267.0	2.2381447704739837e+18
14268.0	2.2376157596876792e+18
14269.0	2.2370687402377213e+18
14270.0	2.2365713075273723e+18
14271.0	2.2360276032552955e+18
14272.0	2.2355209481093117e+18
14273.0	2.2349935613575168e+18
14274.0	2.233245276464743e+18
14275.0	2.2338359770742776e+18
14276.0	2.2333186298085373e+18
14277.0	2.232829887696076e+18
14278.0	2.2323766142959613e+18
14279.0	2.2318515394445304e+18
14280.0	2.2313081791053821e+18
14281.0	2.2308060621963261e+18
14282.0	2.2302819335798784e+18
14283.0	2.2297604138205184e+18
14284.0	2.2292372448608256e+18
14285.0	2.2287138561196027e+18
14286.0	2.2281858821652475e+18
14287.0	2.2276650720821245e+18
14288.0	2.227127833749094e+18
14289.0	2.2242813374627784e+18
14290.0	2.226018126607155e+18
14291.0	2.2255126878093312e+18
14292.0	2.2249891916939261e+18
14293.0	2.2244682289381368e+18
14294.0	2.2235703828021245e+18
14295.0	2.2233813220327424e+18
14296.0	2.2210497772257293e+18
14297.0	2.22238521509806e+18
14298.0	2.2213890746089467e+18
14299.0	2.2212923959017464e+18
14300.0	2.2207722971725821e+18
14301.0	2.22024214553559e+18
14302.0	2.219733561009766e+18
14303.0	2.219116164494131e+18
14304.0	2.2186548799733755e+18
14305.0	2.2181641514385405e+18
14306.0	2.2174578658770944e+18
14307.0	2.2170794322821117e+18
14308.0	2.216608356578099e+18
14309.0	2.2160695831298043e+18
14310.0	2.2146593675280374e+18
14311.0	2.2148655360245757e+18
14312.0	2.2143931701526523e+18
14313.0	2.2138641593663483e+18
14314.0	2.2134805231566843e+18
14315.0	2.2129729016430587e+18
14316.0	2.2123142314983421e+18
14317.0	2.21183894135767e+18
14318.0	2.2114225996431355e+18
14319.0	2.2109063932280827e+18
14320.0	2.2103868800237565e+18
14321.0	2.2098539769233405e+18
14322.0	2.2092234337812477e+18
14323.0	2.2087881556230136e+18
14324.0	2.208314658966732e+18
14325.0	2.2077654047916027e+18
14326.0	2.2072800852312061e+18
14327.0	2.2067401742876672e+18
14328.0	2.2062200772362232e+18
14329.0	2.205726922715955e+18
14330.0	2.2052068323753984e+18
14331.0	2.2046799858499576e+18
14332.0	2.204171020481331e+18
14333.0	2.2036563156271101e+18
14334.0	2.203140194775859e+18
14335.0	2.2025804414189563e+18
14336.0	2.202016515568435e+18
14337.0	2.201578846656921e+18
14338.0	2.2010637173391355e+18
14339.0	2.2005162398711805e+18
14340.0	2.2000389213650936e+18
14341.0	2.199512749283737e+18
14342.0	2.1989956738088957e+18
14343.0	2.1984469380497403e+18
14344.0	2.1978935197696e+18
14345.0	2.1973970685263867e+18
14346.0	2.1968762047561723e+18
14347.0	2.1963273884663805e+18
14348.0	2.1958460451061755e+18
14349.0	2.195337438769971e+18
14350.0	2.1947751419871227e+18
14351.0	2.1942409705291768e+18
14352.0	2.1937670628311032e+18
14353.0	2.1932711904018427e+18
14354.0	2.1927499743100923e+18
14355.0	2.192229113895321e+18
14356.0	2.191718942244863e+18
14357.0	2.1912174393819133e+18
14358.0	2.1907007665602557e+18
14359.0	2.1901375805849595e+18
14360.0	2.1896687412838395e+18
14361.0	2.189158225700454e+18
14362.0	2.1886425024692224e+18
14363.0	2.1881303930503163e+18
14364.0	2.1874535045267453e+18
14365.0	2.1870785773699064e+18
14366.0	2.1865606462570493e+18
14367.0	2.1860718068367357e+18
14368.0	2.1855573586739195e+18
14369.0	2.1850494200709117e+18
14370.0	2.184536225166131e+18
14371.0	2.1840232332656637e+18
14372.0	2.1834910113202176e+18
14373.0	2.1829842890653693e+18
14374.0	2.1824551943929848e+18
14375.0	2.1819383286333437e+18
14376.0	2.1814294471507965e+18
14377.0	2.180917928289894e+18
14378.0	2.1803998008836093e+18
14379.0	2.1798946170994683e+18
14380.0	2.1793807712387067e+18
14381.0	2.1788326595919872e+18
14382.0	2.1783525812338683e+18
14383.0	2.177782120657715e+18
14384.0	2.1772649445195768e+18
14385.0	2.176822103192371e+18
14386.0	2.1762542967717883e+18
14387.0	2.1757933008191485e+18
14388.0	2.1752733866393595e+18
14389.0	2.1747746704719867e+18
14390.0	2.1742584187584512e+18
14391.0	2.1737519011856381e+18
14392.0	2.1732264673017853e+18
14393.0	2.1727311082553336e+18
14394.0	2.172108551068057e+18
14395.0	2.1716551249952765e+18
14396.0	2.171196706023014e+18
14397.0	2.1706874403422205e+18
14398.0	2.1701638553075712e+18
14399.0	2.1696574132322301e+18
14400.0	2.1690973813735421e+18
14401.0	2.1686254886191101e+18
14402.0	2.1681181305077757e+18
14403.0	2.1558893519830856e+18
14404.0	2.1365841249435584e+18
14405.0	2.163251063501608e+18
14406.0	2.1660810124197883e+18
14407.0	2.1477223542292567e+18
14408.0	2.1649389705494518e+18
14409.0	2.164458543225241e+18
14410.0	2.1639829745827832e+18
14411.0	2.163486942769971e+18
14412.0	2.1629686526246904e+18
14413.0	2.1624680976744445e+18
14414.0	2.1619549027696637e+18
14415.0	2.1614490160201725e+18
14416.0	2.1609263705096187e+18
14417.0	2.160370959096217e+18
14418.0	2.159824625834393e+18
14419.0	2.1594101346467837e+18
14420.0	2.1588872123121661e+18
14421.0	2.1583929085526008e+18
14422.0	2.1578671290580987e+18
14423.0	2.157317784286003e+18
14424.0	2.094941491062341e+18
14425.0	2.156308794127155e+18
14426.0	2.155848019633766e+18
14427.0	2.1553443810312187e+18
14428.0	2.154758577691033e+18
14429.0	2.1543210681630715e+18
14430.0	2.153823122069913e+18
14431.0	2.15306576330752e+18
14432.0	2.152735480322457e+18
14433.0	2.1387319693017006e+18
14434.0	2.151741371554201e+18
14435.0	2.1512223247564795e+18
14436.0	2.1507760977870845e+18
14437.0	2.150265540260659e+18
14438.0	2.1493186409005056e+18
14439.0	2.1491265417773046e+18
14440.0	2.148743972598579e+18
14441.0	2.1482259223674875e+18
14442.0	2.147708145605017e+18
14443.0	2.1470981008654333e+18
14444.0	2.146704487245414e+18
14445.0	2.1462080091586555e+18
14446.0	2.1308597606547517e+18
14447.0	2.1451476589084664e+18
14448.0	2.1446919913996283e+18
14449.0	2.1441863797964795e+18
14450.0	2.1436611573055483e+18
14451.0	2.143157141215641e+18
14452.0	2.1426437919604733e+18
14453.0	2.1418594571124733e+18
14454.0	2.141648220218982e+18
14455.0	2.1411198335451133e+18
14456.0	2.1405696230686715e+18
14457.0	2.1400258449768443e+18
14458.0	2.1395987943653373e+18
14459.0	2.13907221291991e+18
14460.0	2.1385949028024315e+18
14461.0	2.1380143641526267e+18
14462.0	2.137438595265331e+18
14463.0	2.1370513318215677e+18
14464.0	2.136574382414233e+18
14465.0	2.136029980209971e+18
14466.0	2.1355603792232445e+18
14467.0	2.1348244214775805e+18
14468.0	2.1345294595653627e+18
14469.0	2.1339953787043835e+18
14470.0	2.133471058827673e+18
14471.0	2.1330088498823163e+18
14472.0	2.1325166030094333e+18
14473.0	2.1320370984321021e+18
14474.0	2.1315377849958395e+18
14475.0	2.1310119887241216e+18
14476.0	2.1296174933737475e+18
14477.0	2.1300209401200635e+18
14478.0	2.1295076495851515e+18
14479.0	2.1290001891327995e+18
14480.0	2.128460657354342e+18
14481.0	2.1280074124754944e+18
14482.0	2.1274930532319227e+18
14483.0	2.1269655154851837e+18
14484.0	2.1264714935828477e+18
14485.0	2.1258565297635328e+18
14486.0	2.1245924839784448e+18
14487.0	2.1249233457774587e+18
14488.0	2.1243551400591357e+18
14489.0	2.1238908675162104e+18
14490.0	2.1233926244663293e+18
14491.0	2.122903110601932e+18
14492.0	2.1224053054373883e+18
14493.0	2.1218747410808827e+18
14494.0	2.1213355364581373e+18
14495.0	2.120889757440409e+18
14496.0	2.1200043046338557e+18
14497.0	2.1198733383303163e+18
14498.0	2.1193710419050493e+18
14499.0	2.118875068812492e+18
14500.0	2.1183704302878717e+18
14501.0	2.1174009118851067e+18
14502.0	2.116389465541837e+18
14503.0	2.1167779855990781e+18
14504.0	2.1163331645603835e+18
14505.0	2.1154035809648627e+18
14506.0	2.1143714130821117e+18
14507.0	2.1141570254274565e+18
14508.0	2.1143368704720896e+18
14509.0	2.1138318645264376e+18
14510.0	2.1133245735239675e+18
14511.0	2.112827516623257e+18
14512.0	2.1122714710310904e+18
14513.0	2.111819308282675e+18
14514.0	2.11118420173783e+18
14515.0	2.11080444945367e+18
14516.0	2.104834411357803e+18
14517.0	2.1098003045548024e+18
14518.0	2.1092987228389373e+18
14519.0	2.1087907104161787e+18
14520.0	2.1082901319778301e+18
14521.0	2.1077821161996283e+18
14522.0	2.1072734477877243e+18
14523.0	2.105754240679935e+18
14524.0	2.1051977957900278e+18
14525.0	2.1057528397823997e+18
14526.0	2.1052597255274493e+18
14527.0	2.1046906171949048e+18
14528.0	2.1039044016209917e+18
14529.0	2.1037063147094016e+18
14530.0	2.1031625248735227e+18
14531.0	2.1027086223278075e+18
14532.0	2.1007849148645368e+18
14533.0	2.101702071576166e+18
14534.0	2.1012068148707325e+18
14535.0	2.1006674877743101e+18
14536.0	2.1001855320457216e+18
14537.0	2.0996503220781053e+18
14538.0	2.099187262527897e+18
14539.0	2.0986831759736827e+18
14540.0	2.0981829028806653e+18
14541.0	2.0976034765602808e+18
14542.0	2.0971592074919933e+18
14543.0	2.0959916021776376e+18
14544.0	2.0961541230690301e+18
14545.0	2.0956293451743227e+18
14546.0	2.041727869675088e+18
14547.0	2.0461311573884634e+18
14548.0	2.094099127179673e+18
14549.0	2.0932995133210621e+18
14550.0	2.0931078789267453e+18
14551.0	2.0926345684975616e+18
14552.0	2.0921205666086904e+18
14553.0	2.0916013319061501e+18
14554.0	2.091118788975001e+18
14555.0	2.0906121455730688e+18
14556.0	2.0900836347478016e+18
14557.0	2.089605656897126e+18
14558.0	2.0890977703034877e+18
14559.0	2.0845082756251548e+18
14560.0	2.088047060241612e+18
14561.0	2.0875474599149568e+18
14562.0	2.086957443815833e+18
14563.0	2.0865192128675837e+18
14564.0	2.0859925576024061e+18
14565.0	2.0855166232166392e+18
14566.0	2.085011212940083e+18
14567.0	2.084496779876761e+18
14568.0	2.0839306092347387e+18
14569.0	2.0834913901084664e+18
14570.0	2.081803838737612e+18
14571.0	2.0824694831710205e+18
14572.0	2.0818506589143037e+18
14573.0	2.081327199708774e+18
14574.0	2.0808963507355645e+18
14575.0	2.0804420556029947e+18
14576.0	2.079897903379251e+18
14577.0	2.0793676930220027e+18
14578.0	2.0788645107597304e+18
14579.0	2.0783506934202365e+18
14580.0	2.077845264688742e+18
14581.0	2.0773051389968381e+18
14582.0	2.0768266813177856e+18
14583.0	2.0763233598046205e+18
14584.0	2.0757794340732925e+18
14585.0	2.0753080916115453e+18
14586.0	2.0747903618252797e+18
14587.0	2.0742722931392507e+18
14588.0	2.0737756439248893e+18
14589.0	2.0732905995108347e+18
14590.0	2.0728009833054203e+18
14591.0	2.0722964957757437e+18
14592.0	2.0717914831192061e+18
14593.0	2.0709927550975992e+18
14594.0	2.0708215486414843e+18
14595.0	2.070311561540403e+18
14596.0	2.069642685815193e+18
14597.0	2.0692072096858107e+18
14598.0	2.0688371194003453e+18
14599.0	2.0683636227440637e+18
14600.0	2.067868755270041e+18
14601.0	2.0673739733598203e+18
14602.0	2.0668485579309053e+18
14603.0	2.0663818359144443e+18
14604.0	2.0657707727978493e+18
14605.0	2.0653699365863421e+18
14606.0	2.0647350196240381e+18
14607.0	2.0643978999234555e+18
14608.0	2.0639005695541245e+18
14609.0	2.0633246496718843e+18
14610.0	2.0628846587936763e+18
14611.0	2.062409494482125e+18
14612.0	2.0619278373879805e+18
14613.0	2.0614396573122555e+18
14614.0	2.0609348426268667e+18
14615.0	2.060438084360601e+18
14616.0	2.059952392346009e+18
14617.0	2.0594527869861888e+18
14618.0	2.0589140085047296e+18
14619.0	2.0583760386850808e+18
14620.0	2.0575891285344248e+18
14621.0	2.0574674064769021e+18
14622.0	2.0569597497311227e+18
14623.0	2.0564691822575616e+18
14624.0	2.0558034438717435e+18
14625.0	2.0554616164843517e+18
14626.0	2.0549384945008637e+18
14627.0	2.0544129230438392e+18
14628.0	2.0539734036054016e+18
14629.0	2.053472415802982e+18
14630.0	2.0529674400563192e+18
14631.0	2.052460602038681e+18
14632.0	2.0459957434449953e+18
14633.0	2.0507808420069353e+18
14634.0	2.0509387474862077e+18
14635.0	2.0503251208110072e+18
14636.0	2.0495230407016443e+18
14637.0	2.0494551198203901e+18
14638.0	2.048938227217203e+18
14639.0	2.0484174439776256e+18
14640.0	2.0479220715094016e+18
14641.0	2.025592761352177e+18
14642.0	2.0469093098323965e+18
14643.0	2.0464238443102205e+18
14644.0	2.0458836246659067e+18
14645.0	2.0453412139171837e+18
14646.0	2.044856203057561e+18
14647.0	2.0443503951609853e+18
14648.0	2.043883342633369e+18
