# Flux units: erg / (cm m2 s)
# Wavelength units: Angstrom
wave	flux
14000.0	1.674806785212416e+18
14001.0	1.674400389031526e+18
14002.0	1.6740127078350848e+18
14003.0	1.673616785670144e+18
14004.0	1.6732210413436925e+18
14005.0	1.672825198031667e+18
14006.0	1.672428500759347e+18
14007.0	1.6720325500731387e+18
14008.0	1.6716253670408187e+18
14009.0	1.6712428498714621e+18
14010.0	1.6708458019553283e+18
14011.0	1.6703782528221184e+18
14012.0	1.670057217438515e+18
14013.0	1.669662345527296e+18
14014.0	1.6692667505180672e+18
14015.0	1.6688724741980152e+18
14016.0	1.668478169356697e+18
14017.0	1.6680836682219515e+18
14018.0	1.6676860666576893e+18
14019.0	1.6672917081292797e+18
14020.0	1.6668974167097344e+18
14021.0	1.666503311517286e+18
14022.0	1.6661093170544635e+18
14023.0	1.66571333952471e+18
14024.0	1.6653197007388672e+18
14025.0	1.664928392308326e+18
14026.0	1.6645346797027325e+18
14027.0	1.6641415610105853e+18
14028.0	1.663748336621977e+18
14029.0	1.6633548286984192e+18
14030.0	1.6628860162408448e+18
14031.0	1.662566710588211e+18
14032.0	1.66217640879063e+18
14033.0	1.6617775757787133e+18
14034.0	1.661391171328409e+18
14035.0	1.6609987639902203e+18
14036.0	1.660606417050009e+18
14037.0	1.6602128604725243e+18
14038.0	1.6598188005785597e+18
14039.0	1.659426785827225e+18
14040.0	1.65903311348695e+18
14041.0	1.6586425466093563e+18
14042.0	1.6582501946359805e+18
14043.0	1.6578547388776443e+18
14044.0	1.6574670929133563e+18
14045.0	1.6570768364142592e+18
14046.0	1.6566851874062333e+18
14047.0	1.6562937229475835e+18
14048.0	1.6559036040216576e+18
14049.0	1.6555129247367165e+18
14050.0	1.6551221699543037e+18
14051.0	1.6547303833731072e+18
14052.0	1.6543409607016448e+18
14053.0	1.653950427378483e+18
14054.0	1.653560237988249e+18
14055.0	1.6531695654141947e+18
14056.0	1.65277995148247e+18
14057.0	1.6523899365752832e+18
14058.0	1.652000107895193e+18
14059.0	1.6516103597457403e+18
14060.0	1.6512181453455357e+18
14061.0	1.6508270432747515e+18
14062.0	1.6504385131511805e+18
14063.0	1.6500471761993725e+18
14064.0	1.649648878380646e+18
14065.0	1.6492699028815867e+18
14066.0	1.648881857619558e+18
14067.0	1.6484909803634688e+18
14068.0	1.6481043427098621e+18
14069.0	1.6477154418098168e+18
14070.0	1.6473271683776507e+18
14071.0	1.6469384436383741e+18
14072.0	1.646550483940147e+18
14073.0	1.6461622927163387e+18
14074.0	1.6457742407434237e+18
14075.0	1.6453839741779965e+18
14076.0	1.6449959473709053e+18
14077.0	1.644592535856742e+18
14078.0	1.644221727506432e+18
14079.0	1.6438347022991352e+18
14080.0	1.6434481351098368e+18
14081.0	1.643060806234931e+18
14082.0	1.6426703836413947e+18
14083.0	1.642286374977536e+18
14084.0	1.6418996349829123e+18
14085.0	1.6414698480074747e+18
14086.0	1.6411214775058424e+18
14087.0	1.6407362004844544e+18
14088.0	1.6403481283788797e+18
14089.0	1.639960908555878e+18
14090.0	1.6395766666887163e+18
14091.0	1.6391847978991613e+18
14092.0	1.6387965076897792e+18
14093.0	1.6384105293807613e+18
14094.0	1.63802469367808e+18
14095.0	1.6376389787713539e+18
14096.0	1.637249519190016e+18
14097.0	1.6368659651887104e+18
14098.0	1.6364803106799616e+18
14099.0	1.6360970704125947e+18
14100.0	1.6357105216782339e+18
14101.0	1.6353268854685693e+18
14102.0	1.6349418433282048e+18
14103.0	1.6345553717690365e+18
14104.0	1.6341723378614267e+18
14105.0	1.6337868746129405e+18
14106.0	1.6334031830384637e+18
14107.0	1.6330162299731965e+18
14108.0	1.6326329628622848e+18
14109.0	1.6322496588414968e+18
14110.0	1.6318627426861053e+18
14111.0	1.6314751202099197e+18
14112.0	1.6310963242270715e+18
14113.0	1.630711456569753e+18
14114.0	1.630325968155443e+18
14115.0	1.6299441220747261e+18
14116.0	1.629549773612646e+18
14117.0	1.6290525824942075e+18
14118.0	1.6287940741169155e+18
14119.0	1.6284093977198587e+18
14120.0	1.6280263638122493e+18
14121.0	1.6276424960770043e+18
14122.0	1.627259871533465e+18
14123.0	1.6268752890888192e+18
14124.0	1.626492184716902e+18
14125.0	1.626054294346137e+18
14126.0	1.625732121467289e+18
14127.0	1.625349919709593e+18
14128.0	1.624967642454425e+18
14129.0	1.6245843652771837e+18
14130.0	1.6242011266875387e+18
14131.0	1.623822167965696e+18
14132.0	1.623440509789798e+18
14133.0	1.6229880802836475e+18
14134.0	1.6226774350299133e+18
14135.0	1.6222942635491325e+18
14136.0	1.6219055119663101e+18
14137.0	1.6215337406038016e+18
14138.0	1.621151069084057e+18
14139.0	1.6207718989692928e+18
14140.0	1.620385140519731e+18
14141.0	1.6200103660355581e+18
14142.0	1.6196167675150333e+18
14143.0	1.6192393439084544e+18
14144.0	1.6188659837435904e+18
14145.0	1.6184857415647235e+18
14146.0	1.6181053584572408e+18
14147.0	1.6177253696143357e+18
14148.0	1.617344974762803e+18
14149.0	1.616964786271027e+18
14150.0	1.6165860372643837e+18
14151.0	1.6162047867748347e+18
14152.0	1.6158270611783677e+18
14153.0	1.6154476645711872e+18
14154.0	1.615065152434995e+18
14155.0	1.6146200847712256e+18
14156.0	1.6143079127908347e+18
14157.0	1.6139311569174525e+18
14158.0	1.6135512737710075e+18
14159.0	1.613173424023142e+18
14160.0	1.6127949149306877e+18
14161.0	1.6124069418106875e+18
14162.0	1.612021765452595e+18
14163.0	1.6116596913209344e+18
14164.0	1.611276263148748e+18
14165.0	1.61083075592192e+18
14166.0	1.610525224363622e+18
14167.0	1.6101434034487293e+18
14168.0	1.609759512225382e+18
14169.0	1.6093666653241344e+18
14170.0	1.608988243473203e+18
14171.0	1.6086110446813181e+18
14172.0	1.608234367660851e+18
14173.0	1.6078294478749693e+18
14174.0	1.6074794952818688e+18
14175.0	1.6071030665641981e+18
14176.0	1.6067254718300157e+18
14177.0	1.6063491488088061e+18
14178.0	1.6059720892678144e+18
14179.0	1.605590194533171e+18
14180.0	1.6052170457612285e+18
14181.0	1.6048402949210107e+18
14182.0	1.6044639500894205e+18
14183.0	1.604087902214553e+18
14184.0	1.6037112319049728e+18
14185.0	1.6033359507488765e+18
14186.0	1.602935265532313e+18
14187.0	1.602581402170163e+18
14188.0	1.6022086896058365e+18
14189.0	1.601832450470707e+18
14190.0	1.6014577330290685e+18
14191.0	1.6010823931527165e+18
14192.0	1.6007064274862075e+18
14193.0	1.6003285928378363e+18
14194.0	1.5999571385647104e+18
14195.0	1.5995826190942205e+18
14196.0	1.5992078211219453e+18
14197.0	1.5988332026658813e+18
14198.0	1.5984580171399165e+18
14199.0	1.598083220845363e+18
14200.0	1.5976960983302141e+18
14201.0	1.5973355828019197e+18
14202.0	1.5969616505339901e+18
14203.0	1.5965810090573821e+18
14204.0	1.5962133430796285e+18
14205.0	1.5958395970387965e+18
14206.0	1.5954506374184957e+18
14207.0	1.5950927005483003e+18
14208.0	1.594719266563686e+18
14209.0	1.594328605733683e+18
14210.0	1.5939623557529597e+18
14211.0	1.593599415916953e+18
14212.0	1.593226342642483e+18
14213.0	1.5928528751034365e+18
14214.0	1.592480608813056e+18
14215.0	1.5921060725653496e+18
14216.0	1.5917353883664381e+18
14217.0	1.5913628553183232e+18
14218.0	1.5909889717043197e+18
14219.0	1.590618171742617e+18
14220.0	1.5902442696736763e+18
14221.0	1.5898703290171387e+18
14222.0	1.5894944573030397e+18
14223.0	1.5891266940174333e+18
14224.0	1.5887552263225341e+18
14225.0	1.588344447932825e+18
14226.0	1.5880120057200637e+18
14227.0	1.5876405766127613e+18
14228.0	1.5871726550253565e+18
14229.0	1.586886843406745e+18
14230.0	1.5865268412612603e+18
14231.0	1.5861524862074877e+18
14232.0	1.585784882305433e+18
14233.0	1.5854130639667197e+18
14234.0	1.5850433411022843e+18
14235.0	1.5846723733684221e+18
14236.0	1.5843019592826875e+18
14237.0	1.5839316408270848e+18
14238.0	1.5835614666555387e+18
14239.0	1.5831903428935675e+18
14240.0	1.5826410232872957e+18
14241.0	1.5824512612302843e+18
14242.0	1.582081425958502e+18
14243.0	1.5816923790966781e+18
14244.0	1.5813419986845696e+18
14245.0	1.5809702659096576e+18
14246.0	1.5805984895139837e+18
14247.0	1.5802335146016765e+18
14248.0	1.5798625569341437e+18
14249.0	1.5794949295439872e+18
14250.0	1.5791259029340157e+18
14251.0	1.5787572705886205e+18
14252.0	1.578388455371571e+18
14253.0	1.5780196401545213e+18
14254.0	1.5776507897053181e+18
14255.0	1.5772787733954552e+18
14256.0	1.5768825358188541e+18
14257.0	1.5765455939567616e+18
14258.0	1.5761776914202621e+18
14259.0	1.5758076632104957e+18
14260.0	1.5754403612983293e+18
14261.0	1.5750710696083453e+18
14262.0	1.5747090994954237e+18
14263.0	1.5742942727634941e+18
14264.0	1.5739667244646397e+18
14265.0	1.5736054120185853e+18
14266.0	1.5732389925879805e+18
14267.0	1.572871608467456e+18
14268.0	1.572502966055731e+18
14269.0	1.5721318473269248e+18
14270.0	1.5717647618408443e+18
14271.0	1.5713969415127037e+18
14272.0	1.5710310941851648e+18
14273.0	1.5706644616839163e+18
14274.0	1.5702293999517693e+18
14275.0	1.5699254974611453e+18
14276.0	1.5695586636333056e+18
14277.0	1.569195156727398e+18
14278.0	1.5688328292597757e+18
14279.0	1.5684667705393155e+18
14280.0	1.568099888057548e+18
14281.0	1.567735064140185e+18
14282.0	1.5673693862625275e+18
14283.0	1.5670037805268992e+18
14284.0	1.5666382704214013e+18
14285.0	1.5662728660123643e+18
14286.0	1.5659073559068672e+18
14287.0	1.5655423860277248e+18
14288.0	1.5651772450209787e+18
14289.0	1.5646974283874296e+18
14290.0	1.5644460872368125e+18
14291.0	1.5640823756488701e+18
14292.0	1.5637179426406397e+18
14293.0	1.563353103623782e+18
14294.0	1.5629716299972603e+18
14295.0	1.562622786378137e+18
14296.0	1.5621671977222141e+18
14297.0	1.561896103077478e+18
14298.0	1.5615055261335547e+18
14299.0	1.5611660173574141e+18
14300.0	1.5608031614074875e+18
14301.0	1.560439495118028e+18
14302.0	1.5600762784579581e+18
14303.0	1.5597086561009664e+18
14304.0	1.5593482177478653e+18
14305.0	1.5589857074085885e+18
14306.0	1.5586086981992448e+18
14307.0	1.5582568044822523e+18
14308.0	1.5578969852084227e+18
14309.0	1.5575334917242875e+18
14310.0	1.5571089224630267e+18
14311.0	1.5567845702238205e+18
14312.0	1.5564409912950784e+18
14313.0	1.5560740417044477e+18
14314.0	1.5557203729580032e+18
14315.0	1.5553585706172413e+18
14316.0	1.5549899533713403e+18
14317.0	1.5546257653104635e+18
14318.0	1.5542722425257981e+18
14319.0	1.5539103881756667e+18
14320.0	1.553548508659712e+18
14321.0	1.553186858991616e+18
14322.0	1.5528195604348925e+18
14323.0	1.5524620631277563e+18
14324.0	1.552100636596633e+18
14325.0	1.5517368377671675e+18
14326.0	1.551376902730547e+18
14327.0	1.5510148403429376e+18
14328.0	1.5506539825594363e+18
14329.0	1.5502938713620477e+18
14330.0	1.5499330689433597e+18
14331.0	1.5495722514251773e+18
14332.0	1.5492117577072637e+18
14333.0	1.5488512505675773e+18
14334.0	1.5484908524797947e+18
14335.0	1.5481263573958653e+18
14336.0	1.5477637883363325e+18
14337.0	1.5474101715992573e+18
14338.0	1.5470500016816125e+18
14339.0	1.5466888502968312e+18
14340.0	1.5463305577496576e+18
14341.0	1.54597050023936e+18
14342.0	1.5456112430022656e+18
14343.0	1.5452489893543933e+18
14344.0	1.5448909635649539e+18
14345.0	1.544533157557043e+18
14346.0	1.5441736637612032e+18
14347.0	1.5438120224817155e+18
14348.0	1.5434555955609597e+18
14349.0	1.543096989279846e+18
14350.0	1.5427351382851581e+18
14351.0	1.5423756277121021e+18
14352.0	1.542019724240486e+18
14353.0	1.541662265520947e+18
14354.0	1.541303565287424e+18
14355.0	1.5409447677460477e+18
14356.0	1.5405869382500347e+18
14357.0	1.540229469464166e+18
14358.0	1.539871490650931e+18
14359.0	1.5395115992350715e+18
14360.0	1.539155506180915e+18
14361.0	1.5387980474613757e+18
14362.0	1.538440523310694e+18
14363.0	1.538082995804569e+18
14364.0	1.537714435601203e+18
14365.0	1.5373671203864573e+18
14366.0	1.5370093932314621e+18
14367.0	1.5366540803178493e+18
14368.0	1.5362970292846587e+18
14369.0	1.5359402013884413e+18
14370.0	1.5355834204684288e+18
14371.0	1.535226740211712e+18
14372.0	1.5348693234352123e+18
14373.0	1.5345136095461376e+18
14374.0	1.534157234634752e+18
14375.0	1.5338007892590587e+18
14376.0	1.533444759958323e+18
14377.0	1.5330885779849213e+18
14378.0	1.5327323171586043e+18
14379.0	1.5323767542644739e+18
14380.0	1.5320209195794432e+18
14381.0	1.5316636537978877e+18
14382.0	1.531309376038502e+18
14383.0	1.5309480434597885e+18
14384.0	1.530592497342873e+18
14385.0	1.5302399996461053e+18
14386.0	1.5298829100253181e+18
14387.0	1.5295296439320573e+18
14388.0	1.5291727791259643e+18
14389.0	1.5288168169340925e+18
14390.0	1.528461765745049e+18
14391.0	1.528107160829952e+18
14392.0	1.5277500410101757e+18
14393.0	1.5273981892362237e+18
14394.0	1.5270389890416635e+18
14395.0	1.5266842851409915e+18
14396.0	1.5263349935702013e+18
14397.0	1.525981063099187e+18
14398.0	1.5256254230298621e+18
14399.0	1.525273027674112e+18
14400.0	1.5249147082833915e+18
14401.0	1.524564738913075e+18
14402.0	1.5242117697765376e+18
14403.0	1.5228758420094953e+18
14404.0	1.5208601333268472e+18
14405.0	1.5229907776831478e+18
14406.0	1.5227981920206848e+18
14407.0	1.520940222722868e+18
14408.0	1.5220877926858747e+18
14409.0	1.521736558313472e+18
14410.0	1.521384964908646e+18
14411.0	1.5210330426703867e+18
14412.0	1.520680325192089e+18
14413.0	1.520328052310016e+18
14414.0	1.5199753885188096e+18
14415.0	1.5196231793901563e+18
14416.0	1.519270468622745e+18
14417.0	1.5189145534070781e+18
14418.0	1.5185590928539648e+18
14419.0	1.518214535813529e+18
14420.0	1.5178622092443643e+18
14421.0	1.5175109329289213e+18
14422.0	1.5171593042919416e+18
14423.0	1.516807004566323e+18
14424.0	1.5103485649354703e+18
14425.0	1.5161041633673216e+18
14426.0	1.5157533316481021e+18
14427.0	1.5154023053131773e+18
14428.0	1.5150469538119677e+18
14429.0	1.5146998466347005e+18
14430.0	1.5143492346970107e+18
14431.0	1.5139808204554237e+18
14432.0	1.5136429592018941e+18
14433.0	1.512174295135026e+18
14434.0	1.5129450790256637e+18
14435.0	1.512592432011673e+18
14436.0	1.5122456637341696e+18
14437.0	1.5118954091511803e+18
14438.0	1.5115135764922365e+18
14439.0	1.511188378681344e+18
14440.0	1.5108450581217275e+18
14441.0	1.5104943606202363e+18
14442.0	1.510143963430912e+18
14443.0	1.509789581652787e+18
14444.0	1.5094456285921277e+18
14445.0	1.5090966507552765e+18
14446.0	1.5075564285067267e+18
14447.0	1.5083964788113405e+18
14448.0	1.508048824696832e+18
14449.0	1.5076997143199741e+18
14450.0	1.5073498892337147e+18
14451.0	1.5070016462389243e+18
14452.0	1.5066523764785147e+18
14453.0	1.5062830998880253e+18
14454.0	1.5059553938833405e+18
14455.0	1.5056063053168637e+18
14456.0	1.5052540844441597e+18
14457.0	1.5049031302512635e+18
14458.0	1.504559158735667e+18
14459.0	1.5042100382924797e+18
14460.0	1.5038653302571003e+18
14461.0	1.5035147569070077e+18
14462.0	1.5031489028685821e+18
14463.0	1.5028212455178235e+18
14464.0	1.5024741903499264e+18
14465.0	1.5021239022125053e+18
14466.0	1.5017761155579901e+18
14467.0	1.5014132478640123e+18
14468.0	1.501080240259072e+18
14469.0	1.500731297654374e+18
14470.0	1.5003831855218688e+18
14471.0	1.5000373534130173e+18
14472.0	1.4996890936410107e+18
14473.0	1.499340359073792e+18
14474.0	1.4989936377724925e+18
14475.0	1.4986461933731835e+18
14476.0	1.4982271874367485e+18
14477.0	1.4979537506926592e+18
14478.0	1.4976071233437693e+18
14479.0	1.4972600144887803e+18
14480.0	1.496912744572518e+18
14481.0	1.4965688401657856e+18
14482.0	1.496222387299942e+18
14483.0	1.4958754613166077e+18
14484.0	1.4955304059928573e+18
14485.0	1.4951797655339005e+18
14486.0	1.4948020181270525e+18
14487.0	1.494493934754201e+18
14488.0	1.4941444837998592e+18
14489.0	1.4938015776374781e+18
14490.0	1.4934565390909437e+18
14491.0	1.493112577641676e+18
14492.0	1.4927673981665275e+18
14493.0	1.492422151582515e+18
14494.0	1.4920749538082813e+18
14495.0	1.491732898250752e+18
14496.0	1.4913709516259325e+18
14497.0	1.4910434150711293e+18
14498.0	1.4906986164387837e+18
14499.0	1.490354483861913e+18
14500.0	1.4900100593614845e+18
14501.0	1.4896333320093693e+18
14502.0	1.4892622233468925e+18
14503.0	1.4889746786418685e+18
14504.0	1.488632889842073e+18
14505.0	1.488260066548121e+18
14506.0	1.4878750713839616e+18
14507.0	1.487571183992832e+18
14508.0	1.4872583828668416e+18
14509.0	1.4869148156821504e+18
14510.0	1.4865713374167035e+18
14511.0	1.4862279463927805e+18
14512.0	1.485882577335091e+18
14513.0	1.485541429424947e+18
14514.0	1.4851871231442941e+18
14515.0	1.4848543688753147e+18
14516.0	1.4842307664674816e+18
14517.0	1.484169450776166e+18
14518.0	1.4838266586988541e+18
14519.0	1.4834840226496512e+18
14520.0	1.4831414285434875e+18
14521.0	1.4827979133681664e+18
14522.0	1.48245649031168e+18
14523.0	1.4820423514456064e+18
14524.0	1.481695344931635e+18
14525.0	1.481429090513715e+18
14526.0	1.4810877127557115e+18
14527.0	1.4807407867723773e+18
14528.0	1.4803842373779453e+18
14529.0	1.480060739099033e+18
14530.0	1.479718232234393e+18
14531.0	1.4793784902549501e+18
14532.0	1.4789153300414464e+18
14533.0	1.478695582066278e+18
14534.0	1.4783543754358781e+18
14535.0	1.4780114491408381e+18
14536.0	1.4776718145355776e+18
14537.0	1.4773291113775104e+18
14538.0	1.4769895556251648e+18
14539.0	1.4766488405671939e+18
14540.0	1.4763079795474432e+18
14541.0	1.4759645365141504e+18
14542.0	1.4756264990998525e+18
14543.0	1.4752389504434173e+18
14544.0	1.474945397817344e+18
14545.0	1.4746039999266813e+18
14546.0	1.4669813875998666e+18
14547.0	1.4675146027564992e+18
14548.0	1.4735824235003901e+18
14549.0	1.4732290013790203e+18
14550.0	1.4729033908486141e+18
14551.0	1.4725642964697088e+18
14552.0	1.4722235948335104e+18
14553.0	1.4718829871497216e+18
14554.0	1.471545053754163e+18
14555.0	1.4712052798980093e+18
14556.0	1.4708619626938363e+18
14557.0	1.4705238598483963e+18
14558.0	1.4701845792423936e+18
14559.0	1.469632108874956e+18
14560.0	1.4694991897034747e+18
14561.0	1.4691662525628413e+18
14562.0	1.4688246734782464e+18
14563.0	1.4684891727790077e+18
14564.0	1.468148472820531e+18
14565.0	1.467811577934643e+18
14566.0	1.4674728945975293e+18
14567.0	1.4671342448148475e+18
14568.0	1.4667896005328893e+18
14569.0	1.466457304281907e+18
14570.0	1.4660589880082432e+18
14571.0	1.465780226175795e+18
14572.0	1.4654357496659965e+18
14573.0	1.4650984437383165e+18
14574.0	1.464760891185561e+18
14575.0	1.4644278181494781e+18
14576.0	1.4640874117922813e+18
14577.0	1.4637489079713787e+18
14578.0	1.4634118016925693e+18
14579.0	1.4630743430922237e+18
14580.0	1.462736877780992e+18
14581.0	1.4623964898787325e+18
14582.0	1.4620619152818176e+18
14583.0	1.461724619420467e+18
14584.0	1.4613857750220797e+18
14585.0	1.4610501518491648e+18
14586.0	1.4607125875523581e+18
14587.0	1.4603744863846397e+18
14588.0	1.460039871522406e+18
14589.0	1.4597159705903104e+18
14590.0	1.459393634972467e+18
14591.0	1.4590711064166397e+18
14592.0	1.4587489721253885e+18
14593.0	1.4584121141493757e+18
14594.0	1.4581048864145408e+18
14595.0	1.4577820088926208e+18
14596.0	1.4574469762777085e+18
14597.0	1.4571286655139837e+18
14598.0	1.4568163458940925e+18
14599.0	1.4564954044628992e+18
14600.0	1.4561733607686144e+18
14601.0	1.4558519999070208e+18
14602.0	1.4555276040470523e+18
14603.0	1.4552085483749373e+18
14604.0	1.4548813708525565e+18
14605.0	1.4545629426483197e+18
14606.0	1.4542343961051136e+18
14607.0	1.4539228683698173e+18
14608.0	1.453601170286182e+18
14609.0	1.4532735364235264e+18
14610.0	1.4529539455582203e+18
14611.0	1.452637928239923e+18
14612.0	1.4523174850920448e+18
14613.0	1.4519965755375613e+18
14614.0	1.4516751643443197e+18
14615.0	1.4513534075404285e+18
14616.0	1.4510339609591808e+18
14617.0	1.4507131520679936e+18
14618.0	1.450389407164006e+18
14619.0	1.4500671285886973e+18
14620.0	1.4497252592582653e+18
14621.0	1.449430631212646e+18
14622.0	1.4491097250136064e+18
14623.0	1.4487896526422013e+18
14624.0	1.4484618073866237e+18
14625.0	1.4481484089917437e+18
14626.0	1.4478266555432957e+18
14627.0	1.447503954182144e+18
14628.0	1.447188049271193e+18
14629.0	1.4468678477152253e+18
14630.0	1.446547505230643e+18
14631.0	1.4462268993437693e+18
14632.0	1.4454083490414595e+18
14633.0	1.4455416423448573e+18
14634.0	1.4452662225338363e+18
14635.0	1.4448910386855928e+18
14636.0	1.4444130088255485e+18
14637.0	1.444308053917696e+18
14638.0	1.4439878372622336e+18
14639.0	1.4436670434705408e+18
14640.0	1.443348120338432e+18
14641.0	1.4411323249000428e+18
14642.0	1.4427086802386941e+18
14643.0	1.4423896396660736e+18
14644.0	1.442068537173606e+18
14645.0	1.4417474984345597e+18
14646.0	1.441427657588736e+18
14647.0	1.4411083586469885e+18
