# Flux units: erg / (cm m2 s)
# Wavelength units: Angstrom
wave	flux
14000.0	9.583354823311359e+17
14001.0	9.580951814275072e+17
14002.0	9.580486514966527e+17
14003.0	9.579082027106303e+17
14004.0	9.577625789923327e+17
14005.0	9.576218005340159e+17
14006.0	9.574720286490623e+17
14007.0	9.573195547934719e+17
14008.0	9.570069600272384e+17
14009.0	9.570440745844735e+17
14010.0	9.568990321967103e+17
14011.0	9.566671031238656e+17
14012.0	9.566139956854783e+17
14013.0	9.564671874957311e+17
14014.0	9.563257782140927e+17
14015.0	9.561822826856447e+17
14016.0	9.560369727012863e+17
14017.0	9.558929906335744e+17
14018.0	9.555943276675072e+17
14019.0	9.556069466505213e+17
14020.0	9.554638395146239e+17
14021.0	9.553208825348095e+17
14022.0	9.551729460772863e+17
14023.0	9.550333965500416e+17
14024.0	9.548865296400383e+17
14025.0	9.547463937490941e+17
14026.0	9.546007381540863e+17
14027.0	9.544587584471039e+17
14028.0	9.543167896453119e+17
14029.0	9.54172957733683e+17
14030.0	9.54012999562035e+17
14031.0	9.538796693487617e+17
14032.0	9.537428217921536e+17
14033.0	9.535941781749757e+17
14034.0	9.534573700448255e+17
14035.0	9.533091039150077e+17
14036.0	9.531131804254208e+17
14037.0	9.530099837698047e+17
14038.0	9.528837486411775e+17
14039.0	9.527413260156925e+17
14040.0	9.525961024339967e+17
14041.0	9.52456115860275e+17
14042.0	9.523091868745727e+17
14043.0	9.521623182868477e+17
14044.0	9.519368132100093e+17
14045.0	9.517946934132736e+17
14046.0	9.517404728066045e+17
14047.0	9.515979209965565e+17
14048.0	9.514533299159037e+17
14049.0	9.513092127916031e+17
14050.0	9.51167394984755e+17
14051.0	9.510244304551935e+17
14052.0	9.508859404091391e+17
14053.0	9.507426504015871e+17
14054.0	9.50600861116006e+17
14055.0	9.504578672263167e+17
14056.0	9.503157147140095e+17
14057.0	9.501702092750847e+17
14058.0	9.500297244180477e+17
14059.0	9.497460284063744e+17
14060.0	9.497431511138301e+17
14061.0	9.496012485820416e+17
14062.0	9.494611680559103e+17
14063.0	9.49309242815283e+17
14064.0	9.491690515595263e+17
14065.0	9.490274677948412e+17
14066.0	9.488925311631359e+17
14067.0	9.487474711592959e+17
14068.0	9.486083754557439e+17
14069.0	9.484620554829821e+17
14070.0	9.483204406804476e+17
14071.0	9.481802611687423e+17
14072.0	9.480395791794175e+17
14073.0	9.478929026908159e+17
14074.0	9.47755495614054e+17
14075.0	9.476083871121407e+17
14076.0	9.47473052021555e+17
14077.0	9.473254972456957e+17
14078.0	9.471887260254207e+17
14079.0	9.470479224012799e+17
14080.0	9.468595629195263e+17
14081.0	9.467554963652608e+17
14082.0	9.466203760230399e+17
14083.0	9.464807702921213e+17
14084.0	9.463364870733821e+17
14085.0	9.461725157916671e+17
14086.0	9.460015802875901e+17
14087.0	9.458156962840572e+17
14088.0	9.45770080711475e+17
14089.0	9.456310579888127e+17
14090.0	9.454891328077821e+17
14091.0	9.453477763743741e+17
14092.0	9.452073452044285e+17
14093.0	9.450647220912127e+17
14094.0	9.449255601176575e+17
14095.0	9.447812601217021e+17
14096.0	9.44642491573862e+17
14097.0	9.445008868376575e+17
14098.0	9.443607996006396e+17
14099.0	9.442183627145212e+17
14100.0	9.440765566517247e+17
14101.0	9.439350769057791e+17
14102.0	9.437953923219455e+17
14103.0	9.436489255485439e+17
14104.0	9.435116048744448e+17
14105.0	9.433704581562365e+17
14106.0	9.432293668028412e+17
14107.0	9.429695716130813e+17
14108.0	9.429442447278077e+17
14109.0	9.42809002750771e+17
14110.0	9.426678912647165e+17
14111.0	9.425280137428992e+17
14112.0	9.423839779880957e+17
14113.0	9.422455173021693e+17
14114.0	9.421021727686655e+17
14115.0	9.419630896480253e+17
14116.0	9.418250290987007e+17
14117.0	9.416536506761213e+17
14118.0	9.415426660368383e+17
14119.0	9.414033220304893e+17
14120.0	9.412588886556668e+17
14121.0	9.411189171814399e+17
14122.0	9.409760608649216e+17
14123.0	9.408396839092221e+17
14124.0	9.40695685903155e+17
14125.0	9.405123931406335e+17
14126.0	9.404148571176957e+17
14127.0	9.402788635213821e+17
14128.0	9.401351364673536e+17
14129.0	9.399988685635583e+17
14130.0	9.39841369092915e+17
14131.0	9.396956119957503e+17
14132.0	9.395801906216957e+17
14133.0	9.393833980723195e+17
14134.0	9.391808979140609e+17
14135.0	9.391570683953152e+17
14136.0	9.39019264537395e+17
14137.0	9.388793392005119e+17
14138.0	9.387398710427647e+17
14139.0	9.385989994708991e+17
14140.0	9.384600161746944e+17
14141.0	9.383135829557247e+17
14142.0	9.381767169441791e+17
14143.0	9.380372596916221e+17
14144.0	9.378968947916799e+17
14145.0	9.377596236103677e+17
14146.0	9.376197939036159e+17
14147.0	9.374806654844927e+17
14148.0	9.373402628358141e+17
14149.0	9.372003517595647e+17
14150.0	9.370617862160383e+17
14151.0	9.369242474381311e+17
14152.0	9.367841090306047e+17
14153.0	9.366443858591744e+17
14154.0	9.365040293478399e+17
14155.0	9.363635696566271e+17
14156.0	9.362254243823617e+17
14157.0	9.360872673640447e+17
14158.0	9.359454243913728e+17
14159.0	9.358081590820863e+17
14160.0	9.35668464431923e+17
14161.0	9.355226293207037e+17
14162.0	9.353777387667455e+17
14163.0	9.351546168934396e+17
14164.0	9.351112343683071e+17
14165.0	9.349730278572031e+17
14166.0	9.348321025982463e+17
14167.0	9.346913090404353e+17
14168.0	9.345552953114623e+17
14169.0	9.344165628346365e+17
14170.0	9.342778613956607e+17
14171.0	9.341361769676796e+17
14172.0	9.339978840539132e+17
14173.0	9.338607076638719e+17
14174.0	9.337198293811199e+17
14175.0	9.335807252889599e+17
14176.0	9.334425431048191e+17
14177.0	9.333054187241471e+17
14178.0	9.33168244850688e+17
14179.0	9.330295685775359e+17
14180.0	9.328890543603708e+17
14181.0	9.327496382119935e+17
14182.0	9.326112907722752e+17
14183.0	9.324735674449917e+17
14184.0	9.323369983901692e+17
14185.0	9.321986819883007e+17
14186.0	9.319843857694719e+17
14187.0	9.319173658247165e+17
14188.0	9.31761336038195e+17
14189.0	9.316317337223167e+17
14190.0	9.315007279923199e+17
14191.0	9.313678331478013e+17
14192.0	9.312209360388095e+17
14193.0	9.310884337811455e+17
14194.0	9.30951114784768e+17
14195.0	9.308100855070719e+17
14196.0	9.306768618291199e+17
14197.0	9.305391594733567e+17
14198.0	9.304005486313468e+17
14199.0	9.302628471144445e+17
14200.0	9.301192089796607e+17
14201.0	9.29984393982771e+17
14202.0	9.29849148650291e+17
14203.0	9.297085044097021e+17
14204.0	9.295720670560256e+17
14205.0	9.294316551798781e+17
14206.0	9.292842505601021e+17
14207.0	9.291559434452991e+17
14208.0	9.290193693573119e+17
14209.0	9.288703474139135e+17
14210.0	9.287397921521661e+17
14211.0	9.286093652361213e+17
14212.0	9.284684458491901e+17
14213.0	9.283299155378175e+17
14214.0	9.281960761360383e+17
14215.0	9.280523021058048e+17
14216.0	9.279182915764221e+17
14217.0	9.277809667080191e+17
14218.0	9.276453254332413e+17
14219.0	9.27504960533299e+17
14220.0	9.27366742278144e+17
14221.0	9.272307755253757e+17
14222.0	9.270954144301056e+17
14223.0	9.269561048170495e+17
14224.0	9.268200063631359e+17
14225.0	9.266700516065276e+17
14226.0	9.265474864939008e+17
14227.0	9.263546307182592e+17
14228.0	9.262141274062845e+17
14229.0	9.261323963596799e+17
14230.0	9.259987406684159e+17
14231.0	9.258584026120192e+17
14232.0	9.257225004515328e+17
14233.0	9.255836161409021e+17
14234.0	9.254510014758911e+17
14235.0	9.253107850543101e+17
14236.0	9.251759776071677e+17
14237.0	9.250394010025984e+17
14238.0	9.249000343470077e+17
14239.0	9.24761814414131e+17
14240.0	9.243771187232768e+17
14241.0	9.244910746075132e+17
14242.0	9.243548478078975e+17
14243.0	9.241988280877055e+17
14244.0	9.240807676575741e+17
14245.0	9.239449292505088e+17
14246.0	9.238077822205952e+17
14247.0	9.236723523387391e+17
14248.0	9.23532670271488e+17
14249.0	9.233995095080956e+17
14250.0	9.23261075665715e+17
14251.0	9.231240024555519e+17
14252.0	9.229871859367936e+17
14253.0	9.228384609501183e+17
14254.0	9.227109180375037e+17
14255.0	9.22576309400371e+17
14256.0	9.22413708817203e+17
14257.0	9.223025849270271e+17
14258.0	9.221679477686268e+17
14259.0	9.220331436769277e+17
14260.0	9.218913510359039e+17
14261.0	9.217594242367485e+17
14262.0	9.216320457408512e+17
14263.0	9.214535386791935e+17
14264.0	9.213551621177341e+17
14265.0	9.212199587282944e+17
14266.0	9.210867996426237e+17
14267.0	9.209522069438464e+17
14268.0	9.208109260079101e+17
14269.0	9.206800763060221e+17
14270.0	9.205451153473535e+17
14271.0	9.204064021643263e+17
14272.0	9.202737489117184e+17
14273.0	9.201362151669757e+17
14274.0	9.199428938235903e+17
14275.0	9.198600907128831e+17
14276.0	9.197290128408573e+17
14277.0	9.195949335248895e+17
14278.0	9.194588333932541e+17
14279.0	9.193231912796157e+17
14280.0	9.191848354512895e+17
14281.0	9.190514742001663e+17
14282.0	9.189165501513725e+17
14283.0	9.187782933086207e+17
14284.0	9.186353413619711e+17
14285.0	9.185091028779008e+17
14286.0	9.183740831989759e+17
14287.0	9.182383035121663e+17
14288.0	9.18101997020774e+17
14289.0	9.178006547333111e+17
14290.0	9.178293337063423e+17
14291.0	9.176968129937407e+17
14292.0	9.175602103844861e+17
14293.0	9.17426295485235e+17
14294.0	9.172758533505023e+17
14295.0	9.171530810392575e+17
14296.0	9.168891762704384e+17
14297.0	9.168859860828159e+17
14298.0	9.167291417624575e+17
14299.0	9.166156598345725e+17
14300.0	9.164798843420672e+17
14301.0	9.163456045383677e+17
14302.0	9.162090262560767e+17
14303.0	9.160729462571007e+17
14304.0	9.159384382832637e+17
14305.0	9.158004767195135e+17
14306.0	9.156697964675072e+17
14307.0	9.155363588800511e+17
14308.0	9.154013912104957e+17
14309.0	9.152679561396221e+17
14310.0	9.151332233510911e+17
14311.0	9.14983910322995e+17
14312.0	9.14859269029888e+17
14313.0	9.146526307713023e+17
14314.0	9.145913469566975e+17
14315.0	9.144577231421439e+17
14316.0	9.143168817692671e+17
14317.0	9.141876544241663e+17
14318.0	9.140553727868927e+17
14319.0	9.139209528934399e+17
14320.0	9.137827975528447e+17
14321.0	9.136509445734399e+17
14322.0	9.135136129941503e+17
14323.0	9.133824436862975e+17
14324.0	9.132457639018495e+17
14325.0	9.131086873362431e+17
14326.0	9.129723128971263e+17
14327.0	9.128423213498365e+17
14328.0	9.127097838600192e+17
14329.0	9.125774661517308e+17
14330.0	9.124447189467132e+17
14331.0	9.123087974924285e+17
14332.0	9.121765259214845e+17
14333.0	9.120419449667583e+17
14334.0	9.119076265754621e+17
14335.0	9.117720473763837e+17
14336.0	9.116386919972863e+17
14337.0	9.115030557556732e+17
14338.0	9.113667249373183e+17
14339.0	9.112328570142719e+17
14340.0	9.111034669301757e+17
14341.0	9.109671872823293e+17
14342.0	9.108051478970367e+17
14343.0	9.106981612683261e+17
14344.0	9.10497221391155e+17
14345.0	9.103927848992765e+17
14346.0	9.103001318850557e+17
14347.0	9.101675902009343e+17
14348.0	9.100337029840895e+17
14349.0	9.098998577102845e+17
14350.0	9.097649571495936e+17
14351.0	9.096321151533053e+17
14352.0	9.094911974440957e+17
14353.0	9.093593469812736e+17
14354.0	9.092338643107839e+17
14355.0	9.090994091851775e+17
14356.0	9.089311404195837e+17
14357.0	9.087961417121792e+17
14358.0	9.08694664721203e+17
14359.0	9.085631825182719e+17
14360.0	9.084310661365759e+17
14361.0	9.082995839336448e+17
14362.0	9.081628856942591e+17
14363.0	9.080340349976575e+17
14364.0	9.078948805738493e+17
14365.0	9.077652648361984e+17
14366.0	9.076285707911167e+17
14367.0	9.075002703872e+17
14368.0	9.073621527953407e+17
14369.0	9.072290817900543e+17
14370.0	9.070973336682495e+17
14371.0	9.069674889215999e+17
14372.0	9.06833119359795e+17
14373.0	9.066933836054527e+17
14374.0	9.065534163255295e+17
14375.0	9.064123593654271e+17
14376.0	9.063045833687037e+17
14377.0	9.061699344662527e+17
14378.0	9.060360480882685e+17
14379.0	9.059028990689277e+17
14380.0	9.057719797415935e+17
14381.0	9.056403163447293e+17
14382.0	9.055075414573055e+17
14383.0	9.053758168236031e+17
14384.0	9.052429068795901e+17
14385.0	9.051103861669888e+17
14386.0	9.049757045489664e+17
14387.0	9.04845572911923e+17
14388.0	9.047135571935231e+17
14389.0	9.045780333592575e+17
14390.0	9.044463515074557e+17
14391.0	9.043159908614144e+17
14392.0	9.041780091650045e+17
14393.0	9.040474648084477e+17
14394.0	9.03915372753715e+17
14395.0	9.037837873709056e+17
14396.0	9.036366587363327e+17
14397.0	9.03519501759283e+17
14398.0	9.033882015891456e+17
14399.0	9.032412222717948e+17
14400.0	9.031218171478013e+17
14401.0	9.029944478793728e+17
14402.0	9.028577890664447e+17
14403.0	9.027269502697471e+17
14404.0	9.021658908065786e+17
14405.0	9.02237968243096e+17
14406.0	9.023294342692863e+17
14407.0	9.021968481255421e+17
14408.0	9.020708386504701e+17
14409.0	9.019343123775488e+17
14410.0	9.01805046444851e+17
14411.0	9.016728570822655e+17
14412.0	9.015401610477565e+17
14413.0	9.014043612282877e+17
14414.0	9.012795890728957e+17
14415.0	9.011484138930173e+17
14416.0	9.010132876787711e+17
14417.0	9.008839688978431e+17
14418.0	9.007525529649148e+17
14419.0	9.006217410117631e+17
14420.0	9.004893419339776e+17
14421.0	9.00347509027635e+17
14422.0	9.002241159593981e+17
14423.0	9.000927159648253e+17
14424.0	8.99950987916083e+17
14425.0	8.998255035678717e+17
14426.0	8.997014310223871e+17
14427.0	8.995644693807101e+17
14428.0	8.994328462491645e+17
14429.0	8.992952110022655e+17
14430.0	8.991761573609471e+17
14431.0	8.990402845605885e+17
14432.0	8.989130134388732e+17
14433.0	8.987763571425277e+17
14434.0	8.986487462821885e+17
14435.0	8.985191833927677e+17
14436.0	8.983892144947199e+17
14437.0	8.982551720886271e+17
14438.0	8.981252140957693e+17
14439.0	8.979953945149437e+17
14440.0	8.978621708369919e+17
14441.0	8.977306827620348e+17
14442.0	8.975936934379516e+17
14443.0	8.974617246957565e+17
14444.0	8.973395748192253e+17
14445.0	8.972085439234048e+17
14446.0	8.969551349809152e+17
14447.0	8.96948424094515e+17
14448.0	8.968186045136893e+17
14449.0	8.966868119322625e+17
14450.0	8.965550755545085e+17
14451.0	8.964217587630077e+17
14452.0	8.962955915821053e+17
14453.0	8.961625776193536e+17
14454.0	8.96027984081715e+17
14455.0	8.959018143842301e+17
14456.0	8.957643620089853e+17
14457.0	8.956373584838655e+17
14458.0	8.95508749379174e+17
14459.0	8.953756532080639e+17
14460.0	8.952509339009021e+17
14461.0	8.951171330867197e+17
14462.0	8.949814565797885e+17
14463.0	8.94860324241408e+17
14464.0	8.947274654679039e+17
14465.0	8.94585915257651e+17
14466.0	8.944633149128703e+17
14467.0	8.943370034479103e+17
14468.0	8.942054499418111e+17
14469.0	8.940115908886525e+17
14470.0	8.939437983531007e+17
14471.0	8.938137908674557e+17
14472.0	8.936869056217088e+17
14473.0	8.93558029759283e+17
14474.0	8.934245888163837e+17
14475.0	8.932978637930493e+17
14476.0	8.931677304782847e+17
14477.0	8.930380467929085e+17
14478.0	8.929072801382397e+17
14479.0	8.927790543929343e+17
14480.0	8.92640261518131e+17
14481.0	8.925184648019965e+17
14482.0	8.92388662837248e+17
14483.0	8.922583290347519e+17
14484.0	8.921265783963645e+17
14485.0	8.91995399861043e+17
14486.0	8.918352093249535e+17
14487.0	8.917409398259711e+17
14488.0	8.916065048330239e+17
14489.0	8.914776071602175e+17
14490.0	8.913496691441663e+17
14491.0	8.912222562549759e+17
14492.0	8.910898739544064e+17
14493.0	8.909630549786621e+17
14494.0	8.908279044374527e+17
14495.0	8.907025710841855e+17
14496.0	8.90558720717619e+17
14497.0	8.904370053709821e+17
14498.0	8.903063477682175e+17
14499.0	8.901830150979581e+17
14500.0	8.900538540228607e+17
14501.0	8.899278042824703e+17
14502.0	8.897637675696127e+17
14503.0	8.896624306683901e+17
14504.0	8.895381794455552e+17
14505.0	8.894099084017663e+17
14506.0	8.892821633236991e+17
14507.0	8.891240540012543e+17
14508.0	8.890124939034624e+17
14509.0	8.888915092045824e+17
14510.0	8.887640912822268e+17
14511.0	8.886311511392255e+17
14512.0	8.885063831781373e+17
14513.0	8.883753581543421e+17
14514.0	8.882465678557181e+17
14515.0	8.881192061370365e+17
14516.0	8.875541033648128e+17
14517.0	8.878640079044607e+17
14518.0	8.877318898450431e+17
14519.0	8.875191581016063e+17
14520.0	8.874761178316799e+17
14521.0	8.87346013877043e+17
14522.0	8.872193995833343e+17
14523.0	8.870910094213119e+17
14524.0	8.869612317835263e+17
14525.0	8.868321252343807e+17
14526.0	8.86700330975232e+17
14527.0	8.86574219998003e+17
14528.0	8.864241025023999e+17
14529.0	8.863190276374527e+17
14530.0	8.861883306082301e+17
14531.0	8.860617272197117e+17
14532.0	8.859328983334911e+17
14533.0	8.858027834736639e+17
14534.0	8.856737473888255e+17
14535.0	8.855484677226492e+17
14536.0	8.854207268388863e+17
14537.0	8.85284765119283e+17
14538.0	8.85164564755251e+17
14539.0	8.850352426188799e+17
14540.0	8.849065328508925e+17
14541.0	8.847735574757373e+17
14542.0	8.846515686604799e+17
14543.0	8.845205612527616e+17
14544.0	8.843873954562048e+17
14545.0	8.842670633910268e+17
14546.0	8.841251222716416e+17
14547.0	8.839728908468221e+17
14548.0	8.838758304579581e+17
14549.0	8.837418232840192e+17
14550.0	8.83627587220275e+17
14551.0	8.834998111043581e+17
14552.0	8.833685176451071e+17
14553.0	8.83238502609715e+17
14554.0	8.831161396625407e+17
14555.0	8.829865843228671e+17
14556.0	8.828543647612928e+17
14557.0	8.827304188837888e+17
14558.0	8.826021998493695e+17
14559.0	8.821509330042865e+17
14560.0	8.823482078986237e+17
14561.0	8.822165008809983e+17
14562.0	8.820902640746493e+17
14563.0	8.819643468742655e+17
14564.0	8.817199976284157e+17
14565.0	8.817104203546621e+17
14566.0	8.815811300950013e+17
14567.0	8.81454912582451e+17
14568.0	8.813278679531517e+17
14569.0	8.811976532688895e+17
14570.0	8.809851480178685e+17
14571.0	8.809465176391679e+17
14572.0	8.808124458729472e+17
14573.0	8.806861906116607e+17
14574.0	8.805605603016701e+17
14575.0	8.804370791530495e+17
14576.0	8.803070918000637e+17
14577.0	8.801811032965116e+17
14578.0	8.800559653978111e+17
14579.0	8.799262640963583e+17
14580.0	8.798019315040255e+17
14581.0	8.796752081584127e+17
14582.0	8.795463985659901e+17
14583.0	8.79418590573363e+17
14584.0	8.792936850391037e+17
14585.0	8.791668652244991e+17
14586.0	8.790393734823935e+17
14587.0	8.789124630708221e+17
14588.0	8.787898719535103e+17
14589.0	8.786698695606271e+17
14590.0	8.785404777988095e+17
14591.0	8.78414033793843e+17
14592.0	8.782903546740735e+17
14593.0	8.781504352092159e+17
14594.0	8.780365917323263e+17
14595.0	8.779083332714493e+17
14596.0	8.777741960740863e+17
14597.0	8.776517383356412e+17
14598.0	8.775282152439807e+17
14599.0	8.774031788474367e+17
14600.0	8.772771752443901e+17
14601.0	8.771481064439808e+17
14602.0	8.770215617757183e+17
14603.0	8.768946899517439e+17
14604.0	8.767440641064956e+17
14605.0	8.765098273275903e+17
14606.0	8.765023396560893e+17
14607.0	8.763911654342655e+17
14608.0	8.761955506454528e+17
14609.0	8.760080115695613e+17
14610.0	8.758830808694783e+17
14611.0	8.757090776514559e+17
14612.0	8.757603077193727e+17
14613.0	8.756333218103295e+17
14614.0	8.754184450998267e+17
14615.0	8.753153432354813e+17
14616.0	8.752556146687999e+17
14617.0	8.749285344542719e+17
14618.0	8.748665661292543e+17
14619.0	8.748679863205884e+17
14620.0	8.747362860138493e+17
14621.0	8.746244339924991e+17
14622.0	8.744962191523837e+17
14623.0	8.743740952805375e+17
14624.0	8.742373240602624e+17
14625.0	8.741102601371647e+17
14626.0	8.738997908013055e+17
14627.0	8.737705559064575e+17
14628.0	8.73728648098611e+17
14629.0	8.736072657797119e+17
14630.0	8.734019730538495e+17
14631.0	8.732787309805567e+17
14632.0	8.730906382565375e+17
14633.0	8.7306696392704e+17
14634.0	8.729786595672064e+17
14635.0	8.728509933420543e+17
14636.0	8.727205983027199e+17
14637.0	8.725981984456701e+17
14638.0	8.724770166145021e+17
14639.0	8.723455209897981e+17
14640.0	8.722224768876544e+17
14641.0	8.721019325906944e+17
14642.0	8.719644349169663e+17
14643.0	8.718520191811583e+17
14644.0	8.717216140754943e+17
14645.0	8.715011757178876e+17
14646.0	8.713869732085761e+17
14647.0	8.713400985059328e+17
14648.0	8.712267130470399e+17
14649.0	8.710853641633791e+17
14650.0	8.709786140934143e+17
14651.0	8.706838535077885e+17
14652.0	8.707221357592575e+17
14653.0	8.704843329830912e+17
14654.0	8.704178624921599e+17
14655.0	8.702880001294332e+17
14656.0	8.702065291296769e+17
14657.0	8.700303339683839e+17
14658.0	8.699518979670013e+17
14659.0	8.698551504732157e+17
14660.0	8.697091702390783e+17
14661.0	8.695930366722045e+17
14662.0	8.694779231600637e+17
14663.0	8.693259165499391e+17
14664.0	8.692277648031744e+17
14665.0	8.689257321332735e+17
