# Flux units: erg / (cm m2 s)
# Wavelength units: Angstrom
wave	flux
14000.0	2.456782812007629e+18
14001.0	2.456221137659494e+18
14002.0	2.455662914384691e+18
14003.0	2.455102969767526e+18
14004.0	2.454543130846822e+18
14005.0	2.4538622879334395e+18
14006.0	2.453242455366041e+18
14007.0	2.4526827204640763e+18
14008.0	2.4521188919214075e+18
14009.0	2.451563735521689e+18
14010.0	2.451004480448102e+18
14011.0	2.4504214503817216e+18
14012.0	2.4498862504804347e+18
14013.0	2.449327419870413e+18
14014.0	2.448768688245965e+18
14015.0	2.448209995209113e+18
14016.0	2.4476516645601275e+18
14017.0	2.4470933775319035e+18
14018.0	2.4465352163327995e+18
14019.0	2.4459772363276283e+18
14020.0	2.4454193536303104e+18
14021.0	2.444861628638822e+18
14022.0	2.4443041016184827e+18
14023.0	2.443746542721433e+18
14024.0	2.4431690793353206e+18
14025.0	2.4424510178459643e+18
14026.0	2.4418935596122107e+18
14027.0	2.441336428534169e+18
14028.0	2.4407793511432187e+18
14029.0	2.44022239119278e+18
14030.0	2.4396501488762875e+18
14031.0	2.4391085887324155e+18
14032.0	2.438552479386828e+18
14033.0	2.4379959002791936e+18
14034.0	2.4374399301844987e+18
14035.0	2.436883919824486e+18
14036.0	2.436328028582707e+18
14037.0	2.4357722749140987e+18
14038.0	2.4352166655295483e+18
14039.0	2.43466120546222e+18
14040.0	2.4341058863235067e+18
14041.0	2.4335507114688507e+18
14042.0	2.432995400718745e+18
14043.0	2.4324397544243195e+18
14044.0	2.4318855643922427e+18
14045.0	2.4313313710047227e+18
14046.0	2.430776887371366e+18
14047.0	2.4300531149176827e+18
14048.0	2.4293903326773243e+18
14049.0	2.428835869176627e+18
14050.0	2.428281536538214e+18
14051.0	2.4277269539192827e+18
14052.0	2.4271733041135606e+18
14053.0	2.4266193858723835e+18
14054.0	2.4260656286924795e+18
14055.0	2.4255120124411904e+18
14056.0	2.424958565639782e+18
14057.0	2.4244052245348347e+18
14058.0	2.4238520461688827e+18
14059.0	2.423299002020658e+18
14060.0	2.4227461004787707e+18
14061.0	2.4221930663968763e+18
14062.0	2.4216407302471675e+18
14063.0	2.4210875216822267e+18
14064.0	2.4205337661800443e+18
14065.0	2.4199833996754944e+18
14066.0	2.4194316960268283e+18
14067.0	2.4188798011179003e+18
14068.0	2.418328042104422e+18
14069.0	2.417776365299302e+18
14070.0	2.417224935119257e+18
14071.0	2.416673515005542e+18
14072.0	2.415981436390605e+18
14073.0	2.4153925460426747e+18
14074.0	2.4148412265922555e+18
14075.0	2.414290034648678e+18
14076.0	2.413738998733209e+18
14077.0	2.4131848405778427e+18
14078.0	2.4126370644754427e+18
14079.0	2.412086414435942e+18
14080.0	2.4115362459025403e+18
14081.0	2.410985904563814e+18
14082.0	2.410435338410393e+18
14083.0	2.4098855742078976e+18
14084.0	2.4093356908871675e+18
14085.0	2.4087744628129787e+18
14086.0	2.4082359074684923e+18
14087.0	2.4076868177100795e+18
14088.0	2.40713739576279e+18
14089.0	2.4065882053410816e+18
14090.0	2.4060390853836795e+18
14091.0	2.405490195274137e+18
14092.0	2.40494139408384e+18
14093.0	2.4043927204003835e+18
14094.0	2.403844174223769e+18
14095.0	2.4032957589094395e+18
14096.0	2.402746793302425e+18
14097.0	2.402199243692441e+18
14098.0	2.4015492658233344e+18
14099.0	2.4008924965371904e+18
14100.0	2.4002513065738235e+18
14101.0	2.399703892859289e+18
14102.0	2.399156121790054e+18
14103.0	2.398607996721561e+18
14104.0	2.3980610443804667e+18
14105.0	2.3975136424099835e+18
14106.0	2.396966451832422e+18
14107.0	2.3964192260227067e+18
14108.0	2.395872409577062e+18
14109.0	2.3953253565726715e+18
14110.0	2.3947784008761344e+18
14111.0	2.3942314099474427e+18
14112.0	2.393685846759833e+18
14113.0	2.3931396493934587e+18
14114.0	2.3925935174582267e+18
14115.0	2.392047424110592e+18
14116.0	2.391500205011763e+18
14117.0	2.390928502921625e+18
14118.0	2.390410204387737e+18
14119.0	2.3898642855231483e+18
14120.0	2.3893189941264384e+18
14121.0	2.3887738637910016e+18
14122.0	2.3882287703654395e+18
14123.0	2.387683383338598e+18
14124.0	2.3871385315049467e+18
14125.0	2.386573798670335e+18
14126.0	2.386049834470605e+18
14127.0	2.3855054456881147e+18
14128.0	2.3849610803937275e+18
14129.0	2.384416946624921e+18
14130.0	2.3838728933867515e+18
14131.0	2.3831685053284347e+18
14132.0	2.3826121678127094e+18
14133.0	2.3820440560467963e+18
14134.0	2.3815241703882747e+18
14135.0	2.3809797144969206e+18
14136.0	2.380435822320025e+18
14137.0	2.379893171657113e+18
14138.0	2.3793495797923835e+18
14139.0	2.378806586874265e+18
14140.0	2.378262708119142e+18
14141.0	2.3777200507453435e+18
14142.0	2.377175267698278e+18
14143.0	2.3766341588615163e+18
14144.0	2.3760922598178806e+18
14145.0	2.375549790348902e+18
14146.0	2.3750073728892923e+18
14147.0	2.3744651802443776e+18
14148.0	2.3739231117508603e+18
14149.0	2.3733812110295035e+18
14150.0	2.3728393790947323e+18
14151.0	2.3722975840698363e+18
14152.0	2.371756129622425e+18
14153.0	2.371214683563622e+18
14154.0	2.3706733784334326e+18
14155.0	2.3701313686601723e+18
14156.0	2.36959100305408e+18
14157.0	2.3690502163398656e+18
14158.0	2.3685092299767803e+18
14159.0	2.367968750285619e+18
14160.0	2.367427883040768e+18
14161.0	2.366885138425446e+18
14162.0	2.366342712577228e+18
14163.0	2.3658072492736507e+18
14164.0	2.365266434038169e+18
14165.0	2.3647197098672123e+18
14166.0	2.364187353704038e+18
14167.0	2.363511347662029e+18
14168.0	2.3629393016389627e+18
14169.0	2.3623996457091067e+18
14170.0	2.3618598421397504e+18
14171.0	2.3613203472711675e+18
14172.0	2.3607810403074043e+18
14173.0	2.36023786283991e+18
14174.0	2.35970229216215e+18
14175.0	2.359163570723225e+18
14176.0	2.3586246647349243e+18
14177.0	2.3580858543767547e+18
14178.0	2.3575470406631424e+18
14179.0	2.3570078377181184e+18
14180.0	2.356470178276966e+18
14181.0	2.3559318729129974e+18
14182.0	2.3553936514351104e+18
14183.0	2.3548556128288763e+18
14184.0	2.35431743497175e+18
14185.0	2.353779812440473e+18
14186.0	2.353236901730713e+18
14187.0	2.3527044834918395e+18
14188.0	2.352167090808422e+18
14189.0	2.3516297014804475e+18
14190.0	2.351092542000333e+18
14191.0	2.3505554445959163e+18
14192.0	2.3500181760638976e+18
14193.0	2.3494808202903547e+18
14194.0	2.348944959366758e+18
14195.0	2.348408398833254e+18
14196.0	2.34787188024279e+18
14197.0	2.3473354606379003e+18
14198.0	2.3467989588246523e+18
14199.0	2.346262812688384e+18
14200.0	2.3457238748233723e+18
14201.0	2.3451907871735803e+18
14202.0	2.344655117510246e+18
14203.0	2.344118511678259e+18
14204.0	2.343583677520281e+18
14205.0	2.3430482007949307e+18
14206.0	2.342507607018701e+18
14207.0	2.3418910191648763e+18
14208.0	2.3412787145342976e+18
14209.0	2.340737570465382e+18
14210.0	2.340203898968473e+18
14211.0	2.3396729437028347e+18
14212.0	2.3391379199623163e+18
14213.0	2.338603022050918e+18
14214.0	2.338068241580032e+18
14215.0	2.3375331356311547e+18
14216.0	2.3369990765805563e+18
14217.0	2.3364646366871547e+18
14218.0	2.3359303125565435e+18
14219.0	2.3353961025110016e+18
14220.0	2.334862016616857e+18
14221.0	2.334328031386009e+18
14222.0	2.3337941887614976e+18
14223.0	2.333260465255219e+18
14224.0	2.3327268709335035e+18
14225.0	2.33218494169088e+18
14226.0	2.3316599524032507e+18
14227.0	2.3311267691233275e+18
14228.0	2.330576147605094e+18
14229.0	2.330057167916237e+18
14230.0	2.3295277326663675e+18
14231.0	2.3289949637836795e+18
14232.0	2.3284622888534006e+18
14233.0	2.327929743107686e+18
14234.0	2.327397304736153e+18
14235.0	2.3268648864972795e+18
14236.0	2.326332756826521e+18
14237.0	2.3258006288334843e+18
14238.0	2.325268653513113e+18
14239.0	2.3247365204869115e+18
14240.0	2.324146438956646e+18
14241.0	2.3236732359016443e+18
14242.0	2.3231417571868667e+18
14243.0	2.322603448467456e+18
14244.0	2.322079074903654e+18
14245.0	2.3215479048896507e+18
14246.0	2.3210168120508416e+18
14247.0	2.3204858500743163e+18
14248.0	2.319954436790681e+18
14249.0	2.3194241576468475e+18
14250.0	2.3188935144374267e+18
14251.0	2.318363129597133e+18
14252.0	2.3178327296573435e+18
14253.0	2.317302411925913e+18
14254.0	2.3167721545924603e+18
14255.0	2.3162409023700987e+18
14256.0	2.315563570928025e+18
14257.0	2.3150211702456315e+18
14258.0	2.3144917282848763e+18
14259.0	2.3139617645527035e+18
14260.0	2.3134316213043195e+18
14261.0	2.3129028839866363e+18
14262.0	2.312389838399078e+18
14263.0	2.3118466558984187e+18
14264.0	2.311327555413606e+18
14265.0	2.310801483995545e+18
14266.0	2.310272280271257e+18
14267.0	2.309743157077606e+18
14268.0	2.3092141479690235e+18
14269.0	2.3086851271163904e+18
14270.0	2.308156436774912e+18
14271.0	2.307627613893427e+18
14272.0	2.307099091324109e+18
14273.0	2.3065704580251643e+18
14274.0	2.306021183717376e+18
14275.0	2.305511688188723e+18
14276.0	2.304984982591897e+18
14277.0	2.3044571747319803e+18
14278.0	2.3039294658576381e+18
14279.0	2.3034014919032824e+18
14280.0	2.3028734055415805e+18
14281.0	2.302346007045734e+18
14282.0	2.3018183887683576e+18
14283.0	2.3012908694765565e+18
14284.0	2.3007634542034941e+18
14285.0	2.3002361244942336e+18
14286.0	2.2997089055145981e+18
14287.0	2.2991818039754747e+18
14288.0	2.2986547527679992e+18
14289.0	2.298090320245555e+18
14290.0	2.2976008936226813e+18
14291.0	2.2970743205658621e+18
14292.0	2.2965477575753723e+18
14293.0	2.2960211425755133e+18
14294.0	2.2954886723272704e+18
14295.0	2.294968447768985e+18
14296.0	2.2944118250405885e+18
14297.0	2.2939160784404475e+18
14298.0	2.293383282714214e+18
14299.0	2.2928641201537021e+18
14300.0	2.2923385168199675e+18
14301.0	2.291812723903692e+18
14302.0	2.2912870366838784e+18
14303.0	2.2907615793119227e+18
14304.0	2.2902356454670333e+18
14305.0	2.2897107031556093e+18
14306.0	2.2891838281089021e+18
14307.0	2.288659783378534e+18
14308.0	2.288135349416755e+18
14309.0	2.2876101957124088e+18
14310.0	2.2870774637395958e+18
14311.0	2.2863886399045627e+18
14312.0	2.2857238393651195e+18
14313.0	2.285198054837452e+18
14314.0	2.2846754311372795e+18
14315.0	2.2841509552324608e+18
14316.0	2.283624182526771e+18
14317.0	2.2831012518035448e+18
14318.0	2.282577787564851e+18
14319.0	2.2820536119721976e+18
14320.0	2.281529471611699e+18
14321.0	2.2810054604357627e+18
14322.0	2.280479697718476e+18
14323.0	2.2799567854501883e+18
14324.0	2.2794339520348155e+18
14325.0	2.2789103049244672e+18
14326.0	2.278386750088806e+18
14327.0	2.2778632925609976e+18
14328.0	2.2773396773273595e+18
14329.0	2.2768166929170427e+18
14330.0	2.2762935323459581e+18
14331.0	2.2757704455946237e+18
14332.0	2.2752474779615227e+18
14333.0	2.2747245707263995e+18
14334.0	2.2742017389887485e+18
14335.0	2.2736784995647483e+18
14336.0	2.2731553641594877e+18
14337.0	2.2726337101823995e+18
14338.0	2.2721111586242557e+18
14339.0	2.2715887446392827e+18
14340.0	2.2710665051373565e+18
14341.0	2.2705442320809976e+18
14342.0	2.2700221569957885e+18
14343.0	2.26949980005335e+18
14344.0	2.2689779632046077e+18
14345.0	2.2684563075497984e+18
14346.0	2.2679344119807992e+18
14347.0	2.267412301663436e+18
14348.0	2.2668911845572608e+18
14349.0	2.266369708418662e+18
14350.0	2.2658475343478781e+18
14351.0	2.265326160550297e+18
14352.0	2.2648055803150333e+18
14353.0	2.264284295436697e+18
14354.0	2.2637629669376e+18
14355.0	2.263241700514201e+18
14356.0	2.2627206991708157e+18
14357.0	2.2621999511633917e+18
14358.0	2.2615776926105595e+18
14359.0	2.2610113508409344e+18
14360.0	2.2604906212884475e+18
14361.0	2.2599700712521723e+18
14362.0	2.2594495967133693e+18
14363.0	2.2589291406295037e+18
14364.0	2.2584063088918528e+18
14365.0	2.257887914727833e+18
14366.0	2.2573677639892987e+18
14367.0	2.25684794376192e+18
14368.0	2.2563277712130048e+18
14369.0	2.2558076842278904e+18
14370.0	2.2552876626739195e+18
14371.0	2.2547677082288123e+18
14372.0	2.2542478578024443e+18
14373.0	2.2537280526745595e+18
14374.0	2.2532083364659192e+18
14375.0	2.252591342603468e+18
14376.0	2.2520235764482043e+18
14377.0	2.251503778031206e+18
14378.0	2.2509839712255995e+18
14379.0	2.2504644395663357e+18
14380.0	2.249944870997196e+18
14381.0	2.249425262162739e+18
14382.0	2.2489058848538624e+18
14383.0	2.2483861267021821e+18
14384.0	2.2478672543875067e+18
14385.0	2.247348135447756e+18
14386.0	2.2468289829535744e+18
14387.0	2.246309875757875e+18
14388.0	2.245790776950784e+18
14389.0	2.245271904636108e+18
14390.0	2.244752966890291e+18
14391.0	2.2442342472482813e+18
14392.0	2.243715411843481e+18
14393.0	2.24319685829591e+18
14394.0	2.2426782527389693e+18
14395.0	2.2421595582627837e+18
14396.0	2.2416412530180093e+18
14397.0	2.2411228504653824e+18
14398.0	2.2406044160360445e+18
14399.0	2.2400861913219072e+18
14400.0	2.2395672166662144e+18
14401.0	2.2390495036571643e+18
14402.0	2.238531483625062e+18
14403.0	2.2378895437201403e+18
14404.0	2.2371558123110395e+18
14405.0	2.236916634642022e+18
14406.0	2.2364598329933821e+18
14407.0	2.2357725375627264e+18
14408.0	2.2354231788830715e+18
14409.0	2.234906324867481e+18
14410.0	2.234389345022771e+18
14411.0	2.2338720027901947e+18
14412.0	2.2333544038662136e+18
14413.0	2.2328371102875643e+18
14414.0	2.2323195969273848e+18
14415.0	2.2318023033487357e+18
14416.0	2.2312850584240128e+18
14417.0	2.2307675165425661e+18
14418.0	2.2302496072400893e+18
14419.0	2.2297333404270587e+18
14420.0	2.2292160082608123e+18
14421.0	2.228699043515596e+18
14422.0	2.2281818271121405e+18
14423.0	2.2276632500764667e+18
14424.0	2.2264413469802486e+18
14425.0	2.2266290806718461e+18
14426.0	2.2261140067188733e+18
14427.0	2.225597372484812e+18
14428.0	2.225080593966694e+18
14429.0	2.224563954699468e+18
14430.0	2.224047263422873e+18
14431.0	2.2235265657470973e+18
14432.0	2.2230131309281275e+18
14433.0	2.2223697012064248e+18
14434.0	2.221979822194687e+18
14435.0	2.2214632567472128e+18
14436.0	2.2209475838476283e+18
14437.0	2.2204310485991421e+18
14438.0	2.2199108106190843e+18
14439.0	2.2193968255074296e+18
14440.0	2.2188817230331896e+18
14441.0	2.21836520456192e+18
14442.0	2.2178487498440701e+18
14443.0	2.2173308321529853e+18
14444.0	2.2168164259332093e+18
14445.0	2.2163003168260093e+18
14446.0	2.2156324041129984e+18
14447.0	2.2152669644718077e+18
14448.0	2.214752244518092e+18
14449.0	2.2142362897612795e+18
14450.0	2.2137202913837056e+18
14451.0	2.2132043802476544e+18
14452.0	2.212656565557657e+18
14453.0	2.2120326980698112e+18
14454.0	2.2115189780381693e+18
14455.0	2.2110027682676733e+18
14456.0	2.2104863672369147e+18
14457.0	2.209970194376294e+18
14458.0	2.2094548687650808e+18
14459.0	2.208938739525222e+18
14460.0	2.208422944151961e+18
14461.0	2.2079060616151037e+18
14462.0	2.2073901051805693e+18
14463.0	2.2068750178058237e+18
14464.0	2.206359524422451e+18
14465.0	2.2058429287759864e+18
14466.0	2.2053279168987133e+18
14467.0	2.2048102022119421e+18
14468.0	2.2042959771860987e+18
14469.0	2.2037795509895165e+18
14470.0	2.2032636062990333e+18
14471.0	2.2027486665637883e+18
14472.0	2.202233461748531e+18
14473.0	2.201717939843891e+18
14474.0	2.2012023390863352e+18
14475.0	2.2006864665378808e+18
14476.0	2.2001629368680443e+18
14477.0	2.1996553354870776e+18
14478.0	2.1991396692983805e+18
14479.0	2.1986240249200632e+18
14480.0	2.1981080668078077e+18
14481.0	2.197592737841152e+18
14482.0	2.1970769374347261e+18
14483.0	2.1965493761998845e+18
14484.0	2.1960249070059517e+18
14485.0	2.1955079523270656e+18
14486.0	2.1949805102104576e+18
14487.0	2.194478495642419e+18
14488.0	2.1939629150175227e+18
14489.0	2.1934469569052672e+18
14490.0	2.192931547407974e+18
14491.0	2.1924161043562493e+18
14492.0	2.1919006445273083e+18
14493.0	2.1913850924236795e+18
14494.0	2.1908695738744827e+18
14495.0	2.190354021770854e+18
14496.0	2.1898323359170557e+18
14497.0	2.1893230165491704e+18
14498.0	2.1888075667865595e+18
14499.0	2.1882920616591355e+18
14500.0	2.187776506200064e+18
14501.0	2.1872570198392827e+18
14502.0	2.186662435304243e+18
14503.0	2.1860465319608315e+18
14504.0	2.1855316777893883e+18
14505.0	2.1850121578741757e+18
14506.0	2.1844924886417403e+18
14507.0	2.1839742890934264e+18
14508.0	2.1834698955161595e+18
14509.0	2.182954351801139e+18
14510.0	2.1824387678207995e+18
14511.0	2.1819231217647608e+18
14512.0	2.1814066972459005e+18
14513.0	2.1808917407334392e+18
14514.0	2.1803742877712381e+18
14515.0	2.1798601785081853e+18
14516.0	2.1792524943228925e+18
14517.0	2.178828443477606e+18
14518.0	2.1783127990992893e+18
14519.0	2.1777969315839995e+18
14520.0	2.1772809969598461e+18
14521.0	2.1767649952268283e+18
14522.0	2.176248917996339e+18
14523.0	2.17572350927831e+18
14524.0	2.17520703275008e+18
14525.0	2.1747003557937147e+18
14526.0	2.174184481567539e+18
14527.0	2.1736671393349627e+18
14528.0	2.1731469063880701e+18
14529.0	2.172635414370713e+18
14530.0	2.1721190351503352e+18
14531.0	2.1716033991606272e+18
14532.0	2.1710748883353595e+18
14533.0	2.170570746416332e+18
14534.0	2.1700544963805181e+18
14535.0	2.169537971198361e+18
14536.0	2.1690213856182267e+18
14537.0	2.1685041826365437e+18
14538.0	2.1679880936620027e+18
14539.0	2.1674714191626237e+18
14540.0	2.1669546809098237e+18
14541.0	2.1664376742215677e+18
14542.0	2.1659172449812475e+18
14543.0	2.1652718523252733e+18
14544.0	2.1647601237491704e+18
14545.0	2.1642424644272125e+18
14546.0	2.1630048175915003e+18
14547.0	2.1625569464549368e+18
14548.0	2.1626894176747517e+18
14549.0	2.1621672570257408e+18
14550.0	2.1616547801858043e+18
14551.0	2.161137042010931e+18
14552.0	2.160619070632755e+18
14553.0	2.1601009197383675e+18
14554.0	2.1595831060660224e+18
14555.0	2.1590648628969472e+18
14556.0	2.1585463932354555e+18
14557.0	2.1580282339524605e+18
14558.0	2.15750961832919e+18
14559.0	2.1569231858434045e+18
14560.0	2.1564721354244093e+18
14561.0	2.1559534157823995e+18
14562.0	2.1554347682824187e+18
14563.0	2.1549159194558461e+18
14564.0	2.154396681397862e+18
14565.0	2.153877991954841e+18
14566.0	2.1533588579155965e+18
14567.0	2.1528395980472317e+18
14568.0	2.1523199002935293e+18
14569.0	2.1518007612211195e+18
14570.0	2.1512621689667581e+18
14571.0	2.1507614294671357e+18
14572.0	2.1502400640581624e+18
14573.0	2.149720631384473e+18
14574.0	2.1492014352695296e+18
14575.0	2.1486820193730555e+18
14576.0	2.1481620582170621e+18
14577.0	2.1476420131749885e+18
14578.0	2.147121674531635e+18
14579.0	2.1466014331961344e+18
14580.0	2.1460810240884728e+18
14581.0	2.145560197228134e+18
14582.0	2.1450399072387072e+18
14583.0	2.1445191307100157e+18
14584.0	2.1439975975288827e+18
14585.0	2.1434770240045053e+18
14586.0	2.142955606586163e+18
14587.0	2.1424340952154104e+18
14588.0	2.141913761605222e+18
14589.0	2.1414027829706747e+18
14590.0	2.1408933897830392e+18
14591.0	2.1403838221123581e+18
14592.0	2.139874113513062e+18
14593.0	2.139358876821094e+18
14594.0	2.1388540822683648e+18
14595.0	2.1383435046092795e+18
14596.0	2.1378306469265408e+18
14597.0	2.1373200860446717e+18
14598.0	2.1368112481828861e+18
14599.0	2.13630040712151e+18
14600.0	2.1357891533406203e+18
14601.0	2.1352777049440248e+18
14602.0	2.1347659897896957e+18
14603.0	2.1342544289857533e+18
14604.0	2.133740586480435e+18
14605.0	2.1332299903664125e+18
14606.0	2.1327155086491645e+18
14607.0	2.1321158271959037e+18
14608.0	2.1315026920931325e+18
14609.0	2.1309893092835328e+18
14610.0	2.1304767368134653e+18
14611.0	2.1299635754631165e+18
14612.0	2.1294502429851643e+18
14613.0	2.12893642564567e+18
14614.0	2.1284221888757755e+18
14615.0	2.127908046058291e+18
14616.0	2.1273935744073725e+18
14617.0	2.1268788678754301e+18
14618.0	2.126363908007526e+18
14619.0	2.1258470539919355e+18
14620.0	2.1253275223326717e+18
14621.0	2.1248175671083003e+18
14622.0	2.1243016610054136e+18
14623.0	2.1237855535759352e+18
14624.0	2.1232665336217592e+18
14625.0	2.1227527397703677e+18
14626.0	2.122235796835532e+18
14627.0	2.1217185636548603e+18
14628.0	2.1212019696861181e+18
14629.0	2.1206845670555643e+18
14630.0	2.120166837269299e+18
14631.0	2.1196487836827643e+18
14632.0	2.1190769020764155e+18
14633.0	2.1186040446320635e+18
14634.0	2.1180920711086077e+18
14635.0	2.117571735820697e+18
14636.0	2.1170502965919736e+18
14637.0	2.1165330399232e+18
14638.0	2.11601269456896e+18
14639.0	2.115491617728102e+18
14640.0	2.1149705157214205e+18
14641.0	2.1142377691348987e+18
14642.0	2.1139273352740861e+18
14643.0	2.1134059446992893e+18
14644.0	2.112883763917619e+18
14645.0	2.1123602627690493e+18
14646.0	2.11183817761751e+18
14647.0	2.111314748610969e+18
14648.0	2.1107913246375933e+18
14649.0	2.1102674476793853e+18
