# Flux units: erg / (cm m2 s)
# Wavelength units: Angstrom
wave	flux
14000.0	1.702410108849356e+18
14001.0	1.7026091218632704e+18
14002.0	1.7025547737497597e+18
14003.0	1.7022725004460032e+18
14004.0	1.7019792531652603e+18
14005.0	1.70168562000855e+18
14006.0	1.701378479515238e+18
14007.0	1.7010777143640061e+18
14008.0	1.7006715027324928e+18
14009.0	1.7004742597148672e+18
14010.0	1.7001662535172093e+18
14011.0	1.6992157537665021e+18
14012.0	1.699570167421337e+18
14013.0	1.6993065000501248e+18
14014.0	1.6990070519103485e+18
14015.0	1.698715683677798e+18
14016.0	1.6984205590265853e+18
14017.0	1.6981243807662077e+18
14018.0	1.6977856001212413e+18
14019.0	1.6975305864380413e+18
14020.0	1.6972327841431547e+18
14021.0	1.6969347050242048e+18
14022.0	1.696635011937075e+18
14023.0	1.6963264000819197e+18
14024.0	1.6960308241235965e+18
14025.0	1.6957459016974333e+18
14026.0	1.6954484970225661e+18
14027.0	1.695150186378035e+18
14028.0	1.694838625088307e+18
14029.0	1.69450258080727e+18
14030.0	1.6926883950100485e+18
14031.0	1.693607167367577e+18
14032.0	1.693640990235033e+18
14033.0	1.6933201863770107e+18
14034.0	1.6930762305568765e+18
14035.0	1.692782845702963e+18
14036.0	1.69246511375319e+18
14037.0	1.6921894473170941e+18
14038.0	1.69190282535895e+18
14039.0	1.6916032832667643e+18
14040.0	1.6913105258807293e+18
14041.0	1.6910159364227067e+18
14042.0	1.69071055250391e+18
14043.0	1.690386586140672e+18
14044.0	1.6900953974243323e+18
14045.0	1.68980621861847e+18
14046.0	1.6895361725497336e+18
14047.0	1.689234699399987e+18
14048.0	1.688947510371942e+18
14049.0	1.688656975967027e+18
14050.0	1.6883622824902653e+18
14051.0	1.688058109886464e+18
14052.0	1.6877676862111741e+18
14053.0	1.6874789452906496e+18
14054.0	1.6871844061642747e+18
14055.0	1.68689000293335e+18
14056.0	1.6865955812474877e+18
14057.0	1.6863012585471997e+18
14058.0	1.6860068368613376e+18
14059.0	1.685670735537766e+18
14060.0	1.6854178408169467e+18
14061.0	1.6851162049282043e+18
14062.0	1.6848263986544637e+18
14063.0	1.6845040663920637e+18
14064.0	1.6838494680776704e+18
14065.0	1.6839323877900285e+18
14066.0	1.6836508409397243e+18
14067.0	1.6833552045834235e+18
14068.0	1.683067013955584e+18
14069.0	1.682771797029683e+18
14070.0	1.6824789406580733e+18
14071.0	1.6821836432015357e+18
14072.0	1.681893315156377e+18
14073.0	1.6815997541416957e+18
14074.0	1.6813055824363515e+18
14075.0	1.6809910616457213e+18
14076.0	1.6807014600540157e+18
14077.0	1.680059307078451e+18
14078.0	1.68007275905024e+18
14079.0	1.6798241660076032e+18
14080.0	1.6795274844307453e+18
14081.0	1.6792510160437243e+18
14082.0	1.6789607014203387e+18
14083.0	1.6786632346697723e+18
14084.0	1.6783498866065405e+18
14085.0	1.6777388738215933e+18
14086.0	1.6777167799058432e+18
14087.0	1.6774636419153915e+18
14088.0	1.6771901011525632e+18
14089.0	1.6769114114621437e+18
14090.0	1.676621227701043e+18
14091.0	1.6763313207640061e+18
14092.0	1.6760398803894272e+18
14093.0	1.6757475072016384e+18
14094.0	1.6754539713527805e+18
14095.0	1.675156061683712e+18
14096.0	1.6748308152188928e+18
14097.0	1.674534660446617e+18
14098.0	1.6742658139488253e+18
14099.0	1.673990969596313e+18
14100.0	1.6736917345271805e+18
14101.0	1.6734143501041661e+18
14102.0	1.673121441723187e+18
14103.0	1.6728153565167608e+18
14104.0	1.672538039202611e+18
14105.0	1.672250343502643e+18
14106.0	1.671959052445286e+18
14107.0	1.6716354098823165e+18
14108.0	1.671358072435507e+18
14109.0	1.6710803625345021e+18
14110.0	1.6707907240329208e+18
14111.0	1.6704943478013952e+18
14112.0	1.6701953291583485e+18
14113.0	1.669911331156787e+18
14114.0	1.6695967046696957e+18
14115.0	1.6692878696775683e+18
14116.0	1.6687406438678525e+18
14117.0	1.6657422802223104e+18
14118.0	1.6683035571257341e+18
14119.0	1.6680988549578747e+18
14120.0	1.6678353704583163e+18
14121.0	1.6675586269249533e+18
14122.0	1.6672745567813632e+18
14123.0	1.6669865339256832e+18
14124.0	1.6666680033804285e+18
14125.0	1.6659942438076408e+18
14126.0	1.6661141707030525e+18
14127.0	1.665850275161702e+18
14128.0	1.6655641212878843e+18
14129.0	1.6652645255086075e+18
14130.0	1.6649559807623163e+18
14131.0	1.664684428099584e+18
14132.0	1.664365796891033e+18
14133.0	1.6636117734391803e+18
14134.0	1.6637607534395392e+18
14135.0	1.6635212536479736e+18
14136.0	1.663242429739827e+18
14137.0	1.6629502192910333e+18
14138.0	1.6626554050183163e+18
14139.0	1.662378247087718e+18
14140.0	1.6620821141258237e+18
14141.0	1.6617432915378176e+18
14142.0	1.6614050712518656e+18
14143.0	1.661208995928473e+18
14144.0	1.6609377536442365e+18
14145.0	1.6606514756190205e+18
14146.0	1.66035898499072e+18
14147.0	1.6600776713437181e+18
14148.0	1.6597895629242363e+18
14149.0	1.659502998008627e+18
14150.0	1.6592166914621435e+18
14151.0	1.6589247041503232e+18
14152.0	1.6586391274127357e+18
14153.0	1.658353188287283e+18
14154.0	1.6580374511484923e+18
14155.0	1.6577303257546747e+18
14156.0	1.657484807975731e+18
14157.0	1.6572000851984381e+18
14158.0	1.6569097789636605e+18
14159.0	1.6566234673840125e+18
14160.0	1.6563151893954557e+18
14161.0	1.6559931557675003e+18
14162.0	1.6556610038005757e+18
14163.0	1.6554263979229181e+18
14164.0	1.655125629416243e+18
14165.0	1.6548740064083963e+18
14166.0	1.6546078325211128e+18
14167.0	1.6543095218765821e+18
14168.0	1.6540360297676797e+18
14169.0	1.6537501090971643e+18
14170.0	1.653463086163558e+18
14171.0	1.6531731104399357e+18
14172.0	1.6528920836833277e+18
14173.0	1.6525914292617213e+18
14174.0	1.652309942809395e+18
14175.0	1.6520315030994941e+18
14176.0	1.6517465588629504e+18
14177.0	1.6514601046769661e+18
14178.0	1.6511731454967803e+18
14179.0	1.650883418075955e+18
14180.0	1.6506002287362048e+18
14181.0	1.6503133769302013e+18
14182.0	1.6500253976952824e+18
14183.0	1.6497373328965624e+18
14184.0	1.649440468448051e+18
14185.0	1.649124659167232e+18
14186.0	1.648424797601792e+18
14187.0	1.6484829642096635e+18
14188.0	1.6482831794438141e+18
14189.0	1.6480101067653112e+18
14190.0	1.6477315580035067e+18
14191.0	1.647444112284057e+18
14192.0	1.647140444674457e+18
14193.0	1.6468094167810043e+18
14194.0	1.6465876387627003e+18
14195.0	1.6463103684247547e+18
14196.0	1.6460263083474941e+18
14197.0	1.6457408456949757e+18
14198.0	1.6454493247897597e+18
14199.0	1.645155033966182e+18
14200.0	1.6445855280136192e+18
14201.0	1.6445081078726653e+18
14202.0	1.6443050649714685e+18
14203.0	1.6440250297483261e+18
14204.0	1.6437413001822205e+18
14205.0	1.6434508362416125e+18
14206.0	1.6430607374483453e+18
14207.0	1.6428782835466237e+18
14208.0	1.6426005803565053e+18
14209.0	1.6421948854632443e+18
14210.0	1.641931454650777e+18
14211.0	1.6417417345368061e+18
14212.0	1.641469091355033e+18
14213.0	1.6411865445826557e+18
14214.0	1.640901249702297e+18
14215.0	1.6406024474853376e+18
14216.0	1.64033411940352e+18
14217.0	1.6400512404422653e+18
14218.0	1.6397537200046075e+18
14219.0	1.639480783221555e+18
14220.0	1.639192832507904e+18
14221.0	1.6389120607649787e+18
14222.0	1.6386132266713088e+18
14223.0	1.6383349346009088e+18
14224.0	1.6380271800614907e+18
14225.0	1.636682444256051e+18
14226.0	1.6373491037110267e+18
14227.0	1.6371356237037565e+18
14228.0	1.6338073713377288e+18
14229.0	1.6356511353667564e+18
14230.0	1.636325473753497e+18
14231.0	1.636060873569075e+18
14232.0	1.635791621062656e+18
14233.0	1.6355102939938813e+18
14234.0	1.63522997691351e+18
14235.0	1.634945119918489e+18
14236.0	1.6346624036962304e+18
14237.0	1.634373372529868e+18
14238.0	1.6340840108523515e+18
14239.0	1.6337509512380416e+18
14240.0	1.6316933649465347e+18
14241.0	1.6331412185546747e+18
14242.0	1.6329337565347837e+18
14243.0	1.6325489308205053e+18
14244.0	1.632400730960691e+18
14245.0	1.6321075809878008e+18
14246.0	1.6318250476371965e+18
14247.0	1.631542880029901e+18
14248.0	1.6312473191710715e+18
14249.0	1.630979279657369e+18
14250.0	1.6307003567636475e+18
14251.0	1.63041885856727e+18
14252.0	1.6301331794886646e+18
14253.0	1.6298391252238333e+18
14254.0	1.629541270919577e+18
14255.0	1.6291617317060605e+18
14256.0	1.6279926130868224e+18
14257.0	1.6282921031696381e+18
14258.0	1.6283810710683648e+18
14259.0	1.6281125265604605e+18
14260.0	1.627813571670835e+18
14261.0	1.627532565046886e+18
14262.0	1.627209340236595e+18
14263.0	1.625546530226176e+18
14264.0	1.6259010160230395e+18
14265.0	1.626377626530611e+18
14266.0	1.6261673610379261e+18
14267.0	1.6259039000264696e+18
14268.0	1.625624992232243e+18
14269.0	1.6253385162358781e+18
14270.0	1.625063165211443e+18
14271.0	1.624768381137715e+18
14272.0	1.624449736507392e+18
14273.0	1.623967478788915e+18
14274.0	1.6214227140214781e+18
14275.0	1.622954230572646e+18
14276.0	1.6232675467591675e+18
14277.0	1.6230625124024315e+18
14278.0	1.622811256815616e+18
14279.0	1.6225445510905853e+18
14280.0	1.6222660207837181e+18
14281.0	1.621994176197427e+18
14282.0	1.6217161089417213e+18
14283.0	1.6214252054380541e+18
14284.0	1.6211418701365243e+18
14285.0	1.6208611285925885e+18
14286.0	1.620579125402009e+18
14287.0	1.6202944898662397e+18
14288.0	1.6199740634955776e+18
14289.0	1.6185600411434998e+18
14290.0	1.619417890396569e+18
14291.0	1.619174016784793e+18
14292.0	1.618893000094515e+18
14293.0	1.6186047742345206e+18
14294.0	1.6182078303371261e+18
14295.0	1.6179964827140093e+18
14296.0	1.6168576788463619e+18
14297.0	1.6173754270875643e+18
14298.0	1.6168379689730043e+18
14299.0	1.6168777561407488e+18
14300.0	1.616643460641587e+18
14301.0	1.6163768622907387e+18
14302.0	1.6161039255076861e+18
14303.0	1.615786950210355e+18
14304.0	1.6155284133117947e+18
14305.0	1.6152621119176701e+18
14306.0	1.6149582647918592e+18
14307.0	1.614671532104089e+18
14308.0	1.6143928994562043e+18
14309.0	1.6140985583009792e+18
14310.0	1.6137830208110592e+18
14311.0	1.6134525331439613e+18
14312.0	1.613203148216729e+18
14313.0	1.612818431554355e+18
14314.0	1.6127175551877115e+18
14315.0	1.6124414240227325e+18
14316.0	1.612125178534297e+18
14317.0	1.6118764881838075e+18
14318.0	1.6116223368495096e+18
14319.0	1.6113521280417792e+18
14320.0	1.6110764246958077e+18
14321.0	1.610797506835251e+18
14322.0	1.610489794238873e+18
14323.0	1.610221221209702e+18
14324.0	1.6099653082677248e+18
14325.0	1.609680491538022e+18
14326.0	1.6094159064530944e+18
14327.0	1.6091381462204413e+18
14328.0	1.6088614244974592e+18
14329.0	1.6085929454206976e+18
14330.0	1.6083160441815037e+18
14331.0	1.6080293517590525e+18
14332.0	1.6077463771676672e+18
14333.0	1.6074689994555387e+18
14334.0	1.6071905698119675e+18
14335.0	1.606890823037747e+18
14336.0	1.6065308309585915e+18
14337.0	1.606352467342131e+18
14338.0	1.6060802654011392e+18
14339.0	1.6057944051286008e+18
14340.0	1.6055273487597563e+18
14341.0	1.6052405976170493e+18
14342.0	1.604957005624115e+18
14343.0	1.6046904139841533e+18
14344.0	1.6043910665076733e+18
14345.0	1.6041252164206592e+18
14346.0	1.6038548129972216e+18
14347.0	1.603563426309734e+18
14348.0	1.6033009467654141e+18
14349.0	1.6030260336263163e+18
14350.0	1.6026568778317821e+18
14351.0	1.6023749920817147e+18
14352.0	1.6021821178511357e+18
14353.0	1.601919104791347e+18
14354.0	1.6016397691781115e+18
14355.0	1.6013500065251325e+18
14356.0	1.6010703387230205e+18
14357.0	1.6008183298392061e+18
14358.0	1.6005569726906365e+18
14359.0	1.6002529410154496e+18
14360.0	1.599981049452953e+18
14361.0	1.5997089162985472e+18
14362.0	1.5994349712048123e+18
14363.0	1.5991466883022843e+18
14364.0	1.5986354529763325e+18
14365.0	1.5984691404341243e+18
14366.0	1.5982703975333888e+18
14367.0	1.5980585314942968e+18
14368.0	1.5977813517533181e+18
14369.0	1.597504784380723e+18
14370.0	1.5972305138089981e+18
14371.0	1.5969568035962875e+18
14372.0	1.5966732669681664e+18
14373.0	1.596401056638566e+18
14374.0	1.5961287305461757e+18
14375.0	1.5958484604420093e+18
14376.0	1.5955845766447101e+18
14377.0	1.5953088464551933e+18
14378.0	1.5950329753370621e+18
14379.0	1.5947599966109693e+18
14380.0	1.594484004696883e+18
14381.0	1.5941986007646205e+18
14382.0	1.5939332925816824e+18
14383.0	1.5936581277843453e+18
14384.0	1.5933648368828413e+18
14385.0	1.59311076607918e+18
14386.0	1.592817985205043e+18
14387.0	1.59257035014144e+18
14388.0	1.5922931032915965e+18
14389.0	1.5920209953030144e+18
14390.0	1.5917459764674557e+18
14391.0	1.5914632602451968e+18
14392.0	1.591182886122291e+18
14393.0	1.5909095466860541e+18
14394.0	1.5905912526995453e+18
14395.0	1.590349976200806e+18
14396.0	1.5900830154620923e+18
14397.0	1.5898129727488e+18
14398.0	1.589537969012736e+18
14399.0	1.589257917012377e+18
14400.0	1.5889650488967165e+18
14401.0	1.5886885167562747e+18
14402.0	1.5884003278061565e+18
14403.0	1.5878855289995256e+18
14404.0	1.584942939530853e+18
14405.0	1.5853155195551716e+18
14406.0	1.5872504694308864e+18
14407.0	1.5868107687985147e+18
14408.0	1.5867559660224507e+18
14409.0	1.5864932281090048e+18
14410.0	1.5862274098987005e+18
14411.0	1.5859709852516347e+18
14412.0	1.5856998436306944e+18
14413.0	1.5854319702114301e+18
14414.0	1.585157251688038e+18
14415.0	1.584885984237977e+18
14416.0	1.5846094923628541e+18
14417.0	1.584329921868595e+18
14418.0	1.5840524921470976e+18
14419.0	1.5837866705813501e+18
14420.0	1.5835100243558397e+18
14421.0	1.5832382485561341e+18
14422.0	1.5829497643270144e+18
14423.0	1.582619392422707e+18
14424.0	1.5814767130181622e+18
14425.0	1.582084449212825e+18
14426.0	1.5818780676456448e+18
14427.0	1.5816138902470653e+18
14428.0	1.5813038623948797e+18
14429.0	1.5810478940880893e+18
14430.0	1.5807383460642813e+18
14431.0	1.5800351290556413e+18
14432.0	1.580208655800729e+18
14433.0	1.5797700691755005e+18
14434.0	1.5796635019771901e+18
14435.0	1.579387617437286e+18
14436.0	1.5791478693429243e+18
14437.0	1.5788798684168192e+18
14438.0	1.578554313251225e+18
14439.0	1.5783117767835648e+18
14440.0	1.578062007658086e+18
14441.0	1.577777907315507e+18
14442.0	1.577498080129843e+18
14443.0	1.5771856262922237e+18
14444.0	1.5769614961082365e+18
14445.0	1.576680088508825e+18
14446.0	1.5754183865008128e+18
14447.0	1.5760677671010304e+18
14448.0	1.5758844240068605e+18
14449.0	1.5756202600300544e+18
14450.0	1.5753438805622781e+18
14451.0	1.5750758678921213e+18
14452.0	1.5748075297439741e+18
14453.0	1.5745346818801664e+18
14454.0	1.5742609750228987e+18
14455.0	1.5739820286410747e+18
14456.0	1.5737115832745981e+18
14457.0	1.573440434942771e+18
14458.0	1.5731658640588797e+18
14459.0	1.5728844262604797e+18
14460.0	1.572595151824486e+18
14461.0	1.572276960178995e+18
14462.0	1.571972851328614e+18
14463.0	1.5717599685902333e+18
14464.0	1.5715207825326077e+18
14465.0	1.5712418009186301e+18
14466.0	1.5710061900857341e+18
14467.0	1.570721729033011e+18
14468.0	1.570467336106803e+18
14469.0	1.5701319931133944e+18
14470.0	1.5698822021775357e+18
14471.0	1.5696415212699643e+18
14472.0	1.569380719447244e+18
14473.0	1.569117456406937e+18
14474.0	1.5688528662888448e+18
14475.0	1.5685819075395581e+18
14476.0	1.5683032581144576e+18
14477.0	1.5680417482932221e+18
14478.0	1.567770094967193e+18
14479.0	1.5674939671576576e+18
14480.0	1.5672061657612285e+18
14481.0	1.5669581884424187e+18
14482.0	1.5666824817410043e+18
14483.0	1.566407962866483e+18
14484.0	1.56612639588352e+18
14485.0	1.5658145292484603e+18
14486.0	1.565307570434867e+18
14487.0	1.5653258945101821e+18
14488.0	1.5650619855470592e+18
14489.0	1.5647627756437501e+18
14490.0	1.5645210310606848e+18
14491.0	1.5642665659924475e+18
14492.0	1.5640001404469243e+18
14493.0	1.5637155250438141e+18
14494.0	1.5634340570464256e+18
14495.0	1.5631740269756413e+18
14496.0	1.5627929761349632e+18
14497.0	1.5626436639457277e+18
14498.0	1.5623831305584637e+18
14499.0	1.5621169365385213e+18
14500.0	1.561847110251315e+18
14501.0	1.5615477929738237e+18
14502.0	1.5610590844157947e+18
14503.0	1.5610179164831741e+18
14504.0	1.560761505257881e+18
14505.0	1.5604961853308925e+18
14506.0	1.5602020220141563e+18
14507.0	1.5597177359302653e+18
14508.0	1.5596837956222973e+18
14509.0	1.5594286980530173e+18
14510.0	1.5591559021985792e+18
14511.0	1.5588893793452032e+18
14512.0	1.5586092166152192e+18
14513.0	1.5583434604806141e+18
14514.0	1.5580512315768824e+18
14515.0	1.5577464264720381e+18
14516.0	1.5545037429407754e+18
14517.0	1.557077555779993e+18
14518.0	1.5569948692709373e+18
14519.0	1.556711758784102e+18
14520.0	1.5564696081924093e+18
14521.0	1.5562047613829115e+18
14522.0	1.5559337774678016e+18
14523.0	1.5556424209793021e+18
14524.0	1.5553845098708992e+18
14525.0	1.5551291237335037e+18
14526.0	1.5548609382580221e+18
14527.0	1.554545927572684e+18
14528.0	1.5541852543385597e+18
14529.0	1.554043881127936e+18
14530.0	1.553773385429811e+18
14531.0	1.5535224838422525e+18
14532.0	1.5532473660211197e+18
14533.0	1.552987429902745e+18
14534.0	1.5527253832105981e+18
14535.0	1.5524477353852925e+18
14536.0	1.5521877002813435e+18
14537.0	1.5519106983788541e+18
14538.0	1.5516584445476864e+18
14539.0	1.551391347913523e+18
14540.0	1.5511238486261757e+18
14541.0	1.550826940556902e+18
14542.0	1.5505854895751168e+18
14543.0	1.5502997601648637e+18
14544.0	1.5500447313821693e+18
14545.0	1.5497470096179197e+18
14546.0	1.5479925372878838e+18
14547.0	1.5476835462676467e+18
14548.0	1.5489229379338237e+18
14549.0	1.5485841019240448e+18
14550.0	1.5484290083061757e+18
14551.0	1.5481861497159677e+18
14552.0	1.547916979417907e+18
14553.0	1.5476450945662973e+18
14554.0	1.5473898644570107e+18
14555.0	1.5471222645063677e+18
14556.0	1.5468508041183232e+18
14557.0	1.5465750756065275e+18
14558.0	1.546233409280409e+18
14559.0	1.5437768893136876e+18
14560.0	1.5456926292770813e+18
14561.0	1.5455000419368957e+18
14562.0	1.5452175522070528e+18
14563.0	1.5449772940853243e+18
14564.0	1.5446773208186875e+18
14565.0	1.5444590962147325e+18
14566.0	1.544193439065702e+18
14567.0	1.5439239936212992e+18
14568.0	1.5436502565650432e+18
14569.0	1.543363148067635e+18
14570.0	1.5425111523852288e+18
14571.0	1.542847364438425e+18
14572.0	1.5425587493470205e+18
14573.0	1.5422740316028928e+18
14574.0	1.5420389156978685e+18
14575.0	1.5417747248775163e+18
14576.0	1.5415023148990464e+18
14577.0	1.5412546529918976e+18
14578.0	1.540995097716326e+18
14579.0	1.5407365591400448e+18
14580.0	1.540470251035033e+18
14581.0	1.540200775391641e+18
14582.0	1.5399297931542523e+18
14583.0	1.5396742912540667e+18
14584.0	1.5393844430372864e+18
14585.0	1.539131447653171e+18
14586.0	1.5388702867980285e+18
14587.0	1.5386078827511805e+18
14588.0	1.538343510736896e+18
14589.0	1.5380789810167803e+18
14590.0	1.5378152230486016e+18
14591.0	1.5375441317593085e+18
14592.0	1.5372637257596923e+18
14593.0	1.5369020492480507e+18
14594.0	1.5367415919542272e+18
14595.0	1.5364718344536056e+18
14596.0	1.5359177920610296e+18
14597.0	1.535598325347123e+18
14598.0	1.5356419897294843e+18
14599.0	1.5354265836978176e+18
14600.0	1.5351638071967744e+18
14601.0	1.5348992388890621e+18
14602.0	1.5346272886063101e+18
14603.0	1.534364955023769e+18
14604.0	1.5340491809751035e+18
14605.0	1.5337770461429757e+18
14606.0	1.5334615338188797e+18
14607.0	1.533305368136908e+18
14608.0	1.5330194608881664e+18
14609.0	1.532731958126182e+18
14610.0	1.5324524866174968e+18
14611.0	1.5321827056287744e+18
14612.0	1.5319940676452347e+18
14613.0	1.5317357656276987e+18
14614.0	1.5314390119088123e+18
14615.0	1.5311871775080443e+18
14616.0	1.5309463875485693e+18
14617.0	1.5306067411992573e+18
14618.0	1.530332270978662e+18
14619.0	1.5297576664301563e+18
14620.0	1.5292553163177984e+18
14621.0	1.5295891594280957e+18
14622.0	1.5293553924112381e+18
14623.0	1.5291002143113213e+18
14624.0	1.5287894851715067e+18
14625.0	1.5285714971262973e+18
14626.0	1.5282897791483901e+18
14627.0	1.5280291719413757e+18
14628.0	1.527796027359232e+18
14629.0	1.5275322358366205e+18
14630.0	1.5272421443502077e+18
14631.0	1.5269764603576315e+18
14632.0	1.5266103949262843e+18
14633.0	1.5264403578421248e+18
14634.0	1.5262069045592064e+18
14635.0	1.5259075419832312e+18
14636.0	1.525530930393907e+18
14637.0	1.525433729915289e+18
14638.0	1.5251510254370816e+18
14639.0	1.5248796942335997e+18
14640.0	1.5246085744230397e+18
14641.0	1.5240673330462715e+18
14642.0	1.5240786710888443e+18
14643.0	1.5238321013784573e+18
14644.0	1.5235550575329275e+18
14645.0	1.5232603338571773e+18
14646.0	1.5230000252846075e+18
14647.0	1.522751569815142e+18
14648.0	1.5224994653011963e+18
