# Flux units: erg / (cm m2 s)
# Wavelength units: Angstrom
wave	flux
14000.0	2.2360501602222077e+18
14001.0	2.2357081617072123e+18
14002.0	2.235312724403814e+18
14003.0	2.2348616588853248e+18
14004.0	2.23440861701079e+18
14005.0	2.2339547463417853e+18
14006.0	2.2334959733702648e+18
14007.0	2.233038928451993e+18
14008.0	2.2325329762713592e+18
14009.0	2.2321270783737856e+18
14010.0	2.2316672383713277e+18
14011.0	2.2308293573607421e+18
14012.0	2.230765493210316e+18
14013.0	2.230324747357388e+18
14014.0	2.2298683517173755e+18
14015.0	2.229419000830361e+18
14016.0	2.2289673749528573e+18
14017.0	2.2285149437689853e+18
14018.0	2.228062220661555e+18
14019.0	2.227609594861977e+18
14020.0	2.2271564741345277e+18
14021.0	2.2267034305822717e+18
14022.0	2.2262507276075005e+18
14023.0	2.2257884851077117e+18
14024.0	2.2253374413996027e+18
14025.0	2.22489480307671e+18
14026.0	2.224442187343462e+18
14027.0	2.2239907678257147e+18
14028.0	2.2235323320762365e+18
14029.0	2.223074634524262e+18
14030.0	2.222119613313843e+18
14031.0	2.2220910215823355e+18
14032.0	2.2217272059756536e+18
14033.0	2.221248412752281e+18
14034.0	2.2208311952670717e+18
14035.0	2.2203815725891576e+18
14036.0	2.219931354320076e+18
14037.0	2.2194809984778237e+18
14038.0	2.2190306392801277e+18
14039.0	2.2185767786774523e+18
14040.0	2.2181269429288957e+18
14041.0	2.217678363793817e+18
14042.0	2.2172217668272123e+18
14043.0	2.2167539391922173e+18
14044.0	2.2163226808549376e+18
14045.0	2.2158780628205565e+18
14046.0	2.2154258967166968e+18
14047.0	2.2149743681470461e+18
14048.0	2.214530849020313e+18
14049.0	2.2140822749183995e+18
14050.0	2.2136330213392381e+18
14051.0	2.213178716140339e+18
14052.0	2.2127304859713528e+18
14053.0	2.2122860558417915e+18
14054.0	2.2118374683181048e+18
14055.0	2.211388822074163e+18
14056.0	2.2109402462945275e+18
14057.0	2.2104918080880637e+18
14058.0	2.2100434420236283e+18
14059.0	2.2095951715893243e+18
14060.0	2.2091469078659067e+18
14061.0	2.2086945521795067e+18
14062.0	2.208250024742092e+18
14063.0	2.2077905186062333e+18
14064.0	2.207264636770713e+18
14065.0	2.2069013328691195e+18
14066.0	2.2064601306759165e+18
14067.0	2.2060096204832765e+18
14068.0	2.2055656500494333e+18
14069.0	2.2051176665055227e+18
14070.0	2.204671115735859e+18
14071.0	2.2042226909511675e+18
14072.0	2.2037776769744893e+18
14073.0	2.2033309131341821e+18
14074.0	2.2028841090285568e+18
14075.0	2.2024229050384381e+18
14076.0	2.201984412365619e+18
14077.0	2.2014255029026808e+18
14078.0	2.2010831101231101e+18
14079.0	2.200643911129497e+18
14080.0	2.20020588150784e+18
14081.0	2.1997603793141752e+18
14082.0	2.1993136406396923e+18
14083.0	2.1988665982975992e+18
14084.0	2.198414403672473e+18
14085.0	2.19777548198871e+18
14086.0	2.1975084692406267e+18
14087.0	2.1970844301393917e+18
14088.0	2.196632243902873e+18
14089.0	2.196194227702988e+18
14090.0	2.1957520390094843e+18
14091.0	2.195308055153868e+18
14092.0	2.1948635126169595e+18
14093.0	2.1944188576727037e+18
14094.0	2.1939738436960253e+18
14095.0	2.1935275512954875e+18
14096.0	2.1930692212424701e+18
14097.0	2.1926214641909755e+18
14098.0	2.1921890817802237e+18
14099.0	2.1917516913704955e+18
14100.0	2.1913018690437117e+18
14101.0	2.1908663459381243e+18
14102.0	2.190422752991641e+18
14103.0	2.1899703385849848e+18
14104.0	2.18953623315415e+18
14105.0	2.1890929690411005e+18
14106.0	2.188649820690841e+18
14107.0	2.188206392161075e+18
14108.0	2.187753791527321e+18
14109.0	2.1873174731816955e+18
14110.0	2.1868753968955387e+18
14111.0	2.1864279653220347e+18
14112.0	2.185984442839859e+18
14113.0	2.1855480573853693e+18
14114.0	2.1850930039226365e+18
14115.0	2.1846542193262587e+18
14116.0	2.1841512149024765e+18
14117.0	2.1828226254897152e+18
14118.0	2.1833046432940027e+18
14119.0	2.1828725662285821e+18
14120.0	2.1824408096079867e+18
14121.0	2.1819988927053821e+18
14122.0	2.181564351066931e+18
14123.0	2.1811195736489981e+18
14124.0	2.1806631914307581e+18
14125.0	2.1799356256485368e+18
14126.0	2.1797916033155067e+18
14127.0	2.1793636584783864e+18
14128.0	2.1789239796563965e+18
14129.0	2.1784750666547195e+18
14130.0	2.1780257761656827e+18
14131.0	2.177601201871257e+18
14132.0	2.1771409827037181e+18
14133.0	2.1763590738411515e+18
14134.0	2.1762636483919867e+18
14135.0	2.175828665512755e+18
14136.0	2.1753948536832e+18
14137.0	2.174957778685132e+18
14138.0	2.1745160312324093e+18
14139.0	2.1740808084389883e+18
14140.0	2.173637812761395e+18
14141.0	2.1731826150146045e+18
14142.0	2.1727215200763901e+18
14143.0	2.1723181102399483e+18
14144.0	2.171885826814771e+18
14145.0	2.17144833909719e+18
14146.0	2.1710092944539645e+18
14147.0	2.1705709074776061e+18
14148.0	2.1701319651753976e+18
14149.0	2.1696934892797947e+18
14150.0	2.1692567280156664e+18
14151.0	2.1688147339378683e+18
14152.0	2.1683804506685432e+18
14153.0	2.1679422482415616e+18
14154.0	2.1674832118677501e+18
14155.0	2.1670561327349755e+18
14156.0	2.16662665110487e+18
14157.0	2.1661899804377083e+18
14158.0	2.165750058346086e+18
14159.0	2.1653142315728893e+18
14160.0	2.164864216308121e+18
14161.0	2.1644014486814715e+18
14162.0	2.1639301934612475e+18
14163.0	2.1635555800383483e+18
14164.0	2.1630998840082424e+18
14165.0	2.1626657467006973e+18
14166.0	2.1622497455636475e+18
14167.0	2.161805830494617e+18
14168.0	2.161381006219673e+18
14169.0	2.1609456861183995e+18
14170.0	2.1605075071795195e+18
14171.0	2.1600713045966845e+18
14172.0	2.1596364475465728e+18
14173.0	2.1591840448839677e+18
14174.0	2.1587583247056893e+18
14175.0	2.158329118221926e+18
14176.0	2.1578938098647037e+18
14177.0	2.1574582397829117e+18
14178.0	2.1570219868684283e+18
14179.0	2.1565837525647355e+18
14180.0	2.1561518046838784e+18
14181.0	2.1557164963266552e+18
14182.0	2.155280656131686e+18
14183.0	2.1548453930729467e+18
14184.0	2.1544055582228475e+18
14185.0	2.15396488618967e+18
14186.0	2.1533704039956477e+18
14187.0	2.153064692921139e+18
14188.0	2.1526657978335227e+18
14189.0	2.1522353582243837e+18
14190.0	2.1518015329730557e+18
14191.0	2.1513664678854656e+18
14192.0	2.1509261532069885e+18
14193.0	2.1504747722768376e+18
14194.0	2.1500648109375485e+18
14195.0	2.149633742182809e+18
14196.0	2.14920036656087e+18
14197.0	2.148766764446515e+18
14198.0	2.148329979694284e+18
14199.0	2.1478963540918267e+18
14200.0	2.147368479123046e+18
14201.0	2.14701148513239e+18
14202.0	2.1465988880924667e+18
14203.0	2.1461633951858683e+18
14204.0	2.1457320697397243e+18
14205.0	2.1452970482728955e+18
14206.0	2.144784615053721e+18
14207.0	2.1444297685467133e+18
14208.0	2.1440008321761275e+18
14209.0	2.143474660094771e+18
14210.0	2.1429460049854456e+18
14211.0	2.142580776737177e+18
14212.0	2.1421540918689787e+18
14213.0	2.141722781522329e+18
14214.0	2.1412903353581565e+18
14215.0	2.1408516950458365e+18
14216.0	2.1404276643332093e+18
14217.0	2.139996011731353e+18
14218.0	2.1395543229988861e+18
14219.0	2.139132627674726e+18
14220.0	2.1387011327787003e+18
14221.0	2.1382684785770493e+18
14222.0	2.13782545605591e+18
14223.0	2.1374054954958843e+18
14224.0	2.1369698448834555e+18
14225.0	2.136232368799744e+18
14226.0	2.136086846583603e+18
14227.0	2.1356705350680573e+18
14228.0	2.1344057326305277e+18
14229.0	2.134495515901951e+18
14230.0	2.13425828438999e+18
14231.0	2.1338259858653181e+18
14232.0	2.1334016145752061e+18
14233.0	2.132969529121177e+18
14234.0	2.1325411329769467e+18
14235.0	2.1321092723376128e+18
14236.0	2.1316803544219645e+18
14237.0	2.1312486196117501e+18
14238.0	2.130816623076966e+18
14239.0	2.1303687234191357e+18
14240.0	2.1289281897103355e+18
14241.0	2.1294902985883643e+18
14242.0	2.1290841775538173e+18
14243.0	2.128569695836569e+18
14244.0	2.1282389514780667e+18
14245.0	2.1278052268900352e+18
14246.0	2.1273764062822395e+18
14247.0	2.1269310416617467e+18
14248.0	2.126380655024537e+18
14249.0	2.1259600284090365e+18
14250.0	2.1255310433845243e+18
14251.0	2.1251033619496955e+18
14252.0	2.1246738987745277e+18
14253.0	2.1242432058294267e+18
14254.0	2.1238105767936e+18
14255.0	2.1233494885662715e+18
14256.0	2.1226513718312955e+18
14257.0	2.1224294142967803e+18
14258.0	2.122091762758451e+18
14259.0	2.1216531190906877e+18
14260.0	2.1212294222446587e+18
14261.0	2.1207922096734203e+18
14262.0	2.1203889508319227e+18
14263.0	2.1195309187071995e+18
14264.0	2.11933198286848e+18
14265.0	2.1191083207688187e+18
14266.0	2.1186992519774203e+18
14267.0	2.1182754175582205e+18
14268.0	2.1178491990966272e+18
14269.0	2.1174148000645117e+18
14270.0	2.1169490712592384e+18
14271.0	2.1164195085025275e+18
14272.0	2.1159845289787387e+18
14273.0	2.1155152182378493e+18
14274.0	2.1143781977882624e+18
14275.0	2.11454266483671e+18
14276.0	2.114257255871283e+18
14277.0	2.1138457325731837e+18
14278.0	2.1134275956965373e+18
14279.0	2.1130017178124288e+18
14280.0	2.112573642113024e+18
14281.0	2.1121520105422845e+18
14282.0	2.1117262819753981e+18
14283.0	2.1113002195419133e+18
14284.0	2.1108740614782968e+18
14285.0	2.110447737320243e+18
14286.0	2.110021072584704e+18
14287.0	2.1095934632919037e+18
14288.0	2.1091532341772283e+18
14289.0	2.1080801114324977e+18
14290.0	2.1083029615149056e+18
14291.0	2.1078899333005304e+18
14292.0	2.1074662884638715e+18
14293.0	2.1070371809656827e+18
14294.0	2.1065257946447867e+18
14295.0	2.1061491025248253e+18
14296.0	2.105089188482253e+18
14297.0	2.1051474591088637e+18
14298.0	2.1045956296310781e+18
14299.0	2.1043163242168317e+18
14300.0	2.1039052438372347e+18
14301.0	2.1034844729376768e+18
14302.0	2.1030622440980477e+18
14303.0	2.1026089824419837e+18
14304.0	2.1022014219223035e+18
14305.0	2.1017866673324027e+18
14306.0	2.1013556589756416e+18
14307.0	2.1009310360272893e+18
14308.0	2.1005103121039352e+18
14309.0	2.1000818421399552e+18
14310.0	2.099635400422195e+18
14311.0	2.0992170974511101e+18
14312.0	2.0987900468396027e+18
14313.0	2.0983395215474683e+18
14314.0	2.0979650993848315e+18
14315.0	2.0975418152583163e+18
14316.0	2.0970896290217981e+18
14317.0	2.0966921851633661e+18
14318.0	2.0962776755208187e+18
14319.0	2.0958569935405053e+18
14320.0	2.0954343670808573e+18
14321.0	2.0950090227122173e+18
14322.0	2.0945647720988667e+18
14323.0	2.0940970535157757e+18
14324.0	2.0935846924386301e+18
14325.0	2.093153865275801e+18
14326.0	2.0927400032337917e+18
14327.0	2.0923114728718333e+18
14328.0	2.0918904268259325e+18
14329.0	2.0914721557315576e+18
14330.0	2.0910497373093883e+18
14331.0	2.0906271293046784e+18
14332.0	2.090204893754163e+18
14333.0	2.0897825793507325e+18
14334.0	2.0893600803979261e+18
14335.0	2.088928662677094e+18
14336.0	2.0884821102297083e+18
14337.0	2.0880905484632061e+18
14338.0	2.087669906748211e+18
14339.0	2.0872405761130493e+18
14340.0	2.086828104902246e+18
14341.0	2.0864061176545277e+18
14342.0	2.0859835734032381e+18
14343.0	2.085562817603174e+18
14344.0	2.0851389328523261e+18
14345.0	2.0847211533303803e+18
14346.0	2.084297731630694e+18
14347.0	2.0838698773905405e+18
14348.0	2.0834556630269947e+18
14349.0	2.0830356403912696e+18
14350.0	2.0825871451422717e+18
14351.0	2.0821623846207483e+18
14352.0	2.0817669557059581e+18
14353.0	2.0813532429811704e+18
14354.0	2.0809304034508797e+18
14355.0	2.080455995791769e+18
14356.0	2.0799189889843197e+18
14357.0	2.0795065093849088e+18
14358.0	2.0790866394218493e+18
14359.0	2.078652606133043e+18
14360.0	2.078243676592537e+18
14361.0	2.0778239676907515e+18
14362.0	2.0774045070917627e+18
14363.0	2.0769815585095675e+18
14364.0	2.076484275116441e+18
14365.0	2.0761059103080443e+18
14366.0	2.0757080889622525e+18
14367.0	2.0753050666795003e+18
14368.0	2.0748858376060925e+18
14369.0	2.0744668534800376e+18
14370.0	2.0740475489091576e+18
14371.0	2.07362832990208e+18
14372.0	2.0732046666104827e+18
14373.0	2.0727894942679037e+18
14374.0	2.0723703876681725e+18
14375.0	2.0719505948803072e+18
14376.0	2.071532414382899e+18
14377.0	2.0711130074710016e+18
14378.0	2.070692801963622e+18
14379.0	2.0702756582981635e+18
14380.0	2.0698560970358776e+18
14381.0	2.0694287712780283e+18
14382.0	2.0690185884794875e+18
14383.0	2.0685999147319293e+18
14384.0	2.0681673075064824e+18
14385.0	2.0677648019619835e+18
14386.0	2.0673310471749627e+18
14387.0	2.066928175887155e+18
14388.0	2.066509512205926e+18
14389.0	2.0660917075181563e+18
14390.0	2.0656731545665536e+18
14391.0	2.0652566115254267e+18
14392.0	2.0647366973456376e+18
14393.0	2.0642484820377592e+18
14394.0	2.0637986278342653e+18
14395.0	2.0634035311083517e+18
14396.0	2.0629939606781947e+18
14397.0	2.062575937886617e+18
14398.0	2.062157381579571e+18
14399.0	2.061738756485939e+18
14400.0	2.0613075971342333e+18
14401.0	2.0608925070000125e+18
14402.0	2.06046512587735e+18
14403.0	2.0595825855954934e+18
14404.0	2.0574307969138678e+18
14405.0	2.0580126190206956e+18
14406.0	2.0587745663516667e+18
14407.0	2.057855767150592e+18
14408.0	2.05793596056535e+18
14409.0	2.057548531027148e+18
14410.0	2.05714224054272e+18
14411.0	2.056732183573299e+18
14412.0	2.0563155667124221e+18
14413.0	2.0559019043192827e+18
14414.0	2.0554839805132797e+18
14415.0	2.055068127015731e+18
14416.0	2.054651211520409e+18
14417.0	2.054229848385126e+18
14418.0	2.0538120940290045e+18
14419.0	2.0534003207503872e+18
14420.0	2.0529808903503867e+18
14421.0	2.0525650100092928e+18
14422.0	2.0521354881138683e+18
14423.0	2.0516529753817083e+18
14424.0	2.0491012648468472e+18
14425.0	2.0508087425171453e+18
14426.0	2.0504768405307387e+18
14427.0	2.0500721992466427e+18
14428.0	2.0496405315452928e+18
14429.0	2.0492421833949176e+18
14430.0	2.0488215416799227e+18
14431.0	2.0482683750580221e+18
14432.0	2.0479796358152187e+18
14433.0	2.0470501948260347e+18
14434.0	2.046966656034406e+18
14435.0	2.046560659151257e+18
14436.0	2.0461616080355325e+18
14437.0	2.045748333196083e+18
14438.0	2.0453145062670336e+18
14439.0	2.0449123983425533e+18
14440.0	2.0445041700896763e+18
14441.0	2.044085001414246e+18
14442.0	2.0436668259500027e+18
14443.0	2.0432242799017981e+18
14444.0	2.0428367681552381e+18
14445.0	2.042414722187264e+18
14446.0	2.0411450828783619e+18
14447.0	2.0415435786682363e+18
14448.0	2.0411826185437176e+18
14449.0	2.0407725112426496e+18
14450.0	2.0403541596176381e+18
14451.0	2.0399416649187328e+18
14452.0	2.0395294436884477e+18
14453.0	2.0391124224966653e+18
14454.0	2.0387018504667133e+18
14455.0	2.0382814788648955e+18
14456.0	2.037872613077811e+18
14457.0	2.0374577980899325e+18
14458.0	2.0370434528641021e+18
14459.0	2.0366273376419837e+18
14460.0	2.0362107795013624e+18
14461.0	2.0357823749685243e+18
14462.0	2.0353702342688768e+18
14463.0	2.0349654537338877e+18
14464.0	2.0345591011737597e+18
14465.0	2.034134984897331e+18
14466.0	2.0337349841911808e+18
14467.0	2.0333082724794365e+18
14468.0	2.0329078338879488e+18
14469.0	2.0324798622072827e+18
14470.0	2.0320663306764283e+18
14471.0	2.0316699974696955e+18
14472.0	2.0312598582919163e+18
14473.0	2.030851561252454e+18
14474.0	2.0304415781027837e+18
14475.0	2.030026206111334e+18
14476.0	2.0295927331815421e+18
14477.0	2.0292044060622843e+18
14478.0	2.028790971839283e+18
14479.0	2.0283810977415165e+18
14480.0	2.0279547886829565e+18
14481.0	2.0275572273840125e+18
14482.0	2.0270991993208827e+18
14483.0	2.026542851738828e+18
14484.0	2.02612258415575e+18
14485.0	2.0256860393177083e+18
14486.0	2.0251009506869245e+18
14487.0	2.0248931866771453e+18
14488.0	2.024480376566579e+18
14489.0	2.0240641388707837e+18
14490.0	2.0236606099161088e+18
14491.0	2.023252911823257e+18
14492.0	2.0228425562193917e+18
14493.0	2.0224264879734776e+18
14494.0	2.022000433928601e+18
14495.0	2.021598159909683e+18
14496.0	2.0211020777652221e+18
14497.0	2.020779569342054e+18
14498.0	2.0203723108122621e+18
14499.0	2.0199611650015227e+18
14500.0	2.0195485478289403e+18
14501.0	2.019114752776601e+18
14502.0	2.0185750465150979e+18
14503.0	2.0182994824200187e+18
14504.0	2.017897480192e+18
14505.0	2.017476932429414e+18
14506.0	2.0170482678497275e+18
14507.0	2.016496468570931e+18
14508.0	2.016254791096729e+18
14509.0	2.0158498092351483e+18
14510.0	2.015437103143321e+18
14511.0	2.0150245446909952e+18
14512.0	2.014604896187187e+18
14513.0	2.0141998740602875e+18
14514.0	2.0137677516963837e+18
14515.0	2.0133560790810621e+18
14516.0	2.0112992863518725e+18
14517.0	2.0124892942827515e+18
14518.0	2.0121450593648635e+18
14519.0	2.011741159633715e+18
14520.0	2.0113327669641216e+18
14521.0	2.010922954942054e+18
14522.0	2.0105103209922555e+18
14523.0	2.01006888559575e+18
14524.0	2.0096632980766715e+18
14525.0	2.009278504239104e+18
14526.0	2.008871240676147e+18
14527.0	2.0084376519835645e+18
14528.0	2.007969186814361e+18
14529.0	2.0076356960255997e+18
14530.0	2.0072224782286843e+18
14531.0	2.0068231704215547e+18
14532.0	2.0063858404098043e+18
14533.0	2.0060047526592512e+18
14534.0	2.005599515783987e+18
14535.0	2.0051807531171837e+18
14536.0	2.0047769926369277e+18
14537.0	2.0043639275126781e+18
14538.0	2.003957058214297e+18
14539.0	2.0033693640818683e+18
14540.0	2.0029593289228283e+18
14541.0	2.0025289882992637e+18
14542.0	2.0021349384716283e+18
14543.0	2.0017009068605437e+18
14544.0	2.0013098484105208e+18
14545.0	2.0008744913993725e+18
14546.0	1.9978371106602993e+18
14547.0	1.9975550302945262e+18
14548.0	1.9996332122963965e+18
14549.0	1.999176617007513e+18
14550.0	1.9988481241513984e+18
14551.0	1.9984541833756672e+18
14552.0	1.9980458343268347e+18
14553.0	1.9976339083755517e+18
14554.0	1.9972298828152827e+18
14555.0	1.9968205640433661e+18
14556.0	1.9964103678230525e+18
14557.0	1.995998498914303e+18
14558.0	1.9955640864604155e+18
14559.0	1.9939418655686638e+18
14560.0	1.9947432896888827e+18
14561.0	1.9943583733776381e+18
14562.0	1.9939362569453565e+18
14563.0	1.9935470926430205e+18
14564.0	1.993136072661401e+18
14565.0	1.992734251627315e+18
14566.0	1.9923267263397888e+18
14567.0	1.9919174109233147e+18
14568.0	1.991502283879219e+18
14569.0	1.9910899636633592e+18
14570.0	1.9903486623743992e+18
14571.0	1.9902751261589501e+18
14572.0	1.9898473239281661e+18
14573.0	1.9894274036334587e+18
14574.0	1.989047943272857e+18
14575.0	1.9886468503699448e+18
14576.0	1.988236035070361e+18
14577.0	1.9878321638604792e+18
14578.0	1.9874302572625915e+18
14579.0	1.9870241395834875e+18
14580.0	1.986616719992422e+18
14581.0	1.9862061144080384e+18
14582.0	1.9857977569705981e+18
14583.0	1.9853930334781435e+18
14584.0	1.984975566012416e+18
14585.0	1.9845770970660861e+18
14586.0	1.9841692077129725e+18
14587.0	1.9837636738809853e+18
14588.0	1.983356811293491e+18
14589.0	1.9829521146445821e+18
14590.0	1.9825475018817533e+18
14591.0	1.9821417398796283e+18
14592.0	1.9817276513452027e+18
14593.0	1.9812500878917627e+18
14594.0	1.980924155238809e+18
14595.0	1.9805166265958392e+18
14596.0	1.9800378585382907e+18
14597.0	1.9796186110099456e+18
14598.0	1.979298988267929e+18
14599.0	1.9789074013356027e+18
14600.0	1.978503498249011e+18
14601.0	1.9780995783852027e+18
14602.0	1.977694626722611e+18
14603.0	1.9772621520371707e+18
14604.0	1.976673991498137e+18
14605.0	1.9762894879064061e+18
14606.0	1.9758402594930688e+18
14607.0	1.9754855421706237e+18
14608.0	1.9750845079879675e+18
14609.0	1.9746796855099387e+18
14610.0	1.9742737674797056e+18
14611.0	1.9738699768004605e+18
14612.0	1.9734695163985915e+18
14613.0	1.9730664672722941e+18
14614.0	1.9726604167020541e+18
14615.0	1.9722580638302203e+18
14616.0	1.9718542999945216e+18
14617.0	1.9714487963615227e+18
14618.0	1.9710362177765373e+18
14619.0	1.970533616005939e+18
14620.0	1.970040483296051e+18
14621.0	1.969825568836812e+18
14622.0	1.969425563097497e+18
14623.0	1.9690240759300093e+18
14624.0	1.9685821925818365e+18
14625.0	1.9682120871968765e+18
14626.0	1.9678139420508155e+18
14627.0	1.9674088259715064e+18
14628.0	1.9670072096194555e+18
14629.0	1.9666031807037435e+18
14630.0	1.9661975998955515e+18
14631.0	1.9657870530314237e+18
14632.0	1.9652147033407483e+18
14633.0	1.9649375303106555e+18
14634.0	1.9645741039353853e+18
14635.0	1.9641624111874043e+18
14636.0	1.9637359310012408e+18
14637.0	1.9633662903451645e+18
14638.0	1.9629566913937403e+18
14639.0	1.9625444416421888e+18
14640.0	1.9621272610668536e+18
14641.0	1.961051036214886e+18
14642.0	1.9613169383112701e+18
14643.0	1.9609373806428155e+18
14644.0	1.960522305608089e+18
14645.0	1.9601111832854525e+18
14646.0	1.9597117932699643e+18
14647.0	1.9593057041121277e+18
14648.0	1.958909035361075e+18
