# Flux units: erg / (cm m2 s)
# Wavelength units: Angstrom
wave	flux
14000.0	1.6295756172361725e+18
14001.0	1.6291832233197563e+18
14002.0	1.6288221642096635e+18
14003.0	1.6284454569902075e+18
14004.0	1.628068899087974e+18
14005.0	1.6276922489110525e+18
14006.0	1.6273141961588739e+18
14007.0	1.6269373027123197e+18
14008.0	1.6265429123071997e+18
14009.0	1.6261865592061947e+18
14010.0	1.6258077330243584e+18
14011.0	1.625315561648947e+18
14012.0	1.6250583350509565e+18
14013.0	1.6246825790996477e+18
14014.0	1.624302779839283e+18
14015.0	1.6239272034041853e+18
14016.0	1.6235521705508861e+18
14017.0	1.6231767518216192e+18
14018.0	1.6228010629791744e+18
14019.0	1.622426194542592e+18
14020.0	1.6220509167419387e+18
14021.0	1.621675803358003e+18
14022.0	1.6213009231773693e+18
14023.0	1.620922823448985e+18
14024.0	1.620548491883315e+18
14025.0	1.620177047676518e+18
14026.0	1.6198022010503165e+18
14027.0	1.619428208384409e+18
14028.0	1.6190539489607675e+18
14029.0	1.6186793959358461e+18
14030.0	1.6182316774719485e+18
14031.0	1.6179278303461376e+18
14032.0	1.6175543426744312e+18
14033.0	1.6171717902729216e+18
14034.0	1.6168069596446715e+18
14035.0	1.6164334535180285e+18
14036.0	1.616060007789363e+18
14037.0	1.615686429520691e+18
14038.0	1.6153134350991357e+18
14039.0	1.6149394390777853e+18
14040.0	1.6145645068877821e+18
14041.0	1.614193477078221e+18
14042.0	1.613819581720166e+18
14043.0	1.6134405189795837e+18
14044.0	1.6130739586203648e+18
14045.0	1.612703027796377e+18
14046.0	1.6123302263128061e+18
14047.0	1.6119574533505021e+18
14048.0	1.6115865342705661e+18
14049.0	1.6112146689556477e+18
14050.0	1.6108426962665467e+18
14051.0	1.6104674973188093e+18
14052.0	1.6100955565064192e+18
14053.0	1.6097237733998592e+18
14054.0	1.609352298994073e+18
14055.0	1.608980306172313e+18
14056.0	1.6086094340685821e+18
14057.0	1.608238137501286e+18
14058.0	1.6078669969620992e+18
14059.0	1.6074959335981053e+18
14060.0	1.6071249759305728e+18
14061.0	1.6067518925897725e+18
14062.0	1.606381429850112e+18
14063.0	1.606007660321177e+18
14064.0	1.6056287670304765e+18
14065.0	1.6052681407725565e+18
14066.0	1.604899357432217e+18
14067.0	1.604527339444633e+18
14068.0	1.604159071164825e+18
14069.0	1.6037887090884603e+18
14070.0	1.6034190835318781e+18
14071.0	1.6030487281663997e+18
14072.0	1.602679537139712e+18
14073.0	1.6023099115831293e+18
14074.0	1.6019373181370368e+18
14075.0	1.6015641089671168e+18
14076.0	1.6011960688574461e+18
14077.0	1.6008114914459648e+18
14078.0	1.6004587169251325e+18
14079.0	1.6000889135300605e+18
14080.0	1.5997220293705723e+18
14081.0	1.5993531571109888e+18
14082.0	1.5989803203952637e+18
14083.0	1.5986155803639805e+18
14084.0	1.598247401003417e+18
14085.0	1.5978241319763963e+18
14086.0	1.597509418247782e+18
14087.0	1.5971425391214592e+18
14088.0	1.5967721871114237e+18
14089.0	1.5964043231625213e+18
14090.0	1.596038279541555e+18
14091.0	1.5956707964354557e+18
14092.0	1.595303118713651e+18
14093.0	1.5949354930012157e+18
14094.0	1.5945680635822077e+18
14095.0	1.5942007012720635e+18
14096.0	1.5938297234718715e+18
14097.0	1.593463394638233e+18
14098.0	1.5930970372833277e+18
14099.0	1.5927287891361787e+18
14100.0	1.5923596954173437e+18
14101.0	1.5919952271769597e+18
14102.0	1.591628447036211e+18
14103.0	1.5912592207773693e+18
14104.0	1.5908955276443648e+18
14105.0	1.5905283431727104e+18
14106.0	1.5901628750102525e+18
14107.0	1.5897941906554877e+18
14108.0	1.5894283802378237e+18
14109.0	1.5890637610024957e+18
14110.0	1.5886944206585853e+18
14111.0	1.588323697872076e+18
14112.0	1.5879659270963197e+18
14113.0	1.5876019185516541e+18
14114.0	1.587233792878182e+18
14115.0	1.5868708614307837e+18
14116.0	1.5864922885849085e+18
14117.0	1.586021422596096e+18
14118.0	1.5857753897566205e+18
14119.0	1.585407992214323e+18
14120.0	1.5850441094987776e+18
14121.0	1.5846771649413115e+18
14122.0	1.5843135322062843e+18
14123.0	1.5839481143754747e+18
14124.0	1.5835833189793787e+18
14125.0	1.5831325755834365e+18
14126.0	1.5828568084840443e+18
14127.0	1.5824915819134976e+18
14128.0	1.5821272780898301e+18
14129.0	1.5817613904969723e+18
14130.0	1.5813954408284157e+18
14131.0	1.5810360409849856e+18
14132.0	1.580671349607628e+18
14133.0	1.5802029230260216e+18
14134.0	1.579945342428774e+18
14135.0	1.5795794229592064e+18
14136.0	1.579210340984422e+18
14137.0	1.5788556521832443e+18
14138.0	1.578491043014246e+18
14139.0	1.5781297020469243e+18
14140.0	1.5777591621320701e+18
14141.0	1.5774041193316347e+18
14142.0	1.577028485854003e+18
14143.0	1.576668723622707e+18
14144.0	1.5763166839439357e+18
14145.0	1.5759543564763133e+18
14146.0	1.5755917605732347e+18
14147.0	1.5752297720053757e+18
14148.0	1.5748673740734464e+18
14149.0	1.5745051288141821e+18
14150.0	1.5741441418461184e+18
14151.0	1.573780760769331e+18
14152.0	1.5734208978747387e+18
14153.0	1.573059332092723e+18
14154.0	1.572692966349209e+18
14155.0	1.572280339110297e+18
14156.0	1.571973577782067e+18
14157.0	1.5716139799674877e+18
14158.0	1.5712486275678203e+18
14159.0	1.5708886556213243e+18
14160.0	1.5705279471550456e+18
14161.0	1.5701547698618365e+18
14162.0	1.5697860368531453e+18
14163.0	1.5694459811397632e+18
14164.0	1.5690799039643643e+18
14165.0	1.5686454965436416e+18
14166.0	1.5683647801655293e+18
14167.0	1.568002352034611e+18
14168.0	1.5676441484066816e+18
14169.0	1.567285171349094e+18
14170.0	1.5669243957739515e+18
14171.0	1.566564819769753e+18
14172.0	1.5662059551195133e+18
14173.0	1.5658097846517757e+18
14174.0	1.5654862662402043e+18
14175.0	1.565127646537318e+18
14176.0	1.5647678859837437e+18
14177.0	1.5644090498547707e+18
14178.0	1.5640493715095547e+18
14179.0	1.5636833715093501e+18
14180.0	1.5633324290605056e+18
14181.0	1.5629736768176128e+18
14182.0	1.5626148742430715e+18
14183.0	1.5622564827103232e+18
14184.0	1.5618970291798016e+18
14185.0	1.5615396711235584e+18
14186.0	1.561155878885785e+18
14187.0	1.5608177978507256e+18
14188.0	1.5604582050693115e+18
14189.0	1.5600994041724925e+18
14190.0	1.5597423917268992e+18
14191.0	1.5593845974630397e+18
14192.0	1.5590255566520315e+18
14193.0	1.558665973936947e+18
14194.0	1.5583089732354043e+18
14195.0	1.5579515816247293e+18
14196.0	1.5575942487343101e+18
14197.0	1.5572370819383293e+18
14198.0	1.5568789621964797e+18
14199.0	1.556521781978726e+18
14200.0	1.5561525842411515e+18
14201.0	1.5558093056245757e+18
14202.0	1.5554527629410301e+18
14203.0	1.5550874440957944e+18
14204.0	1.5547390702387197e+18
14205.0	1.5543827355926525e+18
14206.0	1.554002553811763e+18
14207.0	1.553670775976755e+18
14208.0	1.5533147483537405e+18
14209.0	1.5529307128463352e+18
14210.0	1.552586917491507e+18
14211.0	1.5522460581494781e+18
14212.0	1.5518911596331003e+18
14213.0	1.5515351689199613e+18
14214.0	1.5511800824987643e+18
14215.0	1.5508219594014715e+18
14216.0	1.5504695590125563e+18
14217.0	1.5501143199186944e+18
14218.0	1.5497569165639677e+18
14219.0	1.5494042091519997e+18
14220.0	1.549049324057395e+18
14221.0	1.5486939809447933e+18
14222.0	1.5483351431380987e+18
14223.0	1.5479849170763773e+18
14224.0	1.5476306175066112e+18
14225.0	1.5472371431374843e+18
14226.0	1.5469218656944125e+18
14227.0	1.5465676583993341e+18
14228.0	1.5461131267080192e+18
14229.0	1.5458485198127101e+18
14230.0	1.5455055347974141e+18
14231.0	1.5451487152898048e+18
14232.0	1.544797935579955e+18
14233.0	1.544442770305843e+18
14234.0	1.544089049550028e+18
14235.0	1.5437335285989373e+18
14236.0	1.543380457121382e+18
14237.0	1.543027170895462e+18
14238.0	1.542674166526771e+18
14239.0	1.5423198954782715e+18
14240.0	1.541676083236045e+18
14241.0	1.541615296027033e+18
14242.0	1.5412625751932925e+18
14243.0	1.5408797459677184e+18
14244.0	1.5405572962648064e+18
14245.0	1.540200622718976e+18
14246.0	1.539845371881062e+18
14247.0	1.5394990398111741e+18
14248.0	1.5391449080135677e+18
14249.0	1.5387953278746621e+18
14250.0	1.5384432529637376e+18
14251.0	1.5380918323642365e+18
14252.0	1.537739987301171e+18
14253.0	1.5373881372049403e+18
14254.0	1.537036139469209e+18
14255.0	1.5366789659623421e+18
14256.0	1.5362994082938877e+18
14257.0	1.5359814280413181e+18
14258.0	1.535631091249971e+18
14259.0	1.535276125624729e+18
14260.0	1.534927271939276e+18
14261.0	1.5345739186044925e+18
14262.0	1.5342316030001147e+18
14263.0	1.5338296007720957e+18
14264.0	1.5335219838058493e+18
14265.0	1.533177909949235e+18
14266.0	1.532829084785049e+18
14267.0	1.5324786003542013e+18
14268.0	1.5321284195909632e+18
14269.0	1.5317777573216256e+18
14270.0	1.5314281486614523e+18
14271.0	1.5310768908009472e+18
14272.0	1.5307281914658813e+18
14273.0	1.5303783395360765e+18
14274.0	1.5299541645393915e+18
14275.0	1.5296725052817405e+18
14276.0	1.5293208615452667e+18
14277.0	1.528974599939686e+18
14278.0	1.5286307609640957e+18
14279.0	1.528281471071027e+18
14280.0	1.527930792024473e+18
14281.0	1.5275833073598464e+18
14282.0	1.5272344167645181e+18
14283.0	1.5268831337381888e+18
14284.0	1.5265336458739712e+18
14285.0	1.5261849566052347e+18
14286.0	1.5258361532514307e+18
14287.0	1.5254879085789184e+18
14288.0	1.5251394642575357e+18
14289.0	1.5246049958428662e+18
14290.0	1.5244413122904064e+18
14291.0	1.5240945641455613e+18
14292.0	1.5237468848652285e+18
14293.0	1.5233985512734715e+18
14294.0	1.5230243170156544e+18
14295.0	1.5227008472580093e+18
14296.0	1.5222050503262205e+18
14297.0	1.522008265326592e+18
14298.0	1.5216260719575037e+18
14299.0	1.5213106602967037e+18
14300.0	1.5209645849182203e+18
14301.0	1.5206171640070141e+18
14302.0	1.5202711792254976e+18
14303.0	1.519918070838067e+18
14304.0	1.5195747418898432e+18
14305.0	1.5192303459106813e+18
14306.0	1.5188659447791613e+18
14307.0	1.5185340176269307e+18
14308.0	1.5181915308949501e+18
14309.0	1.517844479082496e+18
14310.0	1.517418265654067e+18
14311.0	1.5171277044056067e+18
14312.0	1.5167998255955965e+18
14313.0	1.5164437040201725e+18
14314.0	1.5161140015267837e+18
14315.0	1.5157686274359296e+18
14316.0	1.515412858182041e+18
14317.0	1.5150690745712635e+18
14318.0	1.5147317048901632e+18
14319.0	1.5143863207329787e+18
14320.0	1.5140408392679421e+18
14321.0	1.513695668181401e+18
14322.0	1.5133415347060736e+18
14323.0	1.513002858079846e+18
14324.0	1.5126601784098813e+18
14325.0	1.512313594681753e+18
14326.0	1.5119707036188672e+18
14327.0	1.511624594685952e+18
14328.0	1.5112801013989376e+18
14329.0	1.5109368278155264e+18
14330.0	1.510592378149273e+18
14331.0	1.5102479100280824e+18
14332.0	1.5099037690626043e+18
14333.0	1.5095596197085184e+18
14334.0	1.509215599538995e+18
14335.0	1.5088656989552635e+18
14336.0	1.5085203751960573e+18
14337.0	1.5081837823000576e+18
14338.0	1.507838743753523e+18
14339.0	1.5074912674775037e+18
14340.0	1.5071499954159616e+18
14341.0	1.506806231937843e+18
14342.0	1.5064632083349504e+18
14343.0	1.5061163377164285e+18
14344.0	1.5057742620262397e+18
14345.0	1.5054338825125885e+18
14346.0	1.5050904612896765e+18
14347.0	1.504744649313485e+18
14348.0	1.504405026452275e+18
14349.0	1.5040625900519421e+18
14350.0	1.5037169525587963e+18
14351.0	1.503373225990553e+18
14352.0	1.503033210542489e+18
14353.0	1.502692500517683e+18
14354.0	1.5023499902975997e+18
14355.0	1.502007369347891e+18
14356.0	1.50166573154304e+18
14357.0	1.5013244410265595e+18
14358.0	1.5009825901510653e+18
14359.0	1.5006378183622653e+18
14360.0	1.500298819613491e+18
14361.0	1.4999575173529597e+18
14362.0	1.4996160959741944e+18
14363.0	1.4992746393632763e+18
14364.0	1.4989224503672824e+18
14365.0	1.4985910298869757e+18
14366.0	1.4982492880633856e+18
14367.0	1.4979100527558656e+18
14368.0	1.4975690189307904e+18
14369.0	1.4972282770292736e+18
14370.0	1.4968875284168704e+18
14371.0	1.4965468787900413e+18
14372.0	1.4962051403218944e+18
14373.0	1.4958657741520893e+18
14374.0	1.4955254130933752e+18
14375.0	1.495184847352627e+18
14376.0	1.4948449426341885e+18
14377.0	1.4945047006937085e+18
14378.0	1.4941642792370176e+18
14379.0	1.4938248644132864e+18
14380.0	1.4934849831829504e+18
14381.0	1.493142808507187e+18
14382.0	1.4928052777648125e+18
14383.0	1.492460537852723e+18
14384.0	1.492122416552345e+18
14385.0	1.4917871758999547e+18
14386.0	1.4914449760583677e+18
14387.0	1.4911086146879485e+18
14388.0	1.4907690891345915e+18
14389.0	1.4904304712286203e+18
14390.0	1.4900911151251453e+18
14391.0	1.489752572716646e+18
14392.0	1.4894109214900221e+18
14393.0	1.4890753385824253e+18
14394.0	1.488729394066227e+18
14395.0	1.4883940829495293e+18
14396.0	1.488059768399462e+18
14397.0	1.4877215917342715e+18
14398.0	1.4873817658687485e+18
14399.0	1.487045213238067e+18
14400.0	1.486702349018726e+18
14401.0	1.4863681015775232e+18
14402.0	1.4860245025161213e+18
14403.0	1.4843727570796516e+18
14404.0	1.4817115450114038e+18
14405.0	1.4847423776030707e+18
14406.0	1.484661434246758e+18
14407.0	1.4823068945874957e+18
14408.0	1.4839824586375165e+18
14409.0	1.4836457231351803e+18
14410.0	1.4833112525570045e+18
14411.0	1.4829750556033021e+18
14412.0	1.4826377832300541e+18
14413.0	1.482301463802675e+18
14414.0	1.4819643407466493e+18
14415.0	1.4816279022010365e+18
14416.0	1.4812910828126205e+18
14417.0	1.4809503291670525e+18
14418.0	1.480608934631833e+18
14419.0	1.4802819416588285e+18
14420.0	1.4799450031521787e+18
14421.0	1.4796097071349757e+18
14422.0	1.4792730135756797e+18
14423.0	1.4789367226695677e+18
14424.0	1.4704706240643005e+18
14425.0	1.4782652347318272e+18
14426.0	1.4779302809698301e+18
14427.0	1.4775949144883197e+18
14428.0	1.4772534394224637e+18
14429.0	1.4769234903039997e+18
14430.0	1.4765885734518781e+18
14431.0	1.4762359197270013e+18
14432.0	1.4759120657711101e+18
14433.0	1.4740712796979185e+18
14434.0	1.4752450741272573e+18
14435.0	1.4749088419414013e+18
14436.0	1.474578332463923e+18
14437.0	1.4742435900948477e+18
14438.0	1.4738682116308992e+18
14439.0	1.4735657083600893e+18
14440.0	1.4732397169868797e+18
14441.0	1.4729040199942141e+18
14442.0	1.4725685109063675e+18
14443.0	1.472226821092147e+18
14444.0	1.4719019185602557e+18
14445.0	1.4715687398277115e+18
14446.0	1.469609880741479e+18
14447.0	1.4708989614882813e+18
14448.0	1.4705672792834048e+18
14449.0	1.4702336039452667e+18
14450.0	1.4698987693015035e+18
14451.0	1.4695663187001341e+18
14452.0	1.4692323967369213e+18
14453.0	1.4688724382121981e+18
14454.0	1.4685663026741248e+18
14455.0	1.4682321928060923e+18
14456.0	1.467894490936115e+18
14457.0	1.4675581681532923e+18
14458.0	1.4672322287894525e+18
14459.0	1.4668977682776064e+18
14460.0	1.4665683610632187e+18
14461.0	1.466232388924211e+18
14462.0	1.4658836778450941e+18
14463.0	1.4655702391848957e+18
14464.0	1.4652386291220475e+18
14465.0	1.4649020026716157e+18
14466.0	1.464573942667673e+18
14467.0	1.4642210624503805e+18
14468.0	1.4639082915233787e+18
14469.0	1.4635738360446973e+18
14470.0	1.463239734565273e+18
14471.0	1.4629103692939264e+18
14472.0	1.462580223882035e+18
14473.0	1.4622510934917115e+18
14474.0	1.4619193995427837e+18
14475.0	1.4615864640798715e+18
14476.0	1.4611579790163965e+18
14477.0	1.460925394793267e+18
14478.0	1.4605938904268797e+18
14479.0	1.4602617451708413e+18
14480.0	1.4599264827080701e+18
14481.0	1.4595983438512125e+18
14482.0	1.4592668478734336e+18
14483.0	1.458934509679411e+18
14484.0	1.458605110853632e+18
14485.0	1.4582667462836221e+18
14486.0	1.457885614912307e+18
14487.0	1.4576143843721213e+18
14488.0	1.4572805630722045e+18
14489.0	1.456952263154073e+18
14490.0	1.4566220858654715e+18
14491.0	1.4562933765832701e+18
14492.0	1.4559634358534141e+18
14493.0	1.455632481779712e+18
14494.0	1.4552996956340221e+18
14495.0	1.454974125368934e+18
14496.0	1.4546174165909504e+18
14497.0	1.4543147220598781e+18
14498.0	1.4539796877672445e+18
14499.0	1.4536489618636797e+18
14500.0	1.4533195647156221e+18
14501.0	1.452947672557158e+18
14502.0	1.4525769816473597e+18
14503.0	1.4523280681598973e+18
14504.0	1.452002164028211e+18
14505.0	1.4516361069854715e+18
14506.0	1.4512528566517757e+18
14507.0	1.4509679979790336e+18
14508.0	1.4506879828885501e+18
14509.0	1.4503593860136957e+18
14510.0	1.450030253945651e+18
14511.0	1.4497024372113408e+18
14512.0	1.4493708774801408e+18
14513.0	1.4490458138869757e+18
14514.0	1.4487032533352448e+18
14515.0	1.4483884624314365e+18
14516.0	1.4476022200139779e+18
14517.0	1.4477335268950013e+18
14518.0	1.4474056564735995e+18
14519.0	1.447077925303091e+18
14520.0	1.446750222653849e+18
14521.0	1.4464212415807485e+18
14522.0	1.4460950270705664e+18
14523.0	1.4456742695927808e+18
14524.0	1.4453399214882813e+18
14525.0	1.445111761417011e+18
14526.0	1.4447857079681021e+18
14527.0	1.4444532473004032e+18
14528.0	1.4441019760181248e+18
14529.0	1.4438024439922685e+18
14530.0	1.4434735853928448e+18
14531.0	1.443150320317235e+18
14532.0	1.4426690893643773e+18
14533.0	1.4424971900092413e+18
14534.0	1.442170816115507e+18
14535.0	1.441841831686963e+18
14536.0	1.4415170314960893e+18
14537.0	1.4411889178050557e+18
14538.0	1.440865068882329e+18
14539.0	1.440539080864563e+18
14540.0	1.4402129552736253e+18
14541.0	1.439882361910067e+18
14542.0	1.4395604943765504e+18
14543.0	1.4391731940229115e+18
14544.0	1.4389091978182653e+18
14545.0	1.4385813894725632e+18
14546.0	1.4282452797226934e+18
14547.0	1.4291200655753126e+18
14548.0	1.4376040109441021e+18
14549.0	1.437257464125849e+18
14550.0	1.4369548518031357e+18
14551.0	1.4366308418191357e+18
14552.0	1.4363048017919997e+18
14553.0	1.4359782232162301e+18
14554.0	1.435655516821913e+18
14555.0	1.4353302972006397e+18
14556.0	1.4350030458585085e+18
14557.0	1.4346808562024448e+18
14558.0	1.434356077821952e+18
14559.0	1.433690646459186e+18
14560.0	1.4337018167295997e+18
14561.0	1.4333809826725885e+18
14562.0	1.433052919313203e+18
14563.0	1.4327335666843645e+18
14564.0	1.4324074880696315e+18
14565.0	1.4320850685657085e+18
14566.0	1.4317609193308157e+18
14567.0	1.4314368271384576e+18
14568.0	1.4311066951483387e+18
14569.0	1.430789001786163e+18
14570.0	1.4303686368952315e+18
14571.0	1.4301379182985213e+18
14572.0	1.429805798208307e+18
14573.0	1.429481961029632e+18
14574.0	1.4291625949790208e+18
14575.0	1.4288437238562813e+18
14576.0	1.4285203597950973e+18
14577.0	1.428195987423232e+18
14578.0	1.427873628317286e+18
14579.0	1.427550779316633e+18
14580.0	1.427227752477491e+18
14581.0	1.426901687284531e+18
14582.0	1.4265816082022397e+18
14583.0	1.426258712225382e+18
14584.0	1.4259336284995581e+18
14585.0	1.4256130259681277e+18
14586.0	1.4252895796985853e+18
14587.0	1.4249656435343357e+18
14588.0	1.424645596328755e+18
14589.0	1.4243355466661885e+18
14590.0	1.4240267603279867e+18
14591.0	1.4237177609191421e+18
14592.0	1.4234082028290045e+18
14593.0	1.4230773527740413e+18
14594.0	1.4227920797040637e+18
14595.0	1.4224822380789757e+18
14596.0	1.4221594679312381e+18
14597.0	1.421856080501145e+18
14598.0	1.4215573370044413e+18
14599.0	1.4212499683409917e+18
14600.0	1.420941437016473e+18
14601.0	1.4206335079940093e+18
14602.0	1.4203226731577341e+18
14603.0	1.4200170023485437e+18
14604.0	1.419700419638067e+18
14605.0	1.4193983357976576e+18
14606.0	1.4190782281940992e+18
14607.0	1.4187849926574075e+18
14608.0	1.4184767415123965e+18
14609.0	1.418161331529318e+18
14610.0	1.4178567260733435e+18
14611.0	1.4175536808984573e+18
14612.0	1.4172468205846525e+18
14613.0	1.4169392942153725e+18
14614.0	1.4166309726060541e+18
14615.0	1.4163232851755003e+18
14616.0	1.4160167922827264e+18
14617.0	1.4157093112119293e+18
14618.0	1.415399202829107e+18
14619.0	1.415090300728115e+18
14620.0	1.4147619219570685e+18
14621.0	1.414480209012326e+18
14622.0	1.414172410852147e+18
14623.0	1.4138658760163325e+18
14624.0	1.4135470921351165e+18
14625.0	1.4132509776281597e+18
14626.0	1.4129422734983165e+18
14627.0	1.4126319184904187e+18
14628.0	1.4123307154538493e+18
14629.0	1.4120238014529536e+18
14630.0	1.411716696191795e+18
14631.0	1.411409287263027e+18
14632.0	1.4104253706534912e+18
14633.0	1.4107371802460155e+18
14634.0	1.4104880536879101e+18
14635.0	1.4101352456126456e+18
14636.0	1.409687273812787e+18
14637.0	1.4095698014240765e+18
14638.0	1.4092627532054525e+18
14639.0	1.4089545205153787e+18
14640.0	1.4086491751841792e+18
14641.0	1.405784077998487e+18
14642.0	1.4080359880720381e+18
14643.0	1.4077304816795648e+18
14644.0	1.4074217968435197e+18
14645.0	1.4071127697522685e+18
14646.0	1.4068079445147645e+18
14647.0	1.406501796393779e+18
