# Flux units: erg / (cm m2 s)
# Wavelength units: Angstrom
wave	flux
14000.0	1.5470880121421816e+18
14001.0	1.5468113877270525e+18
14002.0	1.5466530611396605e+18
14003.0	1.5463705093341181e+18
14004.0	1.5460759148429307e+18
14005.0	1.5457811592904701e+18
14006.0	1.5454785671004152e+18
14007.0	1.5451840934051835e+18
14008.0	1.5448059198570493e+18
14009.0	1.5445983135531003e+18
14010.0	1.5442968135598077e+18
14011.0	1.5433617236819963e+18
14012.0	1.5437195313676285e+18
14013.0	1.5434256314531835e+18
14014.0	1.5431263728959488e+18
14015.0	1.5428352747765757e+18
14016.0	1.5425432723652605e+18
14017.0	1.5422494781472765e+18
14018.0	1.541953702540083e+18
14019.0	1.5416617471049725e+18
14020.0	1.5413673992388603e+18
14021.0	1.5410730111074301e+18
14022.0	1.5407726569979901e+18
14023.0	1.540455230393548e+18
14024.0	1.5401619965345787e+18
14025.0	1.5398932574109693e+18
14026.0	1.5395997937041403e+18
14027.0	1.5393082056900605e+18
14028.0	1.5390150238404603e+18
14029.0	1.538721476247552e+18
14030.0	1.5364385467793418e+18
14031.0	1.5379970226388987e+18
14032.0	1.537837647475507e+18
14033.0	1.5374939393622016e+18
14034.0	1.5372541342253053e+18
14035.0	1.5369641132031997e+18
14036.0	1.5366714548027387e+18
14037.0	1.5363777260158976e+18
14038.0	1.5360862504091648e+18
14039.0	1.5357901778452475e+18
14040.0	1.5354928402792443e+18
14041.0	1.535204122846822e+18
14042.0	1.5348975427125243e+18
14043.0	1.534578471940915e+18
14044.0	1.5343132728098813e+18
14045.0	1.5340294979452925e+18
14046.0	1.5337395238993915e+18
14047.0	1.533437594409369e+18
14048.0	1.5331530008166395e+18
14049.0	1.5328668435873792e+18
14050.0	1.5325750576021501e+18
14051.0	1.5322752755957752e+18
14052.0	1.531991213840793e+18
14053.0	1.5316999580155904e+18
14054.0	1.5314084522098685e+18
14055.0	1.5311169631813632e+18
14056.0	1.5308255060295677e+18
14057.0	1.5305341830955003e+18
14058.0	1.5302428433842176e+18
14059.0	1.529950149751603e+18
14060.0	1.5296604877619197e+18
14061.0	1.5293604473864187e+18
14062.0	1.5290731375624192e+18
14063.0	1.5287663779119101e+18
14064.0	1.5280652496666621e+18
14065.0	1.528191607268966e+18
14066.0	1.5279095839457277e+18
14067.0	1.5275953148133376e+18
14068.0	1.5273281795915776e+18
14069.0	1.5270330280968192e+18
14070.0	1.5267456981401597e+18
14071.0	1.526453605131878e+18
14072.0	1.5261661627678715e+18
14073.0	1.5258758179454973e+18
14074.0	1.5255856039854077e+18
14075.0	1.5252787520602112e+18
14076.0	1.5249752924880893e+18
14077.0	1.524238313009971e+18
14078.0	1.524389266010931e+18
14079.0	1.5241259845156864e+18
14080.0	1.5238453134360576e+18
14081.0	1.5235554920628221e+18
14082.0	1.5232608019415037e+18
14083.0	1.5229745977360384e+18
14084.0	1.5226821188517885e+18
14085.0	1.5219401833840635e+18
14086.0	1.5220643867918336e+18
14087.0	1.5218115742793725e+18
14088.0	1.5215061500952576e+18
14089.0	1.5212140067553277e+18
14090.0	1.52093541269504e+18
14091.0	1.520655543566336e+18
14092.0	1.5203664318693376e+18
14093.0	1.5200773637931005e+18
14094.0	1.5197883510816763e+18
14095.0	1.5194993970905085e+18
14096.0	1.519121357760102e+18
14097.0	1.5188957679583232e+18
14098.0	1.5185925248122877e+18
14099.0	1.5183442320818176e+18
14100.0	1.5180431464857597e+18
14101.0	1.5177671948369915e+18
14102.0	1.517478490826342e+18
14103.0	1.5171738987921405e+18
14104.0	1.5169018981777405e+18
14105.0	1.5166130565939197e+18
14106.0	1.5163252216430592e+18
14107.0	1.5160341755330552e+18
14108.0	1.5157369369526272e+18
14109.0	1.5154512612294653e+18
14110.0	1.5151599550726144e+18
14111.0	1.5148664192237565e+18
14112.0	1.5145853756899325e+18
14113.0	1.5142918348079101e+18
14114.0	1.5140036911562747e+18
14115.0	1.5137248135610365e+18
14116.0	1.5133627276853243e+18
14117.0	1.5096043595104253e+18
14118.0	1.5128653335625723e+18
14119.0	1.5125219190505472e+18
14120.0	1.512248613168742e+18
14121.0	1.511990978884403e+18
14122.0	1.5116265123217403e+18
14123.0	1.5113771223613435e+18
14124.0	1.5110778134724603e+18
14125.0	1.510410241336934e+18
14126.0	1.510557072175923e+18
14127.0	1.5102814460051453e+18
14128.0	1.5099933124198397e+18
14129.0	1.5096965972885504e+18
14130.0	1.509403311420211e+18
14131.0	1.5091345085431805e+18
14132.0	1.5088433466703872e+18
14133.0	1.5080406021832694e+18
14134.0	1.5082734112210941e+18
14135.0	1.507958066669158e+18
14136.0	1.507593548097126e+18
14137.0	1.5074021452283904e+18
14138.0	1.507086644648345e+18
14139.0	1.506837679151513e+18
14140.0	1.5065422189559805e+18
14141.0	1.5062440341405688e+18
14142.0	1.505725564479079e+18
14143.0	1.505686282305536e+18
14144.0	1.505407884538675e+18
14145.0	1.5051207659749373e+18
14146.0	1.5048297601302525e+18
14147.0	1.5045469029793792e+18
14148.0	1.504253786560921e+18
14149.0	1.5039696174317563e+18
14150.0	1.503553658237747e+18
14151.0	1.5032483011624957e+18
14152.0	1.502981662546329e+18
14153.0	1.5024668754837501e+18
14154.0	1.5019390575575037e+18
14155.0	1.5011357980098557e+18
14156.0	1.501225708788121e+18
14157.0	1.5011105315225597e+18
14158.0	1.5008210775703547e+18
14159.0	1.5005405591633915e+18
14160.0	1.500244436267827e+18
14161.0	1.4999203440754685e+18
14162.0	1.4995854020575232e+18
14163.0	1.4994005389475837e+18
14164.0	1.499007827941785e+18
14165.0	1.4987300375101437e+18
14166.0	1.4985443254730755e+18
14167.0	1.4982513382391805e+18
14168.0	1.4979628254887936e+18
14169.0	1.4976901655298048e+18
14170.0	1.497396305880678e+18
14171.0	1.4971175876689915e+18
14172.0	1.4968375071473664e+18
14173.0	1.4964979446841341e+18
14174.0	1.4962599296761853e+18
14175.0	1.4959847531347963e+18
14176.0	1.4956995119415293e+18
14177.0	1.495416684989644e+18
14178.0	1.495132094752358e+18
14179.0	1.494838875992883e+18
14180.0	1.494566732772147e+18
14181.0	1.494283122324275e+18
14182.0	1.4939988223328256e+18
14183.0	1.4937161413427197e+18
14184.0	1.493427900383232e+18
14185.0	1.4931492207591421e+18
14186.0	1.4922572583927805e+18
14187.0	1.4925589664235512e+18
14188.0	1.492298562220851e+18
14189.0	1.4920103715930112e+18
14190.0	1.4917285059756024e+18
14191.0	1.491443045000806e+18
14192.0	1.491159588903321e+18
14193.0	1.4907828263190525e+18
14194.0	1.490595728483942e+18
14195.0	1.4903191527227392e+18
14196.0	1.4900362670505981e+18
14197.0	1.489753626325811e+18
14198.0	1.4894665916481536e+18
14199.0	1.489185405507993e+18
14200.0	1.488535927599923e+18
14201.0	1.488577835407769e+18
14202.0	1.4883400099823613e+18
14203.0	1.4880463818588157e+18
14204.0	1.487770911716147e+18
14205.0	1.4874873851543547e+18
14206.0	1.4870882686074875e+18
14207.0	1.486925600076595e+18
14208.0	1.486643838477926e+18
14209.0	1.486241101407846e+18
14210.0	1.485985478711705e+18
14211.0	1.4857942335487997e+18
14212.0	1.4855159414784e+18
14213.0	1.4852292473782272e+18
14214.0	1.4849524803567613e+18
14215.0	1.4846580284719101e+18
14216.0	1.4843908110417912e+18
14217.0	1.4841089890451453e+18
14218.0	1.4838180603756541e+18
14219.0	1.483546626831155e+18
14220.0	1.4832614242254848e+18
14221.0	1.4829763289939965e+18
14222.0	1.4826562381676541e+18
14223.0	1.4824183322116093e+18
14224.0	1.482141123949363e+18
14225.0	1.4806098204688392e+18
14226.0	1.481556151081369e+18
14227.0	1.4812985033752579e+18
14228.0	1.47784989629481e+18
14229.0	1.4797238861561836e+18
14230.0	1.4804562485444603e+18
14231.0	1.480131876172595e+18
14232.0	1.4798950842236928e+18
14233.0	1.4796100611342339e+18
14234.0	1.4793347335979005e+18
14235.0	1.4790519301341181e+18
14236.0	1.4787740541386747e+18
14237.0	1.478492619695718e+18
14238.0	1.4782134065561597e+18
14239.0	1.4779219057836032e+18
14240.0	1.475963873814118e+18
14241.0	1.4773653384200187e+18
14242.0	1.4770887005831163e+18
14243.0	1.4766663761133565e+18
14244.0	1.476532196972953e+18
14245.0	1.4762299319386107e+18
14246.0	1.4759460916428797e+18
14247.0	1.4756859508424701e+18
14248.0	1.4753925106237437e+18
14249.0	1.4751289489489915e+18
14250.0	1.4748494254309373e+18
14251.0	1.4745723396423677e+18
14252.0	1.4742929318871037e+18
14253.0	1.4740127188254715e+18
14254.0	1.4737322725605376e+18
14255.0	1.4734207179816957e+18
14256.0	1.47204876449874e+18
14257.0	1.4727762245844984e+18
14258.0	1.4726181647548413e+18
14259.0	1.4723220670251003e+18
14260.0	1.4720183507615741e+18
14261.0	1.4717655466377213e+18
14262.0	1.471516473766707e+18
14263.0	1.4696170429349893e+18
14264.0	1.4705149377249272e+18
14265.0	1.4706751349719035e+18
14266.0	1.4704019196870653e+18
14267.0	1.470125432845107e+18
14268.0	1.469845639213875e+18
14269.0	1.4695633390665725e+18
14270.0	1.4692904106721272e+18
14271.0	1.469010754614067e+18
14272.0	1.4687338735075323e+18
14273.0	1.4684540580659195e+18
14274.0	1.4655463987609603e+18
14275.0	1.4676645860343805e+18
14276.0	1.4676045705773053e+18
14277.0	1.4673263288385536e+18
14278.0	1.467065870948761e+18
14279.0	1.4667866812973053e+18
14280.0	1.4665046613295104e+18
14281.0	1.4662332479176701e+18
14282.0	1.4659559507361792e+18
14283.0	1.4656784404840448e+18
14284.0	1.4654009688195067e+18
14285.0	1.4651232438190075e+18
14286.0	1.4648405963833344e+18
14287.0	1.464568880981606e+18
14288.0	1.4642916106436605e+18
14289.0	1.4629335805722616e+18
14290.0	1.4637352966160381e+18
14291.0	1.4634594540191741e+18
14292.0	1.4631833882853376e+18
14293.0	1.4629016736628736e+18
14294.0	1.462492235772723e+18
14295.0	1.462335016481587e+18
14296.0	1.461213261620839e+18
14297.0	1.4617803969527803e+18
14298.0	1.4610734889566203e+18
14299.0	1.4612221636116475e+18
14300.0	1.4609576355692541e+18
14301.0	1.4606847977717757e+18
14302.0	1.4604095507660797e+18
14303.0	1.4601039336439803e+18
14304.0	1.4598416453599232e+18
14305.0	1.4595809156792315e+18
14306.0	1.459268602770227e+18
14307.0	1.4590077304831997e+18
14308.0	1.458752532250624e+18
14309.0	1.4584713410772987e+18
14310.0	1.4580586567958525e+18
14311.0	1.4573410399027197e+18
14312.0	1.457554972894822e+18
14313.0	1.4572337328291837e+18
14314.0	1.4570820164648957e+18
14315.0	1.4568227766009853e+18
14316.0	1.456497885813145e+18
14317.0	1.4562234558578685e+18
14318.0	1.4559972872421373e+18
14319.0	1.4557224613445632e+18
14320.0	1.4554463603785725e+18
14321.0	1.4551695329591293e+18
14322.0	1.4548619562582013e+18
14323.0	1.4546005840101376e+18
14324.0	1.454345144185651e+18
14325.0	1.4540632936677373e+18
14326.0	1.4537962859528187e+18
14327.0	1.453515527631667e+18
14328.0	1.4532398427406336e+18
14329.0	1.452971598544896e+18
14330.0	1.4526966166192123e+18
14331.0	1.4524176081616893e+18
14332.0	1.452147278558003e+18
14333.0	1.4518726590201853e+18
14334.0	1.4515979857952765e+18
14335.0	1.451305532076851e+18
14336.0	1.4509182535335936e+18
14337.0	1.4507739879309307e+18
14338.0	1.4504981050687485e+18
14339.0	1.4502164944650237e+18
14340.0	1.4499501779714045e+18
14341.0	1.4496690002198528e+18
14342.0	1.4494017223917565e+18
14343.0	1.4491237776097277e+18
14344.0	1.4488490892853245e+18
14345.0	1.4485812796194813e+18
14346.0	1.4483037005807613e+18
14347.0	1.4479666211454973e+18
14348.0	1.4477581944356864e+18
14349.0	1.4474815666651136e+18
14350.0	1.4471099899183101e+18
14351.0	1.4468263509491707e+18
14352.0	1.4466520893620221e+18
14353.0	1.4463844273356797e+18
14354.0	1.4461007883665403e+18
14355.0	1.4458064488890363e+18
14356.0	1.4455396844437504e+18
14357.0	1.445293727101747e+18
14358.0	1.4450196192690176e+18
14359.0	1.4447354283294715e+18
14360.0	1.4444660214726653e+18
14361.0	1.444197020624486e+18
14362.0	1.4439280633970685e+18
14363.0	1.443654811202355e+18
14364.0	1.4431090785648637e+18
14365.0	1.4430278684508155e+18
14366.0	1.4427767839916032e+18
14367.0	1.4425641864658941e+18
14368.0	1.4422909795696635e+18
14369.0	1.4420188061499392e+18
14370.0	1.4417464616026107e+18
14371.0	1.4414742982492157e+18
14372.0	1.4411951673180157e+18
14373.0	1.4409258158260221e+18
14374.0	1.440655796600832e+18
14375.0	1.4403818951278592e+18
14376.0	1.440112360764211e+18
14377.0	1.4398395095449595e+18
14378.0	1.439565297693491e+18
14379.0	1.4392957868179453e+18
14380.0	1.4390215934214141e+18
14381.0	1.4387423819595776e+18
14382.0	1.4384780284002304e+18
14383.0	1.4382008771805181e+18
14384.0	1.4379190300180475e+18
14385.0	1.4376638418518016e+18
14386.0	1.4373797884854272e+18
14387.0	1.4371205251334141e+18
14388.0	1.4368470934224893e+18
14389.0	1.4365769299132413e+18
14390.0	1.4363040384286715e+18
14391.0	1.4360337457348603e+18
14392.0	1.435487167525683e+18
14393.0	1.434956180383334e+18
14394.0	1.4346506689576957e+18
14395.0	1.4343954455592957e+18
14396.0	1.4341417757310973e+18
14397.0	1.433871139104358e+18
14398.0	1.4335988935426045e+18
14399.0	1.4333285035409408e+18
14400.0	1.4330360515002365e+18
14401.0	1.4327792208445437e+18
14402.0	1.4325144344330235e+18
14403.0	1.4300629107212265e+18
14404.0	1.4257729346469878e+18
14405.0	1.4297891216556014e+18
14406.0	1.431431871148851e+18
14407.0	1.4284030618894344e+18
14408.0	1.4308157480239101e+18
14409.0	1.4305991222886397e+18
14410.0	1.430326353277747e+18
14411.0	1.4300760288264187e+18
14412.0	1.4298049408925693e+18
14413.0	1.4295336851865597e+18
14414.0	1.4292608507445248e+18
14415.0	1.4289917005791232e+18
14416.0	1.428709868516147e+18
14417.0	1.428422030209843e+18
14418.0	1.4281319018135547e+18
14419.0	1.4279102462689275e+18
14420.0	1.427636385061273e+18
14421.0	1.4273713251811325e+18
14422.0	1.427097542826393e+18
14423.0	1.4268182927769597e+18
14424.0	1.41479914053304e+18
14425.0	1.4262782962696187e+18
14426.0	1.4260227306160125e+18
14427.0	1.425751877563187e+18
14428.0	1.425465510618726e+18
14429.0	1.4252070827720701e+18
14430.0	1.4249433801687037e+18
14431.0	1.4241226437951485e+18
14432.0	1.4243963523301373e+18
14433.0	1.4219059239321592e+18
14434.0	1.423848287659622e+18
14435.0	1.4235219573866493e+18
14436.0	1.423328135243366e+18
14437.0	1.423059241769369e+18
14438.0	1.4226942567907325e+18
14439.0	1.422497647951872e+18
14440.0	1.4222513332551677e+18
14441.0	1.421970376962867e+18
14442.0	1.4216969737732093e+18
14443.0	1.4213867680825344e+18
14444.0	1.4211693873725437e+18
14445.0	1.4209075017416701e+18
14446.0	1.417698084074292e+18
14447.0	1.4203322881802235e+18
14448.0	1.4201018296303613e+18
14449.0	1.4198333086105597e+18
14450.0	1.4195603063963648e+18
14451.0	1.4192942415609853e+18
14452.0	1.4190247994720253e+18
14453.0	1.418726141539123e+18
14454.0	1.4184889905577981e+18
14455.0	1.418216097395507e+18
14456.0	1.417941429203763e+18
14457.0	1.4176745909387264e+18
14458.0	1.4174132673445885e+18
14459.0	1.4171447144480763e+18
14460.0	1.416875824329523e+18
14461.0	1.4165578507878397e+18
14462.0	1.4158325029535744e+18
14463.0	1.4160601227984893e+18
14464.0	1.415805765104435e+18
14465.0	1.4155143985496064e+18
14466.0	1.4152739508453373e+18
14467.0	1.4149675653267453e+18
14468.0	1.4147315820396541e+18
14469.0	1.4144081609359357e+18
14470.0	1.414172514870886e+18
14471.0	1.4139227155464187e+18
14472.0	1.4136606319443963e+18
14473.0	1.4133984124469248e+18
14474.0	1.4131325858480125e+18
14475.0	1.412857400918016e+18
14476.0	1.4124580327129088e+18
14477.0	1.412329690365952e+18
14478.0	1.4120623303294973e+18
14479.0	1.4117922825830397e+18
14480.0	1.4115128043634685e+18
14481.0	1.4112643321167867e+18
14482.0	1.4109926804684797e+18
14483.0	1.4107206462996475e+18
14484.0	1.4104496523182077e+18
14485.0	1.4101633289945085e+18
14486.0	1.4096230355304448e+18
14487.0	1.4096550733021181e+18
14488.0	1.4093523552829435e+18
14489.0	1.409076289549107e+18
14490.0	1.4088475791851517e+18
14491.0	1.4085895271481341e+18
14492.0	1.4083232559529981e+18
14493.0	1.4080485944721408e+18
14494.0	1.4077691649064955e+18
14495.0	1.4075251872759803e+18
14496.0	1.407122755551232e+18
14497.0	1.4069914167934973e+18
14498.0	1.4067265263632381e+18
14499.0	1.406460750934835e+18
14500.0	1.4061942809296893e+18
14501.0	1.4058655179603965e+18
14502.0	1.4053607292796928e+18
14503.0	1.405362396934963e+18
14504.0	1.4051231941001213e+18
14505.0	1.4048032710459392e+18
14506.0	1.4044853646131197e+18
14507.0	1.4040793752797181e+18
14508.0	1.404066423268966e+18
14509.0	1.403800629385625e+18
14510.0	1.403531495158579e+18
14511.0	1.4032683302649853e+18
14512.0	1.4029877019672573e+18
14513.0	1.402737236587315e+18
14514.0	1.4024330639835133e+18
14515.0	1.4022047629836285e+18
14516.0	1.399175093891892e+18
14517.0	1.4016679080099837e+18
14518.0	1.4014097284661245e+18
14519.0	1.4011441593974781e+18
14520.0	1.400877842903859e+18
14521.0	1.4006110155440125e+18
14522.0	1.4003433644228605e+18
14523.0	1.399908294302105e+18
14524.0	1.399683160840601e+18
14525.0	1.3995467570413565e+18
14526.0	1.3992847690694656e+18
14527.0	1.398979466520166e+18
14528.0	1.3986178017525757e+18
14529.0	1.3984792697634813e+18
14530.0	1.3982099602145277e+18
14531.0	1.3979590619824123e+18
14532.0	1.397501684036403e+18
14533.0	1.397426717563289e+18
14534.0	1.397167316638105e+18
14535.0	1.396891924509491e+18
14536.0	1.3966341065146365e+18
14537.0	1.396360333387366e+18
14538.0	1.3961080904613885e+18
14539.0	1.3958435297034237e+18
14540.0	1.3955788481495037e+18
14541.0	1.395295085867827e+18
14542.0	1.395049433871155e+18
14543.0	1.3946937803800573e+18
14544.0	1.3945198258159613e+18
14545.0	1.3942468814831613e+18
14546.0	1.3772082714247124e+18
14547.0	1.3782279302152133e+18
14548.0	1.3934484630011901e+18
14549.0	1.3930740525826045e+18
14550.0	1.392926180717363e+18
14551.0	1.392669594170163e+18
14552.0	1.3924023817732093e+18
14553.0	1.3921317854117885e+18
14554.0	1.3918771257278461e+18
14555.0	1.3916122797572093e+18
14556.0	1.3913455715155965e+18
14557.0	1.3910845658497021e+18
14558.0	1.3908200260632573e+18
14559.0	1.3884977255022577e+18
14560.0	1.3902639645327357e+18
14561.0	1.3900208920330237e+18
14562.0	1.3897314624077821e+18
14563.0	1.3894948935958525e+18
14564.0	1.3891888117448701e+18
14565.0	1.3889725567860733e+18
14566.0	1.3887086469840893e+18
14567.0	1.3883604207665147e+18
14568.0	1.3876238741405693e+18
14569.0	1.3872863719194621e+18
14570.0	1.386482839742054e+18
14571.0	1.386755864605491e+18
14572.0	1.3864273641996285e+18
14573.0	1.386175167410995e+18
14574.0	1.3858505568026621e+18
14575.0	1.3856879352479741e+18
14576.0	1.3854240665501693e+18
14577.0	1.385168970658611e+18
14578.0	1.3849058007318525e+18
14579.0	1.3846477268844544e+18
14580.0	1.3843842591621117e+18
14581.0	1.3841072144777213e+18
14582.0	1.3838439044612093e+18
14583.0	1.383586585588531e+18
14584.0	1.3832952257445885e+18
14585.0	1.3830589723443197e+18
14586.0	1.382793098769203e+18
14587.0	1.382530287036006e+18
14588.0	1.382268882072371e+18
14589.0	1.3820132409212925e+18
14590.0	1.3817576115142653e+18
14591.0	1.3814958752006144e+18
14592.0	1.3812388927111165e+18
14593.0	1.3808692268892155e+18
14594.0	1.3807328348340221e+18
14595.0	1.3804718266515456e+18
14596.0	1.3799114575708155e+18
14597.0	1.379608861186457e+18
14598.0	1.3796752519856125e+18
14599.0	1.379453539398451e+18
14600.0	1.3791888821714941e+18
14601.0	1.3789399653285885e+18
14602.0	1.3786544506667005e+18
14603.0	1.3784284573728765e+18
14604.0	1.378103292277555e+18
14605.0	1.3778414620114941e+18
14606.0	1.377582586213171e+18
14607.0	1.3773836168200187e+18
14608.0	1.3771446639656957e+18
14609.0	1.3768804010033147e+18
14610.0	1.3764928540246013e+18
14611.0	1.376367597007667e+18
14612.0	1.376125635998515e+18
14613.0	1.3758709570207744e+18
14614.0	1.3756103313588221e+18
14615.0	1.3753525318189053e+18
14616.0	1.3751033641566205e+18
14617.0	1.3748447618269181e+18
14618.0	1.3745661325344765e+18
14619.0	1.374081447991705e+18
14620.0	1.3734253279838208e+18
14621.0	1.3738241316356093e+18
14622.0	1.3735653565005821e+18
14623.0	1.373312197538611e+18
14624.0	1.372996450333491e+18
14625.0	1.372797364338688e+18
14626.0	1.3725389918568445e+18
14627.0	1.3722780096790523e+18
14628.0	1.3720315154661373e+18
14629.0	1.3717752896290813e+18
14630.0	1.3715110560268285e+18
14631.0	1.3712611652665344e+18
14632.0	1.370070144830669e+18
14633.0	1.370554177578598e+18
14634.0	1.3704817998299133e+18
14635.0	1.369004917443787e+18
14636.0	1.3677889627095035e+18
14637.0	1.369724792550195e+18
14638.0	1.369452267647795e+18
14639.0	1.3691864687312893e+18
14640.0	1.3689501800988672e+18
14641.0	1.3648567533043697e+18
14642.0	1.368434192626483e+18
14643.0	1.3681809254514685e+18
14644.0	1.367912266019635e+18
14645.0	1.3676413827678205e+18
14646.0	1.3673773152600061e+18
14647.0	1.367093042950963e+18
