# Flux units: erg / (cm m2 s)
# Wavelength units: Angstrom
wave	flux
14000.0	2.184031574897459e+18
14001.0	2.1835053357072381e+18
14002.0	2.18299576132567e+18
14003.0	2.182476677618073e+18
14004.0	2.181957726450483e+18
14005.0	2.1814387450839037e+18
14006.0	2.180918513814732e+18
14007.0	2.1803991079845883e+18
14008.0	2.1798619652816893e+18
14009.0	2.1793641215295483e+18
14010.0	2.178842960802611e+18
14011.0	2.1782164207042555e+18
14012.0	2.177809685623603e+18
14013.0	2.17729195919278e+18
14014.0	2.176773041579622e+18
14015.0	2.1762562546728955e+18
14016.0	2.1757393872355325e+18
14017.0	2.1752221657989115e+18
14018.0	2.1747047396802557e+18
14019.0	2.1741881524223995e+18
14020.0	2.1736711876771832e+18
14021.0	2.1731491864117243e+18
14022.0	2.1726111008292861e+18
14023.0	2.1720731226210296e+18
14024.0	2.1715705225281533e+18
14025.0	2.1710658034728955e+18
14026.0	2.1705503318999037e+18
14027.0	2.1700349408575483e+18
14028.0	2.16951929480151e+18
14029.0	2.1690033601773565e+18
14030.0	2.1672770718924805e+18
14031.0	2.167964129086668e+18
14032.0	2.1674575175614461e+18
14033.0	2.1669195997511675e+18
14034.0	2.166425747298713e+18
14035.0	2.1659136445906936e+18
14036.0	2.1653959231930365e+18
14037.0	2.164882600781414e+18
14038.0	2.1643710013898747e+18
14039.0	2.1638473442131963e+18
14040.0	2.163318172365619e+18
14041.0	2.162806021003673e+18
14042.0	2.162291237296537e+18
14043.0	2.1617720898355195e+18
14044.0	2.1612644884545533e+18
14045.0	2.160752699480473e+18
14046.0	2.1602388804632573e+18
14047.0	2.1597210147815421e+18
14048.0	2.1592121366544376e+18
14049.0	2.1587018744070144e+18
14050.0	2.1581894881640443e+18
14051.0	2.1576753923227643e+18
14052.0	2.1571650159902715e+18
14053.0	2.1566528814055421e+18
14054.0	2.1561411947724792e+18
14055.0	2.1556290870312955e+18
14056.0	2.1551178701602816e+18
14057.0	2.1546064486072315e+18
14058.0	2.154095174693683e+18
14059.0	2.1535656706572283e+18
14060.0	2.1530508617842685e+18
14061.0	2.1525387875975168e+18
14062.0	2.1520292199268347e+18
14063.0	2.1515153103126525e+18
14064.0	2.1508473623674877e+18
14065.0	2.1504962873786368e+18
14066.0	2.1499875803791355e+18
14067.0	2.1494429600710648e+18
14068.0	2.1489677856931837e+18
14069.0	2.1484547367501821e+18
14070.0	2.1479477980692477e+18
14071.0	2.147438523999846e+18
14072.0	2.1469297398251517e+18
14073.0	2.1464205899071488e+18
14074.0	2.145911574206873e+18
14075.0	2.145397706535731e+18
14076.0	2.144855134725734e+18
14077.0	2.1440912529817595e+18
14078.0	2.1438546791366656e+18
14079.0	2.14336734798807e+18
14080.0	2.1428606626430973e+18
14081.0	2.142346793294233e+18
14082.0	2.1418187086102528e+18
14083.0	2.141314924045926e+18
14084.0	2.1408075474796544e+18
14085.0	2.1400584514961403e+18
14086.0	2.1397700461199357e+18
14087.0	2.1392856627281917e+18
14088.0	2.1387726741831677e+18
14089.0	2.1382397056516093e+18
14090.0	2.137759801776537e+18
14091.0	2.1372584096432125e+18
14092.0	2.1367520279658493e+18
14093.0	2.136245718430515e+18
14094.0	2.135739533046579e+18
14095.0	2.135233429871001e+18
14096.0	2.1346656620380155e+18
14097.0	2.1341996782190587e+18
14098.0	2.1336877734821883e+18
14099.0	2.1332107871649784e+18
14100.0	2.1327005517611008e+18
14101.0	2.1322006276341755e+18
14102.0	2.131695500892569e+18
14103.0	2.131188325652889e+18
14104.0	2.1306860611043325e+18
14105.0	2.1301806306951163e+18
14106.0	2.129668630328115e+18
14107.0	2.1291487748685821e+18
14108.0	2.128641205364326e+18
14109.0	2.1281416536915963e+18
14110.0	2.127633230227046e+18
14111.0	2.1271256338792443e+18
14112.0	2.126629253100339e+18
14113.0	2.1261061210505216e+18
14114.0	2.125619617018675e+18
14115.0	2.1251173189156861e+18
14116.0	2.1245353240035325e+18
14117.0	2.122194638969242e+18
14118.0	2.1236118506700795e+18
14119.0	2.1230760098791421e+18
14120.0	2.1225743895756795e+18
14121.0	2.1220961147682816e+18
14122.0	2.1215645773332475e+18
14123.0	2.121040754062131e+18
14124.0	2.1205276229107704e+18
14125.0	2.12000415196119e+18
14126.0	2.1195788528910333e+18
14127.0	2.119094118855475e+18
14128.0	2.1185926159925245e+18
14129.0	2.1180893045456893e+18
14130.0	2.1175859494780928e+18
14131.0	2.117086355862323e+18
14132.0	2.1165871397339133e+18
14133.0	2.1159803984281592e+18
14134.0	2.115566511220326e+18
14135.0	2.1150538733191165e+18
14136.0	2.1144248619368443e+18
14137.0	2.1140626519097336e+18
14138.0	2.1135366224347133e+18
14139.0	2.113065811810713e+18
14140.0	2.1125580309135357e+18
14141.0	2.1120601552846845e+18
14142.0	2.111381075656704e+18
14143.0	2.1110575320793088e+18
14144.0	2.1105689476726781e+18
14145.0	2.1100700670885883e+18
14146.0	2.109568609524121e+18
14147.0	2.109070067839795e+18
14148.0	2.1085627382497275e+18
14149.0	2.108058383260057e+18
14150.0	2.1075772143828987e+18
14151.0	2.107055152719462e+18
14152.0	2.106581167846195e+18
14153.0	2.106083262018355e+18
14154.0	2.1055801116327933e+18
14155.0	2.1047499196203008e+18
14156.0	2.104573713553817e+18
14157.0	2.1040924574351357e+18
14158.0	2.103591868930457e+18
14159.0	2.1030988586942464e+18
14160.0	2.102601753139609e+18
14161.0	2.1020925075914747e+18
14162.0	2.1015873573617661e+18
14163.0	2.1011115655823357e+18
14164.0	2.100544913434214e+18
14165.0	2.100029086184243e+18
14166.0	2.0996021479800827e+18
14167.0	2.0991039149965304e+18
14168.0	2.0985973789687803e+18
14169.0	2.0981155457138683e+18
14170.0	2.097611338363699e+18
14171.0	2.0971216164618237e+18
14172.0	2.0966294517972987e+18
14173.0	2.0960966342606843e+18
14174.0	2.0956354571141115e+18
14175.0	2.095144473565593e+18
14176.0	2.0946441820176381e+18
14177.0	2.0941536766197757e+18
14178.0	2.0936597872574461e+18
14179.0	2.0931584773324797e+18
14180.0	2.092672310522675e+18
14181.0	2.092178291975782e+18
14182.0	2.0916842600071163e+18
14183.0	2.0911906340470776e+18
14184.0	2.090691662866022e+18
14185.0	2.0901960303509501e+18
14186.0	2.0893266836717565e+18
14187.0	2.0892043140136955e+18
14188.0	2.0887164527050747e+18
14189.0	2.0882194629132283e+18
14190.0	2.0877280481902587e+18
14191.0	2.087233598468915e+18
14192.0	2.086744087959961e+18
14193.0	2.0861888644513787e+18
14194.0	2.0857573578113021e+18
14195.0	2.085269194512793e+18
14196.0	2.0847772194308093e+18
14197.0	2.0842854104432637e+18
14198.0	2.0837927542063101e+18
14199.0	2.0833008009347072e+18
14200.0	2.0825880628559872e+18
14201.0	2.0823123360219128e+18
14202.0	2.0818076672983035e+18
14203.0	2.0813080350949373e+18
14204.0	2.0808237037125624e+18
14205.0	2.080334612634009e+18
14206.0	2.0798194715721728e+18
14207.0	2.079354027979571e+18
14208.0	2.078863806116659e+18
14209.0	2.0783461618941944e+18
14210.0	2.0778667126816763e+18
14211.0	2.077393408963379e+18
14212.0	2.0769035226447864e+18
14213.0	2.0764069321506816e+18
14214.0	2.0759243321769976e+18
14215.0	2.0754325399666688e+18
14216.0	2.0749458497077243e+18
14217.0	2.0744567150084093e+18
14218.0	2.0739651610345464e+18
14219.0	2.0734788331634683e+18
14220.0	2.0729884703719414e+18
14221.0	2.072493623030579e+18
14222.0	2.0719546482556925e+18
14223.0	2.0715223329538043e+18
14224.0	2.071036419479961e+18
14225.0	2.0699409125736445e+18
14226.0	2.0700597640495101e+18
14227.0	2.0695727281799163e+18
14228.0	2.0677156598185987e+18
14229.0	2.0684313506873329e+18
14230.0	2.0681102599389184e+18
14231.0	2.0675661647577083e+18
14232.0	2.0671359264751616e+18
14233.0	2.0666474427318272e+18
14234.0	2.0661621198159864e+18
14235.0	2.0656749564395517e+18
14236.0	2.0651885480378365e+18
14237.0	2.0647018108026875e+18
14238.0	2.0642155835949048e+18
14239.0	2.0637232041820155e+18
14240.0	2.062976654979891e+18
14241.0	2.0627522932703224e+18
14242.0	2.0622545099161592e+18
14243.0	2.061735609080217e+18
14244.0	2.0612809935028221e+18
14245.0	2.0607923000442877e+18
14246.0	2.060303712282214e+18
14247.0	2.0598250113335296e+18
14248.0	2.059337512412774e+18
14249.0	2.0588547882876925e+18
14250.0	2.0583699703660544e+18
14251.0	2.0578858554097661e+18
14252.0	2.057401332767129e+18
14253.0	2.0569168352903165e+18
14254.0	2.0564322170175488e+18
14255.0	2.055942689731379e+18
14256.0	2.054884547362816e+18
14257.0	2.0549738155737088e+18
14258.0	2.0544970960142333e+18
14259.0	2.0540070637338621e+18
14260.0	2.0535138152611837e+18
14261.0	2.053042313415884e+18
14262.0	2.0525698905014267e+18
14263.0	2.051233102063207e+18
14264.0	2.0514837016608765e+18
14265.0	2.0511133899161592e+18
14266.0	2.050638816162611e+18
14267.0	2.050156185989939e+18
14268.0	2.0496739752476667e+18
14269.0	2.0491912712552443e+18
14270.0	2.04870962422743e+18
14271.0	2.048226249146368e+18
14272.0	2.047744895719833e+18
14273.0	2.047263230237081e+18
14274.0	2.0455431579107333e+18
14275.0	2.046188399571763e+18
14276.0	2.0458102042132475e+18
14277.0	2.0453328471195645e+18
14278.0	2.0448573422305277e+18
14279.0	2.0443763612581883e+18
14280.0	2.0438940364308477e+18
14281.0	2.0434149378621437e+18
14282.0	2.0429344467845117e+18
14283.0	2.0424540060385277e+18
14284.0	2.041973667633561e+18
14285.0	2.0414931581009915e+18
14286.0	2.0410110211784696e+18
14287.0	2.040530421048934e+18
14288.0	2.0400415547850747e+18
14289.0	2.0393910014574582e+18
14290.0	2.0390804753219581e+18
14291.0	2.0385832338718717e+18
14292.0	2.0381041336254461e+18
14293.0	2.037624545162035e+18
14294.0	2.0371167726534656e+18
14295.0	2.0366633633579005e+18
14296.0	2.0360492836978688e+18
14297.0	2.035709615538176e+18
14298.0	2.0350003553763325e+18
14299.0	2.034741597018521e+18
14300.0	2.0342731637260283e+18
14301.0	2.0337957579784187e+18
14302.0	2.0333179764211707e+18
14303.0	2.0328314237353984e+18
14304.0	2.032359794383257e+18
14305.0	2.0318828986630144e+18
14306.0	2.031374762088857e+18
14307.0	2.030913868477235e+18
14308.0	2.030443831282892e+18
14309.0	2.0299576762171387e+18
14310.0	2.0293541007720443e+18
14311.0	2.028732863951667e+18
14312.0	2.0284666229555197e+18
14313.0	2.0280374265380861e+18
14314.0	2.0275752947679227e+18
14315.0	2.0271096800477181e+18
14316.0	2.02662742065152e+18
14317.0	2.0261195575459837e+18
14318.0	2.0256870727942144e+18
14319.0	2.0252118313074683e+18
14320.0	2.0247362777645056e+18
14321.0	2.0242609775575035e+18
14322.0	2.0237765404786683e+18
14323.0	2.0233075451494397e+18
14324.0	2.0228324999561216e+18
14325.0	2.0223580855861243e+18
14326.0	2.0218854227574776e+18
14327.0	2.0214090941071352e+18
14328.0	2.020934708258406e+18
14329.0	2.0204613944737787e+18
14330.0	2.0199869566156792e+18
14331.0	2.0195058263261181e+18
14332.0	2.019038443287347e+18
14333.0	2.0185643778834427e+18
14334.0	2.0180904349532155e+18
14335.0	2.0176125527326717e+18
14336.0	2.0170731132289021e+18
14337.0	2.0166691900096507e+18
14338.0	2.0161954551169021e+18
14339.0	2.015716604850995e+18
14340.0	2.015249090949939e+18
14341.0	2.0147703044374528e+18
14342.0	2.0143034817576955e+18
14343.0	2.0138270876762112e+18
14344.0	2.0133557015937021e+18
14345.0	2.0128853120778237e+18
14346.0	2.012399556309811e+18
14347.0	2.011889854421401e+18
14348.0	2.011447690893721e+18
14349.0	2.0109770161651712e+18
14350.0	2.0104538706935803e+18
14351.0	2.0099776812941307e+18
14352.0	2.0095599135162365e+18
14353.0	2.0090898981322747e+18
14354.0	2.008612527616819e+18
14355.0	2.0081290602610688e+18
14356.0	2.007663888459366e+18
14357.0	2.0072047514222587e+18
14358.0	2.0067337143058427e+18
14359.0	2.0062593922105336e+18
14360.0	2.005787445769011e+18
14361.0	2.0053200744742907e+18
14362.0	2.0048508207759355e+18
14363.0	2.0043802752319483e+18
14364.0	2.0037240679825403e+18
14365.0	2.0034168452808696e+18
14366.0	2.0029421691863037e+18
14367.0	2.0025001482649597e+18
14368.0	2.0020302587101181e+18
14369.0	2.0015606241689592e+18
14370.0	2.001091170821734e+18
14371.0	2.0006219624218621e+18
14372.0	2.000150542784921e+18
14373.0	1.99968270843904e+18
14374.0	1.999214256691609e+18
14375.0	1.9987452395519997e+18
14376.0	1.9982763566301181e+18
14377.0	1.9978074569310205e+18
14378.0	1.9973383944929277e+18
14379.0	1.996870378953113e+18
14380.0	1.9964018869403643e+18
14381.0	1.995931002496614e+18
14382.0	1.9954650874642424e+18
14383.0	1.9949916226846717e+18
14384.0	1.9945247781945336e+18
14385.0	1.9940616297250808e+18
14386.0	1.9935906832056317e+18
14387.0	1.9931262563123197e+18
14388.0	1.9926583246585853e+18
14389.0	1.99219137782743e+18
14390.0	1.991723766618521e+18
14391.0	1.9912543619252221e+18
14392.0	1.9907879569981437e+18
14393.0	1.9903231459065853e+18
14394.0	1.9898481460117501e+18
14395.0	1.9893423616032763e+18
14396.0	1.98892074345431e+18
14397.0	1.9884567762567165e+18
14398.0	1.9879887556837373e+18
14399.0	1.987522013534617e+18
14400.0	1.9870298606141437e+18
14401.0	1.9865900123422715e+18
14402.0	1.9861259931353083e+18
14403.0	1.9844189265068006e+18
14404.0	1.9818823557316595e+18
14405.0	1.9844759958847473e+18
14406.0	1.9842639285190656e+18
14407.0	1.9819176533164037e+18
14408.0	1.983293500791193e+18
14409.0	1.9828649318416384e+18
14410.0	1.9823807162220544e+18
14411.0	1.9819179938938875e+18
14412.0	1.9814549595095037e+18
14413.0	1.9809909772124155e+18
14414.0	1.9805258960076797e+18
14415.0	1.980061698962227e+18
14416.0	1.9795873651228664e+18
14417.0	1.9790922678009853e+18
14418.0	1.9786357245214715e+18
14419.0	1.978204803406233e+18
14420.0	1.977740319470387e+18
14421.0	1.977277300185497e+18
14422.0	1.9768133833195517e+18
14423.0	1.9763434467885053e+18
14424.0	1.9682358001139658e+18
14425.0	1.9754208911687677e+18
14426.0	1.9749601653293056e+18
14427.0	1.9744973591150587e+18
14428.0	1.97402832184279e+18
14429.0	1.9735710219108347e+18
14430.0	1.9731087609561083e+18
14431.0	1.9723645622419456e+18
14432.0	1.9721771255070715e+18
14433.0	1.9703270364676088e+18
14434.0	1.9712553768714235e+18
14435.0	1.970752233196748e+18
14436.0	1.970326761321267e+18
14437.0	1.969864087647027e+18
14438.0	1.9693377461157883e+18
14439.0	1.9689297493884925e+18
14440.0	1.9684785211310072e+18
14441.0	1.9680161058258944e+18
14442.0	1.9675536452222973e+18
14443.0	1.9670849502052347e+18
14444.0	1.966632005638553e+18
14445.0	1.9661715750780925e+18
14446.0	1.9642150111150085e+18
14447.0	1.965246784733183e+18
14448.0	1.964788801968537e+18
14449.0	1.9643280375414781e+18
14450.0	1.9638659863019515e+18
14451.0	1.9634064902324221e+18
14452.0	1.9629450513612792e+18
14453.0	1.962457039057715e+18
14454.0	1.9620250861436925e+18
14455.0	1.9615638435659768e+18
14456.0	1.9610961031725048e+18
14457.0	1.9606334563418107e+18
14458.0	1.9601643452497917e+18
14459.0	1.9597163801608187e+18
14460.0	1.9592537165529083e+18
14461.0	1.958746497692467e+18
14462.0	1.9580760180654077e+18
14463.0	1.9578596607655933e+18
14464.0	1.957420208436019e+18
14465.0	1.9569618381176827e+18
14466.0	1.9565082627276797e+18
14467.0	1.9560283890515965e+18
14468.0	1.9555898074595325e+18
14469.0	1.9551090882117632e+18
14470.0	1.9546685185196027e+18
14471.0	1.9542128610770941e+18
14472.0	1.9537557490499584e+18
14473.0	1.9532996587552768e+18
14474.0	1.952841790075699e+18
14475.0	1.952381976916787e+18
14476.0	1.951834066596659e+18
14477.0	1.9514665197371387e+18
14478.0	1.951009498306969e+18
14479.0	1.9505493898690555e+18
14480.0	1.9500904357036032e+18
14481.0	1.9496368938680315e+18
14482.0	1.949178703065907e+18
14483.0	1.948719670047539e+18
14484.0	1.9482639052308475e+18
14485.0	1.9477990320635901e+18
14486.0	1.9472906052435963e+18
14487.0	1.9468906397695992e+18
14488.0	1.946337817080627e+18
14489.0	1.9459179051745272e+18
14490.0	1.9454848567083005e+18
14491.0	1.945034247530086e+18
14492.0	1.9445759996854272e+18
14493.0	1.944114693354291e+18
14494.0	1.943657681990451e+18
14495.0	1.9432081868193784e+18
14496.0	1.9427245298810877e+18
14497.0	1.9422957830930432e+18
14498.0	1.941839367320371e+18
14499.0	1.9413837266550781e+18
14500.0	1.9409276481044477e+18
14501.0	1.9404279588585472e+18
14502.0	1.939898469921587e+18
14503.0	1.939539997858201e+18
14504.0	1.939103459731046e+18
14505.0	1.9386081627602936e+18
14506.0	1.9380992661782525e+18
14507.0	1.9376886807265275e+18
14508.0	1.937282700620595e+18
14509.0	1.936827568304947e+18
14510.0	1.936372434311577e+18
14511.0	1.9359173120622587e+18
14512.0	1.935458866246451e+18
14513.0	1.935007290700595e+18
14514.0	1.9345404294332416e+18
14515.0	1.9340968297758717e+18
14516.0	1.9332243222691837e+18
14517.0	1.9331880985821184e+18
14518.0	1.9327335215923197e+18
14519.0	1.9322790687539197e+18
14520.0	1.9318246125600763e+18
14521.0	1.9313696564051963e+18
14522.0	1.9309102576435197e+18
14523.0	1.9303272175108093e+18
14524.0	1.9299045390417912e+18
14525.0	1.9295522477047803e+18
14526.0	1.9290994004459515e+18
14527.0	1.9286390923591675e+18
14528.0	1.9281452180963325e+18
14529.0	1.927735548680601e+18
14530.0	1.927280550582681e+18
14531.0	1.9268298122199037e+18
14532.0	1.92623280169943e+18
14533.0	1.9259226681507837e+18
14534.0	1.9254694316605437e+18
14535.0	1.9250133967306747e+18
14536.0	1.9245624503304187e+18
14537.0	1.924106519419289e+18
14538.0	1.9236556552273917e+18
14539.0	1.923202692205772e+18
14540.0	1.92274950604718e+18
14541.0	1.9222918235947005e+18
14542.0	1.9218433082130432e+18
14543.0	1.9213267897417725e+18
14544.0	1.9209371959427064e+18
14545.0	1.9204824696356861e+18
14546.0	1.9119370600972232e+18
14547.0	1.9124153885917115e+18
14548.0	1.919123394343731e+18
14549.0	1.918649156134502e+18
14550.0	1.9182195604193275e+18
14551.0	1.9177684110147581e+18
14552.0	1.9173149010558973e+18
14553.0	1.9168612954669053e+18
14554.0	1.9164111107522555e+18
14555.0	1.9159585352843261e+18
14556.0	1.9155038576312315e+18
14557.0	1.9150540067831803e+18
14558.0	1.9146007518380032e+18
14559.0	1.9137592335269875e+18
14560.0	1.9136202057711608e+18
14561.0	1.9132434264096765e+18
14562.0	1.912781126867353e+18
14563.0	1.9123404984549373e+18
14564.0	1.9118567156875261e+18
14565.0	1.9114376795521021e+18
14566.0	1.9109856812204027e+18
14567.0	1.9105318675939325e+18
14568.0	1.9100038802178045e+18
14569.0	1.9096270236811261e+18
14570.0	1.9090397808558077e+18
14571.0	1.9087248658006008e+18
14572.0	1.908230459700019e+18
14573.0	1.907803086965964e+18
14574.0	1.9072840955330555e+18
14575.0	1.9069077674786816e+18
14576.0	1.9064568227561472e+18
14577.0	1.906013793524121e+18
14578.0	1.9055541800140797e+18
14579.0	1.905094737631641e+18
14580.0	1.904638380579225e+18
14581.0	1.904175373038387e+18
14582.0	1.9037252386553853e+18
14583.0	1.9032776174993405e+18
14584.0	1.9028145126506496e+18
14585.0	1.9023742952800253e+18
14586.0	1.9019219144278013e+18
14587.0	1.9014688893304827e+18
14588.0	1.9010200635703293e+18
14589.0	1.900584468322713e+18
14590.0	1.9001504316784637e+18
14591.0	1.8997116823142392e+18
14592.0	1.899280729322291e+18
14593.0	1.898822600595865e+18
14594.0	1.8984130989522944e+18
14595.0	1.8979773644537853e+18
14596.0	1.897401026818867e+18
14597.0	1.8969440926302203e+18
14598.0	1.896648119051878e+18
14599.0	1.8962236454207488e+18
14600.0	1.89578316129239e+18
14601.0	1.895351518756864e+18
14602.0	1.8949021460594688e+18
14603.0	1.8944787512033277e+18
14604.0	1.8940236037881853e+18
14605.0	1.8935715316367355e+18
14606.0	1.8931495326449661e+18
14607.0	1.892743279070412e+18
14608.0	1.892307153662771e+18
14609.0	1.8918589771808763e+18
14610.0	1.8913659451342845e+18
14611.0	1.8909898603495421e+18
14612.0	1.8905668379475968e+18
14613.0	1.8901334505816061e+18
14614.0	1.889697914054246e+18
14615.0	1.889252373272985e+18
14616.0	1.8888278375661565e+18
14617.0	1.888391992338022e+18
14618.0	1.88791943856128e+18
14619.0	1.887434583729766e+18
14620.0	1.8866564044423165e+18
14621.0	1.8866476719013888e+18
14622.0	1.886210732798771e+18
14623.0	1.885774944613171e+18
14624.0	1.8853263151464443e+18
14625.0	1.8849012224360443e+18
14626.0	1.8844626844647421e+18
14627.0	1.8840225778237437e+18
14628.0	1.8835912490221565e+18
14629.0	1.883154019673702e+18
14630.0	1.8827132184559613e+18
14631.0	1.8822784822018045e+18
14632.0	1.8812287838060547e+18
14633.0	1.8813179362541563e+18
14634.0	1.8809601285685243e+18
14635.0	1.8802174515478502e+18
14636.0	1.878980771079782e+18
14637.0	1.8796524150456317e+18
14638.0	1.879203265485209e+18
14639.0	1.8787661804208125e+18
14640.0	1.8783354287554555e+18
14641.0	1.8755559641579497e+18
14642.0	1.8774570542563325e+18
14643.0	1.877017328458137e+18
14644.0	1.8765732640718843e+18
14645.0	1.8761330081136635e+18
14646.0	1.8756552097791992e+18
14647.0	1.8752149789868027e+18
14648.0	1.8748120791777275e+18
