# Flux units: erg / (cm m2 s)
# Wavelength units: Angstrom
wave	flux
14000.0	1.5257161877684221e+18
14001.0	1.5254350016282621e+18
14002.0	1.5252245733965827e+18
14003.0	1.524978631154073e+18
14004.0	1.5247324775186432e+18
14005.0	1.524486355759923e+18
14006.0	1.5242389069234173e+18
14007.0	1.5239935720161277e+18
14008.0	1.5237333959835643e+18
14009.0	1.523502194203033e+18
14010.0	1.5232564650311677e+18
14011.0	1.5228969108373501e+18
14012.0	1.5227648422707197e+18
14013.0	1.522519359723929e+18
14014.0	1.5222737278599163e+18
14015.0	1.5220278091055096e+18
14016.0	1.5217826453258237e+18
14017.0	1.5215371896225792e+18
14018.0	1.5212917758623741e+18
14019.0	1.5210464141115387e+18
14020.0	1.5208009802186747e+18
14021.0	1.5205556335673341e+18
14022.0	1.5203104395886592e+18
14023.0	1.5200652288327675e+18
14024.0	1.519818922524672e+18
14025.0	1.5195752972156925e+18
14026.0	1.5193300562608125e+18
14027.0	1.519085404186214e+18
14028.0	1.5188405189083136e+18
14029.0	1.5185956353081341e+18
14030.0	1.5182995241566205e+18
14031.0	1.5181052859383803e+18
14032.0	1.5178614542696443e+18
14033.0	1.5176108261507067e+18
14034.0	1.5173722491060221e+18
14035.0	1.5171278117797888e+18
14036.0	1.5168833643872256e+18
14037.0	1.5166389673263104e+18
14038.0	1.5163946054975488e+18
14039.0	1.5161503124553725e+18
14040.0	1.515906066389401e+18
14041.0	1.5156618622664704e+18
14042.0	1.5154159502229501e+18
14043.0	1.5151666139496443e+18
14044.0	1.514927182944665e+18
14045.0	1.5146856178778107e+18
14046.0	1.5144416805126144e+18
14047.0	1.5141976290623485e+18
14048.0	1.5139539114786813e+18
14049.0	1.5137102106722304e+18
14050.0	1.5134664796667901e+18
14051.0	1.5132214433939453e+18
14052.0	1.5129791770394627e+18
14053.0	1.5127356490383357e+18
14054.0	1.5124921294258168e+18
14055.0	1.5122486785998843e+18
14056.0	1.512005301593702e+18
14057.0	1.51176188264448e+18
14058.0	1.51151861301248e+18
14059.0	1.5112753433804795e+18
14060.0	1.5110321626677243e+18
14061.0	1.5107877890949115e+18
14062.0	1.5105459253936125e+18
14063.0	1.5103005300883456e+18
14064.0	1.5100480615088125e+18
14065.0	1.5098154521198584e+18
14066.0	1.5095741001236477e+18
14067.0	1.5093312650215421e+18
14068.0	1.5090884919951357e+18
14069.0	1.5088455746846715e+18
14070.0	1.5086030650605563e+18
14071.0	1.5083599430680576e+18
14072.0	1.5081178948173821e+18
14073.0	1.5078753818378235e+18
14074.0	1.507632924223078e+18
14075.0	1.5073904632528893e+18
14076.0	1.5071481348227067e+18
14077.0	1.5068947485294587e+18
14078.0	1.506662790096486e+18
14079.0	1.5064204499222525e+18
14080.0	1.5061792321437693e+18
14081.0	1.5059371268505597e+18
14082.0	1.5056949024391165e+18
14083.0	1.505452839088947e+18
14084.0	1.5052110626291707e+18
14085.0	1.5049294822244347e+18
14086.0	1.5047263806029821e+18
14087.0	1.5044856007098365e+18
14088.0	1.5042437487525885e+18
14089.0	1.5040022004629501e+18
14090.0	1.5037604089036797e+18
14091.0	1.5035189897986043e+18
14092.0	1.503277470030233e+18
14093.0	1.5030359905271805e+18
14094.0	1.5027945529671677e+18
14095.0	1.502553172449689e+18
14096.0	1.5023098239647741e+18
14097.0	1.502070450002329e+18
14098.0	1.5018284101402621e+18
14099.0	1.5015881889284096e+18
14100.0	1.501344890775142e+18
14101.0	1.5011060218068987e+18
14102.0	1.500864971800576e+18
14103.0	1.5006210763784187e+18
14104.0	1.500383128479334e+18
14105.0	1.5001422529560573e+18
14106.0	1.4999014428639232e+18
14107.0	1.499660636127232e+18
14108.0	1.4994199938072568e+18
14109.0	1.4991785763799035e+18
14110.0	1.4989384575090685e+18
14111.0	1.4986972867067904e+18
14112.0	1.4984573624516605e+18
14113.0	1.4982171898937341e+18
14114.0	1.4979768076206077e+18
14115.0	1.4977361619451901e+18
14116.0	1.4974950028869624e+18
14117.0	1.4971645588406267e+18
14118.0	1.497015543608115e+18
14119.0	1.4967743644172288e+18
14120.0	1.4965343965413373e+18
14121.0	1.4962951500857341e+18
14122.0	1.4960533635596285e+18
14123.0	1.4958147596713984e+18
14124.0	1.4955745166491648e+18
14125.0	1.4952614621872123e+18
14126.0	1.4950958291222523e+18
14127.0	1.4948562353782781e+18
14128.0	1.4946163329335293e+18
14129.0	1.494375183941632e+18
14130.0	1.494135169089536e+18
14131.0	1.4938978016821248e+18
14132.0	1.4936581190189053e+18
14133.0	1.4933318373998587e+18
14134.0	1.4931792939188221e+18
14135.0	1.4929381986140157e+18
14136.0	1.4927000292556797e+18
14137.0	1.4924615310639104e+18
14138.0	1.492221588353843e+18
14139.0	1.4919832965218304e+18
14140.0	1.4917439141707773e+18
14141.0	1.4915047968997376e+18
14142.0	1.4912601381142523e+18
14143.0	1.491027075740467e+18
14144.0	1.4907885070843901e+18
14145.0	1.4905496716705792e+18
14146.0	1.490310629897011e+18
14147.0	1.4900720159424507e+18
14148.0	1.4898333919215619e+18
14149.0	1.4895948937297915e+18
14150.0	1.4893563166851067e+18
14151.0	1.4891173738971136e+18
14152.0	1.4888793253347323e+18
14153.0	1.4886408757968893e+18
14154.0	1.4883988745224192e+18
14155.0	1.4881588227604475e+18
14156.0	1.4879252755251195e+18
14157.0	1.4876876732366845e+18
14158.0	1.4874488680218621e+18
14159.0	1.487211368074444e+18
14160.0	1.486972364888473e+18
14161.0	1.4867256995479547e+18
14162.0	1.4864805491900413e+18
14163.0	1.4862590060527616e+18
14164.0	1.4860189895229435e+18
14165.0	1.4857787515338747e+18
14166.0	1.4855457931788288e+18
14167.0	1.485308184179507e+18
14168.0	1.485070281578905e+18
14169.0	1.4848329007497213e+18
14170.0	1.4845947884339197e+18
14171.0	1.4843572431880192e+18
14172.0	1.4841203103105027e+18
14173.0	1.4838785237843965e+18
14174.0	1.4836448507199485e+18
14175.0	1.4834081929887741e+18
14176.0	1.4831709195337725e+18
14177.0	1.4829336964104192e+18
14178.0	1.4826964632207357e+18
14179.0	1.482458513643929e+18
14180.0	1.482222317286195e+18
14181.0	1.4819852854231037e+18
14182.0	1.4817481579298813e+18
14183.0	1.481511381080473e+18
14184.0	1.4812736881950715e+18
14185.0	1.4810376193441787e+18
14186.0	1.480782806987571e+18
14187.0	1.480560213596569e+18
14188.0	1.4803272585969656e+18
14189.0	1.4800906646192125e+18
14190.0	1.4798540790300672e+18
14191.0	1.479617528673075e+18
14192.0	1.4793799129628667e+18
14193.0	1.4791422720868355e+18
14194.0	1.478908137648947e+18
14195.0	1.4786720704757757e+18
14196.0	1.4784357348671488e+18
14197.0	1.4781994948886525e+18
14198.0	1.4779623959166973e+18
14199.0	1.4777268790362107e+18
14200.0	1.4774808243863547e+18
14201.0	1.4772546171830267e+18
14202.0	1.4770190667481083e+18
14203.0	1.4767821741359104e+18
14204.0	1.4765467478523904e+18
14205.0	1.4763108669063165e+18
14206.0	1.4760562307104768e+18
14207.0	1.4758397006053373e+18
14208.0	1.475604074672947e+18
14209.0	1.4753474285666304e+18
14210.0	1.4751179833606141e+18
14211.0	1.474897144866406e+18
14212.0	1.4746616514740221e+18
14213.0	1.4744263157874685e+18
14214.0	1.4741907586416637e+18
14215.0	1.4739532888932347e+18
14216.0	1.4737203020169213e+18
14217.0	1.4734850367946747e+18
14218.0	1.473249811837747e+18
14219.0	1.473014637212467e+18
14220.0	1.4727795565395965e+18
14221.0	1.4725444171464701e+18
14222.0	1.4723093800943613e+18
14223.0	1.4720744655159293e+18
14224.0	1.4718394905395197e+18
14225.0	1.4715709091217405e+18
14226.0	1.4713696580272125e+18
14227.0	1.4711350152396797e+18
14228.0	1.470798031434547e+18
14229.0	1.4706482360614907e+18
14230.0	1.4704310097018875e+18
14231.0	1.470196450800435e+18
14232.0	1.4699619254534141e+18
14233.0	1.4697274303053821e+18
14234.0	1.4694930039439357e+18
14235.0	1.4692581631852541e+18
14236.0	1.4690242502066176e+18
14237.0	1.4687897164709885e+18
14238.0	1.4685555853885435e+18
14239.0	1.468320400696934e+18
14240.0	1.4677811423870973e+18
14241.0	1.4678526569480192e+18
14242.0	1.4676189889167352e+18
14243.0	1.4673601902936064e+18
14244.0	1.467140509427302e+18
14245.0	1.466903900350054e+18
14246.0	1.4666691602546685e+18
14247.0	1.4664372236320768e+18
14248.0	1.4662000491626493e+18
14249.0	1.4659692768788475e+18
14250.0	1.4657355182505981e+18
14251.0	1.465502239450726e+18
14252.0	1.4652442712997885e+18
14253.0	1.4649831473545216e+18
14254.0	1.4647493098733565e+18
14255.0	1.4645100499959803e+18
14256.0	1.4642499863707648e+18
14257.0	1.4640479836569597e+18
14258.0	1.463816030257152e+18
14259.0	1.4635827514572797e+18
14260.0	1.4633472681312253e+18
14261.0	1.4631169991639037e+18
14262.0	1.4628968468578301e+18
14263.0	1.462612595520307e+18
14264.0	1.4624179982696445e+18
14265.0	1.4621949669933053e+18
14266.0	1.4619619801169915e+18
14267.0	1.461729040216883e+18
14268.0	1.461496108705382e+18
14269.0	1.4612627627966464e+18
14270.0	1.4610303715115003e+18
14271.0	1.4607975121420285e+18
14272.0	1.4605647970566141e+18
14273.0	1.46033174642688e+18
14274.0	1.460026562156953e+18
14275.0	1.4598598637387776e+18
14276.0	1.4596338796724221e+18
14277.0	1.4594010974781437e+18
14278.0	1.45916925313024e+18
14279.0	1.4589366856843264e+18
14280.0	1.4587032760221693e+18
14281.0	1.4584721329618941e+18
14282.0	1.4582292122959872e+18
14283.0	1.457995606340403e+18
14284.0	1.4577633559838715e+18
14285.0	1.4575311408594941e+18
14286.0	1.4572988603039741e+18
14287.0	1.457066856572518e+18
14288.0	1.4568345458180093e+18
14289.0	1.456406763719884e+18
14290.0	1.4563705081561085e+18
14291.0	1.4561387107844093e+18
14292.0	1.455907010720563e+18
14293.0	1.4556747586863104e+18
14294.0	1.4554209126973437e+18
14295.0	1.4552114072125437e+18
14296.0	1.454822268076032e+18
14297.0	1.454747651407872e+18
14298.0	1.4544864855195645e+18
14299.0	1.4542845968908285e+18
14300.0	1.4540536719343613e+18
14301.0	1.4538221950074875e+18
14302.0	1.4535902315413501e+18
14303.0	1.4533540234395645e+18
14304.0	1.4531255362125821e+18
14305.0	1.4528848569827325e+18
14306.0	1.452652146930483e+18
14307.0	1.4524213561917437e+18
14308.0	1.4521908741537787e+18
14309.0	1.4519594190372864e+18
14310.0	1.4517228753911803e+18
14311.0	1.4514863787212795e+18
14312.0	1.4512614935625725e+18
14313.0	1.451001260487475e+18
14314.0	1.4508042808721403e+18
14315.0	1.4505736948154365e+18
14316.0	1.4503344752033787e+18
14317.0	1.4501111184490493e+18
14318.0	1.4498814433951741e+18
14319.0	1.4496508254617597e+18
14320.0	1.449420058211123e+18
14321.0	1.449189522486067e+18
14322.0	1.448952460423987e+18
14323.0	1.4487257314492413e+18
14324.0	1.4484987155841021e+18
14325.0	1.4482682754891776e+18
14326.0	1.4480378773372925e+18
14327.0	1.4478075093843965e+18
14328.0	1.4475760475570173e+18
14329.0	1.4473469295067136e+18
14330.0	1.4471085437222907e+18
14331.0	1.4468746005446653e+18
14332.0	1.4466444506955773e+18
14333.0	1.446414314268262e+18
14334.0	1.446184203006771e+18
14335.0	1.4459517530013693e+18
14336.0	1.4457208414666747e+18
14337.0	1.4454940655157245e+18
14338.0	1.4452605535125501e+18
14339.0	1.4449673532080125e+18
14340.0	1.4447378224381947e+18
14341.0	1.444507806806835e+18
14342.0	1.4442782173167613e+18
14343.0	1.4440483409362941e+18
14344.0	1.4438187027922941e+18
14345.0	1.4435891468566523e+18
14346.0	1.4433590523723773e+18
14347.0	1.4431273388867581e+18
14348.0	1.4429003699978237e+18
14349.0	1.4426709482799104e+18
14350.0	1.4424389529370621e+18
14351.0	1.4422094305558525e+18
14352.0	1.441981899630182e+18
14353.0	1.4417529678069757e+18
14354.0	1.4415236635295741e+18
14355.0	1.441294013641523e+18
14356.0	1.4410650868514816e+18
14357.0	1.4408366583447547e+18
14358.0	1.4405973548466176e+18
14359.0	1.4403666261835776e+18
14360.0	1.4401373789487104e+18
14361.0	1.4399085477888e+18
14362.0	1.439679659586355e+18
14363.0	1.4394506606542848e+18
14364.0	1.439213831795507e+18
14365.0	1.4389914900627453e+18
14366.0	1.438762533073715e+18
14367.0	1.438535391379456e+18
14368.0	1.4383065786744832e+18
14369.0	1.4380779790401536e+18
14370.0	1.4378493341073403e+18
14371.0	1.4376207428616187e+18
14372.0	1.437392143227289e+18
14373.0	1.437163600635494e+18
14374.0	1.4369349842239488e+18
14375.0	1.4367059366379515e+18
14376.0	1.4364783201484797e+18
14377.0	1.4362498446655485e+18
14378.0	1.4360211678560253e+18
14379.0	1.4357933533954045e+18
14380.0	1.4355650775613437e+18
14381.0	1.4353364242399232e+18
14382.0	1.4351084990496765e+18
14383.0	1.4348802014052347e+18
14384.0	1.4346498972057597e+18
14385.0	1.434424528863232e+18
14386.0	1.434196529853235e+18
14387.0	1.4339685073551357e+18
14388.0	1.4337403086962685e+18
14389.0	1.433512702273126e+18
14390.0	1.4332757895282685e+18
14391.0	1.4330454349971453e+18
14392.0	1.4328174494089213e+18
14393.0	1.4325898815733757e+18
14394.0	1.432356287361843e+18
14395.0	1.4321328416882685e+18
14396.0	1.4319068324560893e+18
14397.0	1.4316792277106685e+18
14398.0	1.4314516313538557e+18
14399.0	1.4312241239162877e+18
14400.0	1.4309930144104445e+18
14401.0	1.4307680889864187e+18
14402.0	1.4305414086655997e+18
14403.0	1.4302294916988925e+18
14404.0	1.4294513308663803e+18
14405.0	1.4295337237741558e+18
14406.0	1.4296319006867453e+18
14407.0	1.4292811511758845e+18
14408.0	1.429177120692633e+18
14409.0	1.4289471285493757e+18
14410.0	1.4287231694929915e+18
14411.0	1.428496650233446e+18
14412.0	1.4282691159523325e+18
14413.0	1.4280428936495101e+18
14414.0	1.4278155506286592e+18
14415.0	1.4275888250093565e+18
14416.0	1.427362191664742e+18
14417.0	1.4271351623778301e+18
14418.0	1.426907156656947e+18
14419.0	1.4266814578032637e+18
14420.0	1.4264540409626621e+18
14421.0	1.4262281860808701e+18
14422.0	1.426001480594227e+18
14423.0	1.4257731745611776e+18
14424.0	1.425042786851225e+18
14425.0	1.4253204027998208e+18
14426.0	1.425095401878323e+18
14427.0	1.4248578230779901e+18
14428.0	1.4246275843096576e+18
14429.0	1.4244038920110077e+18
14430.0	1.4241782501998592e+18
14431.0	1.4239371330846715e+18
14432.0	1.4237250875293693e+18
14433.0	1.4234044984197117e+18
14434.0	1.4232705591934973e+18
14435.0	1.423043422532403e+18
14436.0	1.4228206563360765e+18
14437.0	1.4225945296633853e+18
14438.0	1.4223650039267325e+18
14439.0	1.4221416673050621e+18
14440.0	1.421916164744806e+18
14441.0	1.4216880097067008e+18
14442.0	1.4214604838141947e+18
14443.0	1.4212272519905277e+18
14444.0	1.4210115188031485e+18
14445.0	1.4207864272846845e+18
14446.0	1.420325590715597e+18
14447.0	1.4203330481881085e+18
14448.0	1.4201092619370493e+18
14449.0	1.419883591604633e+18
14450.0	1.419657872618291e+18
14451.0	1.4194322291294203e+18
14452.0	1.4192065705410557e+18
14453.0	1.4189796603723773e+18
14454.0	1.418755463079526e+18
14455.0	1.4185289438199803e+18
14456.0	1.418304219722547e+18
14457.0	1.4180786399870973e+18
14458.0	1.4178534847152125e+18
14459.0	1.417627821093683e+18
14460.0	1.417402452751155e+18
14461.0	1.4171735427383293e+18
14462.0	1.4169418544185341e+18
14463.0	1.4167258527956987e+18
14464.0	1.4165016789909501e+18
14465.0	1.4162713982795773e+18
14466.0	1.4160515899064317e+18
14467.0	1.415823968383795e+18
14468.0	1.4155903271960573e+18
14469.0	1.4153603233087485e+18
14470.0	1.415134047318835e+18
14471.0	1.4149126182666237e+18
14472.0	1.4146897765728253e+18
14473.0	1.4144648293384187e+18
14474.0	1.4142399357911037e+18
14475.0	1.4140148979597307e+18
14476.0	1.4137840954769403e+18
14477.0	1.413565209850675e+18
14478.0	1.4133404823977981e+18
14479.0	1.4131156458930173e+18
14480.0	1.4128890511359997e+18
14481.0	1.4126662463520765e+18
14482.0	1.412440924985753e+18
14483.0	1.412215013061427e+18
14484.0	1.4119905137786877e+18
14485.0	1.411728406688563e+18
14486.0	1.4114169393512445e+18
14487.0	1.4112461053493245e+18
14488.0	1.4110216681422845e+18
14489.0	1.410795828359987e+18
14490.0	1.4105721662603264e+18
14491.0	1.4103479672897536e+18
14492.0	1.4101238136176637e+18
14493.0	1.4098993596334077e+18
14494.0	1.4096715602722813e+18
14495.0	1.409450597626675e+18
14496.0	1.409202437436211e+18
14497.0	1.409001889307033e+18
14498.0	1.4087778832744448e+18
14499.0	1.4085536809484285e+18
14500.0	1.4083294266130432e+18
14501.0	1.4081029107089403e+18
14502.0	1.407836931437363e+18
14503.0	1.4076545748434941e+18
14504.0	1.4074319059550208e+18
14505.0	1.4072065669726208e+18
14506.0	1.4069798279315456e+18
14507.0	1.4067164633890813e+18
14508.0	1.4065368037326845e+18
14509.0	1.406312926884659e+18
14510.0	1.406089005577011e+18
14511.0	1.4058650733641728e+18
14512.0	1.4056385255833597e+18
14513.0	1.405417283597107e+18
14514.0	1.4051878014812157e+18
14515.0	1.4049691582857213e+18
14516.0	1.4042264535826435e+18
14517.0	1.4045164276285437e+18
14518.0	1.4042868842758144e+18
14519.0	1.4040632565694461e+18
14520.0	1.4038395609153533e+18
14521.0	1.4036158644223997e+18
14522.0	1.4033921427636221e+18
14523.0	1.4031623141982205e+18
14524.0	1.4029390933393405e+18
14525.0	1.4027202471395325e+18
14526.0	1.4024976596205565e+18
14527.0	1.4022701060456445e+18
14528.0	1.4020233299755005e+18
14529.0	1.4018250325098493e+18
14530.0	1.4016007379091453e+18
14531.0	1.4013796880220157e+18
14532.0	1.4011484501704701e+18
14533.0	1.4009328654614525e+18
14534.0	1.4007096068538365e+18
14535.0	1.4004860319956992e+18
14536.0	1.4002626643361787e+18
14537.0	1.4000372397899776e+18
14538.0	1.3998159978037245e+18
14539.0	1.3995926569877504e+18
14540.0	1.3993693094608893e+18
14541.0	1.3991451398504445e+18
14542.0	1.3989226630610941e+18
14543.0	1.3986960741761021e+18
14544.0	1.3984760074338301e+18
14545.0	1.3982523906326528e+18
14546.0	1.3972319114362872e+18
14547.0	1.3970679787421686e+18
14548.0	1.3975810788556795e+18
14549.0	1.3973391228796928e+18
14550.0	1.3971369364553725e+18
14551.0	1.3969140150697981e+18
14552.0	1.3966906725761021e+18
14553.0	1.3964657253416957e+18
14554.0	1.3962448423878653e+18
14555.0	1.3960217817513981e+18
14556.0	1.3957986280013821e+18
14557.0	1.3955757066158077e+18
14558.0	1.3953522684919808e+18
14559.0	1.3947477795274742e+18
14560.0	1.3949061002428413e+18
14561.0	1.3946824079441917e+18
14562.0	1.3944567543889917e+18
14563.0	1.3942378033315835e+18
14564.0	1.3940137503227901e+18
14565.0	1.3937919320391677e+18
14566.0	1.3935689536110587e+18
14567.0	1.393345917301555e+18
14568.0	1.3931225555140605e+18
14569.0	1.3928998413271037e+18
14570.0	1.3925722812841981e+18
14571.0	1.3924534583296e+18
14572.0	1.3922242496823293e+18
14573.0	1.3920011798183933e+18
14574.0	1.3917715198640123e+18
14575.0	1.3915508256538621e+18
14576.0	1.3913277557899261e+18
14577.0	1.3911051196170237e+18
14578.0	1.3908817192419323e+18
14579.0	1.3906592164478973e+18
14580.0	1.390436279123968e+18
14581.0	1.3902127621472253e+18
14582.0	1.3899903138791421e+18
14583.0	1.389767428564582e+18
14584.0	1.389542403316121e+18
14585.0	1.3893215220400128e+18
14586.0	1.3890979941580797e+18
14587.0	1.3888754754256893e+18
14588.0	1.3886529743093757e+18
14589.0	1.3884324210278397e+18
14590.0	1.3882122091626493e+18
14591.0	1.3879918270087165e+18
14592.0	1.3877714255609853e+18
14593.0	1.3875302774079485e+18
14594.0	1.3873311847022592e+18
14595.0	1.3871099594932221e+18
14596.0	1.3868822121414653e+18
14597.0	1.3866604928434173e+18
14598.0	1.3864492500779005e+18
14599.0	1.3862301195042813e+18
14600.0	1.3860096626917373e+18
14601.0	1.3857894323716093e+18
14602.0	1.385568482308915e+18
14603.0	1.3853486655471613e+18
14604.0	1.3851205012815872e+18
14605.0	1.384906109432627e+18
14606.0	1.3846721461223421e+18
14607.0	1.3844651211489277e+18
14608.0	1.3842457699549181e+18
14609.0	1.3840256595918845e+18
14610.0	1.383802743239475e+18
14611.0	1.3835842929819645e+18
14612.0	1.3833647001960445e+18
14613.0	1.3831443239141373e+18
14614.0	1.3829230441791485e+18
14615.0	1.3827032089624573e+18
14616.0	1.3824827261452285e+18
14617.0	1.3822620881387517e+18
14618.0	1.382041508852531e+18
14619.0	1.381815666553651e+18
14620.0	1.3815802520141821e+18
14621.0	1.3813795151413245e+18
14622.0	1.3811588058316797e+18
14623.0	1.3809380185079805e+18
14624.0	1.3807068737699837e+18
14625.0	1.3804963574579197e+18
14626.0	1.3802754015231997e+18
14627.0	1.3800540177694717e+18
14628.0	1.3798338612690941e+18
14629.0	1.3796129464385533e+18
14630.0	1.379391824409395e+18
14631.0	1.3790868464992253e+18
14632.0	1.3788121162317821e+18
14633.0	1.3786295289511933e+18
14634.0	1.378413133902643e+18
14635.0	1.378185215423283e+18
14636.0	1.377951848543027e+18
14637.0	1.3777503491457021e+18
14638.0	1.3775285828714493e+18
14639.0	1.3772945440636928e+18
14640.0	1.3770745276530688e+18
14641.0	1.3766899267534845e+18
14642.0	1.3766312694120445e+18
14643.0	1.3764107110973437e+18
14644.0	1.376189041292083e+18
14645.0	1.3759635076939773e+18
14646.0	1.3757447965507581e+18
