# Flux units: erg / (cm m2 s)
# Wavelength units: Angstrom
wave	flux
14000.0	1.9918966071754747e+18
14001.0	1.991385257764454e+18
14002.0	1.9909104709402621e+18
14003.0	1.9904300301942781e+18
14004.0	1.9899446603022333e+18
14005.0	1.9894586310655997e+18
14006.0	1.988963048882176e+18
14007.0	1.988469271927193e+18
14008.0	1.9879085941456893e+18
14009.0	1.9874985220767744e+18
14010.0	1.9869966987689981e+18
14011.0	1.9861103332818944e+18
14012.0	1.9860315441201152e+18
14013.0	1.985548125418291e+18
14014.0	1.985054583344332e+18
14015.0	1.9845706596483072e+18
14016.0	1.9840832999784443e+18
14017.0	1.9835963664498683e+18
14018.0	1.9830979120070648e+18
14019.0	1.9826225514020864e+18
14020.0	1.9821326986379261e+18
14021.0	1.9816479109152763e+18
14022.0	1.9811575548346365e+18
14023.0	1.9805973082275837e+18
14024.0	1.9801567200804856e+18
14025.0	1.9797013545615355e+18
14026.0	1.979214967970201e+18
14027.0	1.9787243937857536e+18
14028.0	1.9782395104329725e+18
14029.0	1.9777454516207608e+18
14030.0	1.9743802457587735e+18
14031.0	1.9767575453892603e+18
14032.0	1.9762963246219261e+18
14033.0	1.9757352760639488e+18
14034.0	1.9753283144908797e+18
14035.0	1.9748418222030845e+18
14036.0	1.9743551420104701e+18
14037.0	1.9738329041862653e+18
14038.0	1.9733897659023355e+18
14039.0	1.972903575604428e+18
14040.0	1.9724122615447547e+18
14041.0	1.9719369714040832e+18
14042.0	1.9714490362757112e+18
14043.0	1.9709450973609984e+18
14044.0	1.9704823330897915e+18
14045.0	1.97000163229696e+18
14046.0	1.969517928382464e+18
14047.0	1.9690215190822912e+18
14048.0	1.9685490961678333e+18
14049.0	1.9680735543689216e+18
14050.0	1.9675897263030272e+18
14051.0	1.967099262848204e+18
14052.0	1.96662188394414e+18
14053.0	1.9661404365651965e+18
14054.0	1.9656629519646715e+18
14055.0	1.9651687270580221e+18
14056.0	1.96469930894295e+18
14057.0	1.964212462655897e+18
14058.0	1.9637345032601592e+18
14059.0	1.963250353071718e+18
14060.0	1.9627709810343928e+18
14061.0	1.962284064283033e+18
14062.0	1.9618103126130688e+18
14063.0	1.9613174248505341e+18
14064.0	1.9604914841845763e+18
14065.0	1.9603632039133181e+18
14066.0	1.9598833721802747e+18
14067.0	1.95929944621056e+18
14068.0	1.9589280875675643e+18
14069.0	1.9584394410852347e+18
14070.0	1.957968217741721e+18
14071.0	1.9574848997031933e+18
14072.0	1.9570054119030784e+18
14073.0	1.9565169852022781e+18
14074.0	1.9560512563970045e+18
14075.0	1.9555549309829115e+18
14076.0	1.9549780229226493e+18
14077.0	1.9538840158994427e+18
14078.0	1.9540791651205117e+18
14079.0	1.953650762265395e+18
14080.0	1.9531813407948797e+18
14081.0	1.9527024502636541e+18
14082.0	1.9521866448240635e+18
14083.0	1.951743199517081e+18
14084.0	1.951269959552204e+18
14085.0	1.9500968211120128e+18
14086.0	1.950257744812441e+18
14087.0	1.9498383228010493e+18
14088.0	1.9493434737819643e+18
14089.0	1.948774722804121e+18
14090.0	1.9483920579952637e+18
14091.0	1.947929250103296e+18
14092.0	1.9474514853232635e+18
14093.0	1.9469760743866363e+18
14094.0	1.9465001970434045e+18
14095.0	1.9460247609409533e+18
14096.0	1.9453919293865984e+18
14097.0	1.944964658993561e+18
14098.0	1.9444680768880637e+18
14099.0	1.9441185739243517e+18
14100.0	1.9436262683312125e+18
14101.0	1.943172088961433e+18
14102.0	1.9426931581648893e+18
14103.0	1.9422125731348475e+18
14104.0	1.9417452588826621e+18
14105.0	1.941244705610137e+18
14106.0	1.9407985642045437e+18
14107.0	1.9402368915341307e+18
14108.0	1.939830705068441e+18
14109.0	1.93937221395415e+18
14110.0	1.9388684797214717e+18
14111.0	1.9383618648408061e+18
14112.0	1.9379418321387515e+18
14113.0	1.9374109741809664e+18
14114.0	1.936917463983718e+18
14115.0	1.9365216793919483e+18
14116.0	1.935781175020748e+18
14117.0	1.931146162077697e+18
14118.0	1.9351081284796416e+18
14119.0	1.9345581780500475e+18
14120.0	1.9340914023464955e+18
14121.0	1.933676426297344e+18
14122.0	1.9331723984633856e+18
14123.0	1.9325593891897347e+18
14124.0	1.9320740746625021e+18
14125.0	1.9314687795527677e+18
14126.0	1.9312899478519803e+18
14127.0	1.9308671603310587e+18
14128.0	1.9303957306277883e+18
14129.0	1.9299164894527483e+18
14130.0	1.9294360252186621e+18
14131.0	1.9289737424535547e+18
14132.0	1.9285067268358144e+18
14133.0	1.9276485990809585e+18
14134.0	1.927571761109401e+18
14135.0	1.927071774906777e+18
14136.0	1.9262068020477952e+18
14137.0	1.926155545975193e+18
14138.0	1.9256175241461755e+18
14139.0	1.9252229441585147e+18
14140.0	1.9247012398497787e+18
14141.0	1.9242797190086656e+18
14142.0	1.923324660888371e+18
14143.0	1.9230363310096381e+18
14144.0	1.922877115229798e+18
14145.0	1.922408121578291e+18
14146.0	1.921933391796633e+18
14147.0	1.921465408133529e+18
14148.0	1.9209708611043325e+18
14149.0	1.920483021606092e+18
14150.0	1.9200632908939261e+18
14151.0	1.919525423415296e+18
14152.0	1.9191303535329275e+18
14153.0	1.9186641633542141e+18
14154.0	1.9181762886238205e+18
14155.0	1.9136099179823135e+18
14156.0	1.9171035802763244e+18
14157.0	1.9167820214435837e+18
14158.0	1.9162585773375488e+18
14159.0	1.9158581588787197e+18
14160.0	1.915393488715776e+18
14161.0	1.914877092718182e+18
14162.0	1.9143822889975805e+18
14163.0	1.9139947638292475e+18
14164.0	1.9133487218950136e+18
14165.0	1.9125277925834752e+18
14166.0	1.9125903179120637e+18
14167.0	1.9121190341705725e+18
14168.0	1.9116166001721344e+18
14169.0	1.9111965053943805e+18
14170.0	1.9107052383109115e+18
14171.0	1.910222249105817e+18
14172.0	1.9098046608441341e+18
14173.0	1.9091043580379133e+18
14174.0	1.9088558321041405e+18
14175.0	1.9084093736091645e+18
14176.0	1.9078537524805632e+18
14177.0	1.907455073819033e+18
14178.0	1.907010712476057e+18
14179.0	1.9065019064909824e+18
14180.0	1.9060903261503488e+18
14181.0	1.9056258992570365e+18
14182.0	1.9051624487976952e+18
14183.0	1.9046993070391296e+18
14184.0	1.9042321186160637e+18
14185.0	1.9037706327687163e+18
14186.0	1.9024011405033472e+18
14187.0	1.9028286290001915e+18
14188.0	1.9023810967633917e+18
14189.0	1.901906934051635e+18
14190.0	1.901452229554995e+18
14191.0	1.9009857407418365e+18
14192.0	1.9005276673802237e+18
14193.0	1.899918406136627e+18
14194.0	1.899601546602086e+18
14195.0	1.8991497093316603e+18
14196.0	1.898686446777139e+18
14197.0	1.8982254306918397e+18
14198.0	1.8977619986874363e+18
14199.0	1.8972845241532413e+18
14200.0	1.8963207536246787e+18
14201.0	1.896374796392857e+18
14202.0	1.895919987877478e+18
14203.0	1.895403736163942e+18
14204.0	1.894986824024064e+18
14205.0	1.8945377902264315e+18
14206.0	1.893987794498355e+18
14207.0	1.893620037923635e+18
14208.0	1.8931603757596672e+18
14209.0	1.8925925139742715e+18
14210.0	1.8921805477576696e+18
14211.0	1.8917756682371072e+18
14212.0	1.8913213512941565e+18
14213.0	1.8908301093765117e+18
14214.0	1.8904024816287741e+18
14215.0	1.8899163215298555e+18
14216.0	1.8894822379094016e+18
14217.0	1.889025191313408e+18
14218.0	1.8885579710136315e+18
14219.0	1.888101662615142e+18
14220.0	1.8876465068113915e+18
14221.0	1.8871695272050683e+18
14222.0	1.886558343292518e+18
14223.0	1.8862415324119037e+18
14224.0	1.8858191290892283e+18
14225.0	1.8839723652939786e+18
14226.0	1.884904176903782e+18
14227.0	1.8844465347166203e+18
14228.0	1.8809854688755725e+18
14229.0	1.8831546337198052e+18
14230.0	1.8830758797901821e+18
14231.0	1.8824486870581243e+18
14232.0	1.88216257848279e+18
14233.0	1.8816988243558397e+18
14234.0	1.8812506696843261e+18
14235.0	1.8807914504388603e+18
14236.0	1.8803275134402555e+18
14237.0	1.8798737786667008e+18
14238.0	1.8794164569243643e+18
14239.0	1.8789486074789888e+18
14240.0	1.8775804976562179e+18
14241.0	1.8780543013355517e+18
14242.0	1.8776031703859197e+18
14243.0	1.8770357431304195e+18
14244.0	1.876695845122867e+18
14245.0	1.876224358377062e+18
14246.0	1.8757428254343165e+18
14247.0	1.8753240459902973e+18
14248.0	1.874863781524275e+18
14249.0	1.874419339650662e+18
14250.0	1.8739674268827643e+18
14251.0	1.8735138716254203e+18
14252.0	1.8730593265123328e+18
14253.0	1.8725945875628032e+18
14254.0	1.8721519123300347e+18
14255.0	1.8716805681905656e+18
14256.0	1.8706556480651267e+18
14257.0	1.8707850775756797e+18
14258.0	1.8703409746018296e+18
14259.0	1.8697984497680381e+18
14260.0	1.86941680165847e+18
14261.0	1.8689637597839355e+18
14262.0	1.868530998208102e+18
14263.0	1.8671713189363715e+18
14264.0	1.8675052677431293e+18
14265.0	1.8670422954344445e+18
14266.0	1.8667216778035197e+18
14267.0	1.8662662736969728e+18
14268.0	1.8658144532037627e+18
14269.0	1.8653595289255933e+18
14270.0	1.8649131744493563e+18
14271.0	1.8644538092421115e+18
14272.0	1.8639934676008955e+18
14273.0	1.863561088545587e+18
14274.0	1.8618455980769285e+18
14275.0	1.8625472850034683e+18
14276.0	1.862147004117811e+18
14277.0	1.8617248507756541e+18
14278.0	1.861309175116595e+18
14279.0	1.8608570476003325e+18
14280.0	1.8604032071303168e+18
14281.0	1.8599591444217853e+18
14282.0	1.85950848155648e+18
14283.0	1.8590593554841597e+18
14284.0	1.8586105783779325e+18
14285.0	1.8581605446582272e+18
14286.0	1.8577054626742264e+18
14287.0	1.8572563500236797e+18
14288.0	1.8568114417434621e+18
14289.0	1.8557672328527854e+18
14290.0	1.8559025964646397e+18
14291.0	1.8554623354732541e+18
14292.0	1.8550174238375933e+18
14293.0	1.8545700811833344e+18
14294.0	1.8539951092137981e+18
14295.0	1.8536463461253117e+18
14296.0	1.8527417270272e+18
14297.0	1.8527796989001725e+18
14298.0	1.85173667783639e+18
14299.0	1.851847362163507e+18
14300.0	1.851430892942131e+18
14301.0	1.850952968778547e+18
14302.0	1.8505389792296952e+18
14303.0	1.8500435715293181e+18
14304.0	1.8496377004752893e+18
14305.0	1.8491940672634875e+18
14306.0	1.8486067153862653e+18
14307.0	1.8482613849161725e+18
14308.0	1.847853462008627e+18
14309.0	1.8473870822473725e+18
14310.0	1.8463769294274552e+18
14311.0	1.8454866363940861e+18
14312.0	1.8459394316435459e+18
14313.0	1.8455712724156416e+18
14314.0	1.8451591904362493e+18
14315.0	1.844734944975257e+18
14316.0	1.8442598964264955e+18
14317.0	1.8435358203052027e+18
14318.0	1.8434060904824827e+18
14319.0	1.8429634873917437e+18
14320.0	1.8425207148511227e+18
14321.0	1.8420717615841277e+18
14322.0	1.8415979277058043e+18
14323.0	1.8411774470520824e+18
14324.0	1.8406987360370683e+18
14325.0	1.8402919355252733e+18
14326.0	1.8398565365710843e+18
14327.0	1.8393985588396032e+18
14328.0	1.8389634836856827e+18
14329.0	1.8385268750942205e+18
14330.0	1.838081899705139e+18
14331.0	1.8376152078876672e+18
14332.0	1.8371920965664763e+18
14333.0	1.8367532750602237e+18
14334.0	1.8363100965109755e+18
14335.0	1.835822154671718e+18
14336.0	1.8352510582390781e+18
14337.0	1.8349775325757437e+18
14338.0	1.8345324330352637e+18
14339.0	1.8340785472667645e+18
14340.0	1.8336561858871293e+18
14341.0	1.8331979866963965e+18
14342.0	1.8327673289834493e+18
14343.0	1.8323047308066813e+18
14344.0	1.8318722577989632e+18
14345.0	1.8314517788229627e+18
14346.0	1.8310098233327613e+18
14347.0	1.830505706579558e+18
14348.0	1.8301159970177021e+18
14349.0	1.82968906720215e+18
14350.0	1.8291394456059896e+18
14351.0	1.8286990554300413e+18
14352.0	1.828359925818982e+18
14353.0	1.8279266978365435e+18
14354.0	1.8274778183892987e+18
14355.0	1.8270284708577277e+18
14356.0	1.8265958585991165e+18
14357.0	1.826168437211136e+18
14358.0	1.8257282852716541e+18
14359.0	1.8252763204943864e+18
14360.0	1.824844469921382e+18
14361.0	1.8244097990983675e+18
14362.0	1.8239707762655227e+18
14363.0	1.8235324178104315e+18
14364.0	1.8226639989112827e+18
14365.0	1.8226041025724408e+18
14366.0	1.822152721642291e+18
14367.0	1.821776210716262e+18
14368.0	1.8213394343526397e+18
14369.0	1.820903023732326e+18
14370.0	1.8204638717149184e+18
14371.0	1.8200274174738427e+18
14372.0	1.8195730602655741e+18
14373.0	1.819151398495846e+18
14374.0	1.8187090571296763e+18
14375.0	1.8182761261039613e+18
14376.0	1.817838908499558e+18
14377.0	1.817402637130137e+18
14378.0	1.816964131035545e+18
14379.0	1.8165297068376061e+18
14380.0	1.8160897679687675e+18
14381.0	1.8156459753734141e+18
14382.0	1.8152155391197181e+18
14383.0	1.8147372978667517e+18
14384.0	1.8143268516659197e+18
14385.0	1.8139112766701563e+18
14386.0	1.813460558440038e+18
14387.0	1.8130379286249472e+18
14388.0	1.8125999057141755e+18
14389.0	1.8121663220547581e+18
14390.0	1.8117310405410808e+18
14391.0	1.811283602256691e+18
14392.0	1.8108069263179776e+18
14393.0	1.8104271354462205e+18
14394.0	1.8099615442141181e+18
14395.0	1.8086774312009723e+18
14396.0	1.809078069441331e+18
14397.0	1.8086870395125755e+18
14398.0	1.8081983175327741e+18
14399.0	1.8078031973187581e+18
14400.0	1.8065970329288704e+18
14401.0	1.806940370265702e+18
14402.0	1.8065098249601021e+18
14403.0	1.798831201897664e+18
14404.0	1.787778460916119e+18
14405.0	1.8043696914104282e+18
14406.0	1.8047808707756027e+18
14407.0	1.793117585093433e+18
14408.0	1.8037523469041661e+18
14409.0	1.8034573094944765e+18
14410.0	1.8030000414392312e+18
14411.0	1.8025815404969981e+18
14412.0	1.802178571901337e+18
14413.0	1.8017462096232443e+18
14414.0	1.8013135856205821e+18
14415.0	1.8008853941583864e+18
14416.0	1.8004222607884285e+18
14417.0	1.7998922131701755e+18
14418.0	1.7994751366135805e+18
14419.0	1.7991573375549437e+18
14420.0	1.7987222322020347e+18
14421.0	1.7982945960656893e+18
14422.0	1.7978589907517437e+18
14423.0	1.7974241672560635e+18
14424.0	1.7567619922001674e+18
14425.0	1.7965639826145275e+18
14426.0	1.7961369487802363e+18
14427.0	1.7957084049965053e+18
14428.0	1.7952186143080443e+18
14429.0	1.7948419775528952e+18
14430.0	1.7944134589349885e+18
14431.0	1.7933358549958659e+18
14432.0	1.7935111282491387e+18
14433.0	1.784695575334087e+18
14434.0	1.7926807885971446e+18
14435.0	1.7921548933398523e+18
14436.0	1.79183601886167e+18
14437.0	1.7914064785113085e+18
14438.0	1.7906825483517952e+18
14439.0	1.7904828256616448e+18
14440.0	1.7901189211357181e+18
14441.0	1.7896833057554424e+18
14442.0	1.7892552082456576e+18
14443.0	1.78879892333527e+18
14444.0	1.7883997614899197e+18
14445.0	1.787973266204262e+18
14446.0	1.7788290409168932e+18
14447.0	1.7871064864391165e+18
14448.0	1.7866886213533693e+18
14449.0	1.7862630236487677e+18
14450.0	1.785831156298547e+18
14451.0	1.7854045368614907e+18
14452.0	1.7849745032609787e+18
14453.0	1.7843631012446205e+18
14454.0	1.7841160735162365e+18
14455.0	1.7836903046840315e+18
14456.0	1.7832264364720125e+18
14457.0	1.7827531142987768e+18
14458.0	1.7818015861047296e+18
14459.0	1.7818780650438653e+18
14460.0	1.7815570397265912e+18
14461.0	1.7810751913721853e+18
14462.0	1.7798262635364357e+18
14463.0	1.7802652444262395e+18
14464.0	1.779854640519577e+18
14465.0	1.779419323773747e+18
14466.0	1.7789948098772987e+18
14467.0	1.7784458476257275e+18
14468.0	1.7781404989390843e+18
14469.0	1.7776950252666875e+18
14470.0	1.7772826966622205e+18
14471.0	1.7768613435932664e+18
14472.0	1.7764423259127805e+18
14473.0	1.7760280410849275e+18
14474.0	1.7756036379181053e+18
14475.0	1.7751721916760061e+18
14476.0	1.7741914962919424e+18
14477.0	1.7743282591236093e+18
14478.0	1.773902923143577e+18
14479.0	1.7734641016373243e+18
14480.0	1.773046744901222e+18
14481.0	1.772636838926745e+18
14482.0	1.7722097295949821e+18
14483.0	1.7717755805433853e+18
14484.0	1.7713632234176507e+18
14485.0	1.7709092671848443e+18
14486.0	1.770303067783168e+18
14487.0	1.7700884737687547e+18
14488.0	1.7694295687430141e+18
14489.0	1.7691707097219064e+18
14490.0	1.7687828171325437e+18
14491.0	1.7684048851763195e+18
14492.0	1.7679640973803515e+18
14493.0	1.767508154725171e+18
14494.0	1.7671142860914685e+18
14495.0	1.766716328850227e+18
14496.0	1.7661961563013115e+18
14497.0	1.7658714064420861e+18
14498.0	1.7654478001930237e+18
14499.0	1.76503030588375e+18
14500.0	1.7646083941335037e+18
14501.0	1.7639078698680317e+18
14502.0	1.7632360128315395e+18
14503.0	1.7632740602019835e+18
14504.0	1.7629152190398461e+18
14505.0	1.762230837811609e+18
14506.0	1.761468739485696e+18
14507.0	1.761483104138035e+18
14508.0	1.7612384470302712e+18
14509.0	1.7608180653621248e+18
14510.0	1.7603968330891261e+18
14511.0	1.759978043578777e+18
14512.0	1.759544678023168e+18
14513.0	1.7591357400940541e+18
14514.0	1.7585405717118976e+18
14515.0	1.758279786666393e+18
14516.0	1.756446010114049e+18
14517.0	1.7574591157239803e+18
14518.0	1.7570384773644285e+18
14519.0	1.7566192818454525e+18
14520.0	1.7562009671303165e+18
14521.0	1.7557686769942523e+18
14522.0	1.7553453291143163e+18
14523.0	1.754232286661836e+18
14524.0	1.7538672010199035e+18
14525.0	1.754102150830489e+18
14526.0	1.7536826566770685e+18
14527.0	1.75313657004032e+18
14528.0	1.7524303130001398e+18
14529.0	1.752425479484211e+18
14530.0	1.7519998264147965e+18
14531.0	1.7515956683145216e+18
14532.0	1.749804635075379e+18
14533.0	1.7507575993991163e+18
14534.0	1.750342390146662e+18
14535.0	1.7499129336823803e+18
14536.0	1.749502183813939e+18
14537.0	1.7490765324222461e+18
14538.0	1.7486611604307965e+18
14539.0	1.748255393395507e+18
14540.0	1.7478382161756157e+18
14541.0	1.74740344972247e+18
14542.0	1.7470021471043581e+18
14543.0	1.746188577957478e+18
14544.0	1.746171082676633e+18
14545.0	1.7457324725633021e+18
14546.0	1.70995728745757e+18
14547.0	1.7131667521011497e+18
14548.0	1.7444932302143488e+18
14549.0	1.7440050501386237e+18
14550.0	1.7436678582960125e+18
14551.0	1.7432623915728893e+18
14552.0	1.7428176443539453e+18
14553.0	1.742396423824998e+18
14554.0	1.7420156833628157e+18
14555.0	1.741597229396787e+18
14556.0	1.7411677980983293e+18
14557.0	1.74077099680727e+18
14558.0	1.7403542323068925e+18
14559.0	1.7382036213858255e+18
14560.0	1.7389184146735084e+18
14561.0	1.7391130672889853e+18
14562.0	1.73866344293335e+18
14563.0	1.7382886852263933e+18
14564.0	1.7377940777992187e+18
14565.0	1.737463331762995e+18
14566.0	1.7370501777195005e+18
14567.0	1.7366336631996413e+18
14568.0	1.7357745388781568e+18
14569.0	1.7358030786002941e+18
14570.0	1.7349419359797248e+18
14571.0	1.7349793072283643e+18
14572.0	1.7344342255468544e+18
14573.0	1.734096419658137e+18
14574.0	1.7335130372702205e+18
14575.0	1.7333064258551805e+18
14576.0	1.73290561816494e+18
14577.0	1.732497904972595e+18
14578.0	1.732090492092416e+18
14579.0	1.7316749959495677e+18
14580.0	1.731268000822067e+18
14581.0	1.7307718532464635e+18
14582.0	1.7304401794301944e+18
14583.0	1.7300327095074813e+18
14584.0	1.7296030097735677e+18
14585.0	1.729207721787392e+18
14586.0	1.7287947422269435e+18
14587.0	1.72837242446807e+18
14588.0	1.7279705128370176e+18
14589.0	1.727578890672537e+18
14590.0	1.727185095858585e+18
14591.0	1.7267709754474493e+18
14592.0	1.7263870439587835e+18
14593.0	1.725897991467827e+18
14594.0	1.7256011270193147e+18
14595.0	1.725205124323737e+18
14596.0	1.7244607175720952e+18
14597.0	1.724074002743295e+18
14598.0	1.7240053268873213e+18
14599.0	1.723634367542067e+18
14600.0	1.7232217721798656e+18
14601.0	1.7228410870824952e+18
14602.0	1.7223461072011261e+18
14603.0	1.72198455148544e+18
14604.0	1.721593543367065e+18
14605.0	1.7211474791366653e+18
14606.0	1.7206168912920576e+18
14607.0	1.7204826886635512e+18
14608.0	1.720071485810278e+18
14609.0	1.7195776232914941e+18
14610.0	1.7190654501191675e+18
14611.0	1.7188993976238075e+18
14612.0	1.7185176438177787e+18
14613.0	1.7181267564953597e+18
14614.0	1.7177286365151232e+18
14615.0	1.7171652072701952e+18
14616.0	1.716947636977664e+18
14617.0	1.7165560903106557e+18
14618.0	1.7160135671545856e+18
14619.0	1.7155803240726513e+18
14620.0	1.7144042798186496e+18
14621.0	1.7149885715316733e+18
14622.0	1.7145938791366653e+18
14623.0	1.7142041309872125e+18
14624.0	1.7137682807259133e+18
14625.0	1.7134178701148157e+18
14626.0	1.7130016106086397e+18
14627.0	1.7126020662427648e+18
14628.0	1.7122471660486653e+18
14629.0	1.711855773732044e+18
14630.0	1.7114598834438141e+18
14631.0	1.7110558058741752e+18
14632.0	1.7069435340718103e+18
14633.0	1.7098371525246956e+18
14634.0	1.709883479451238e+18
14635.0	1.7060022097805082e+18
14636.0	1.6968796539453404e+18
14637.0	1.7087275863113723e+18
14638.0	1.7082509019840512e+18
14639.0	1.707923553334067e+18
14640.0	1.7075520923500544e+18
14641.0	1.6933680802955156e+18
14642.0	1.7067704368234493e+18
14643.0	1.7063810963603453e+18
14644.0	1.7059774533206013e+18
14645.0	1.7055810681044987e+18
14646.0	1.7050824307900416e+18
14647.0	1.7047096980930557e+18
