# Flux units: erg / (cm m2 s)
# Wavelength units: Angstrom
wave	flux
14000.0	2.3331314534973435e+18
14001.0	2.3326439210221563e+18
14002.0	2.3321984137953275e+18
14003.0	2.3317135824519163e+18
14004.0	2.331228269602406e+18
14005.0	2.330742686639718e+18
14006.0	2.3302528875626496e+18
14007.0	2.329764667221606e+18
14008.0	2.3292295981826043e+18
14009.0	2.328791734655385e+18
14010.0	2.3283011738927104e+18
14011.0	2.3274678915170304e+18
14012.0	2.3273377858846715e+18
14013.0	2.326862707136921e+18
14014.0	2.326375109230592e+18
14015.0	2.325894228921548e+18
14016.0	2.325411407488614e+18
14017.0	2.324927787460198e+18
14018.0	2.324443954361139e+18
14019.0	2.3239602756124667e+18
14020.0	2.3234761522675707e+18
14021.0	2.3229922554150907e+18
14022.0	2.3225093970722816e+18
14023.0	2.322017586407014e+18
14024.0	2.3215349126135803e+18
14025.0	2.321060075457741e+18
14026.0	2.320576334633369e+18
14027.0	2.3200943336062976e+18
14028.0	2.3196115792822267e+18
14029.0	2.319127274743398e+18
14030.0	2.318521597113139e+18
14031.0	2.3181343840010235e+18
14032.0	2.3176804311236603e+18
14033.0	2.3171699658719227e+18
14034.0	2.316718444013158e+18
14035.0	2.3162369261699067e+18
14036.0	2.315755366383616e+18
14037.0	2.315273866995302e+18
14038.0	2.3147924498153467e+18
14039.0	2.314307796310425e+18
14040.0	2.31382664085504e+18
14041.0	2.313347287272653e+18
14042.0	2.3128604527296507e+18
14043.0	2.3123633354309627e+18
14044.0	2.311899812829593e+18
14045.0	2.3114236066529275e+18
14046.0	2.3109408925941755e+18
14047.0	2.3104600542281723e+18
14048.0	2.3099840879656955e+18
14049.0	2.309504479369625e+18
14050.0	2.3090243943006203e+18
14051.0	2.308539517658726e+18
14052.0	2.3080605163978747e+18
14053.0	2.30758500312023e+18
14054.0	2.307105661281894e+18
14055.0	2.3066262540124155e+18
14056.0	2.3061469339844603e+18
14057.0	2.3056677766955005e+18
14058.0	2.3051887049703421e+18
14059.0	2.3047097422970875e+18
14060.0	2.3042308266000376e+18
14061.0	2.3037482165600248e+18
14062.0	2.3032729532628987e+18
14063.0	2.302785154029977e+18
14064.0	2.3022952861663227e+18
14065.0	2.3018331946614781e+18
14066.0	2.301360273463705e+18
14067.0	2.3008823845322747e+18
14068.0	2.3004044469469181e+18
14069.0	2.2999262728028157e+18
14070.0	2.2994490079838203e+18
14071.0	2.2989698993487867e+18
14072.0	2.298494131057459e+18
14073.0	2.2980168444280827e+18
14074.0	2.2975396702060541e+18
14075.0	2.29704937284567e+18
14076.0	2.296585026482995e+18
14077.0	2.2960795440644096e+18
14078.0	2.295628304062873e+18
14079.0	2.295148584737177e+18
14080.0	2.2946786532392957e+18
14081.0	2.2942023833092088e+18
14082.0	2.2937250027274237e+18
14083.0	2.2932482563244024e+18
14084.0	2.29276917956608e+18
14085.0	2.2921455989686272e+18
14086.0	2.2918100210941947e+18
14087.0	2.2913453375094781e+18
14088.0	2.290863012682137e+18
14089.0	2.2903958360031227e+18
14090.0	2.2899205609619448e+18
14091.0	2.289445636564582e+18
14092.0	2.28897065009152e+18
14093.0	2.28849568710656e+18
14094.0	2.2880207476097024e+18
14095.0	2.2875456067862528e+18
14096.0	2.2870663438008317e+18
14097.0	2.286584663218585e+18
14098.0	2.2861205903245304e+18
14099.0	2.2856478503206912e+18
14100.0	2.2851672199921661e+18
14101.0	2.2847003704688637e+18
14102.0	2.2842263386193915e+18
14103.0	2.2837445456297981e+18
14104.0	2.2832791506911227e+18
14105.0	2.2828055533715448e+18
14106.0	2.2823322160988155e+18
14107.0	2.281858509727334e+18
14108.0	2.281376478501273e+18
14109.0	2.280909640722022e+18
14110.0	2.2804372261961723e+18
14111.0	2.2799622883770368e+18
14112.0	2.27948703514624e+18
14113.0	2.279020789602713e+18
14114.0	2.2785379044163581e+18
14115.0	2.2780734624235517e+18
14116.0	2.277584955192115e+18
14117.0	2.2769016091181048e+18
14118.0	2.276652870113689e+18
14119.0	2.276179296282214e+18
14120.0	2.2757126011092992e+18
14121.0	2.275234576282419e+18
14122.0	2.274769875920486e+18
14123.0	2.2742964597948408e+18
14124.0	2.2738128431218683e+18
14125.0	2.273067241832447e+18
14126.0	2.2728768388857848e+18
14127.0	2.2724144420356093e+18
14128.0	2.2719441213063165e+18
14129.0	2.2714655176654843e+18
14130.0	2.2709867328307195e+18
14131.0	2.2705313723449336e+18
14132.0	2.2700447156404221e+18
14133.0	2.269251982118092e+18
14134.0	2.2691077467144187e+18
14135.0	2.268642135349657e+18
14136.0	2.268179881105817e+18
14137.0	2.2677117162487805e+18
14138.0	2.2672417260306427e+18
14139.0	2.266772926994841e+18
14140.0	2.2663013412634621e+18
14141.0	2.2658298142523392e+18
14142.0	2.2653546465853437e+18
14143.0	2.2648936053342203e+18
14144.0	2.2644276668137472e+18
14145.0	2.2639590556827643e+18
14146.0	2.2634896744775677e+18
14147.0	2.2630216069283837e+18
14148.0	2.2625534538153976e+18
14149.0	2.2620852671479803e+18
14150.0	2.261616840566374e+18
14151.0	2.2611473251434493e+18
14152.0	2.260680722245222e+18
14153.0	2.2602126731509755e+18
14154.0	2.259725263149465e+18
14155.0	2.259274687525683e+18
14156.0	2.258808903355596e+18
14157.0	2.2583414532079613e+18
14158.0	2.2578717482024957e+18
14159.0	2.2574062509228027e+18
14160.0	2.2569281724088317e+18
14161.0	2.256436573136486e+18
14162.0	2.2559381103050747e+18
14163.0	2.2555329120174077e+18
14164.0	2.2550575396683773e+18
14165.0	2.2545787716108283e+18
14166.0	2.2541340176809981e+18
14167.0	2.2536611015163901e+18
14168.0	2.25320585176023e+18
14169.0	2.2527404383666173e+18
14170.0	2.2522728204468221e+18
14171.0	2.251806710798745e+18
14172.0	2.251341970171494e+18
14173.0	2.2508583987970045e+18
14174.0	2.250404940847513e+18
14175.0	2.249945724957491e+18
14176.0	2.2494807494492155e+18
14177.0	2.2490155726143483e+18
14178.0	2.2485496978472955e+18
14179.0	2.2480817645158392e+18
14180.0	2.2476205471039483e+18
14181.0	2.2471558165430267e+18
14182.0	2.2466906648739832e+18
14183.0	2.2462263386439677e+18
14184.0	2.2457584791322621e+18
14185.0	2.2452951998005243e+18
14186.0	2.2447793389961208e+18
14187.0	2.244346914642329e+18
14188.0	2.2439040263389181e+18
14189.0	2.2434407839170555e+18
14190.0	2.2429770885103608e+18
14191.0	2.2425130642702333e+18
14192.0	2.242044632655462e+18
14193.0	2.241580440643174e+18
14194.0	2.2411227833565176e+18
14195.0	2.2406605895106557e+18
14196.0	2.2401974594961403e+18
14197.0	2.239734443566694e+18
14198.0	2.2392687382495227e+18
14199.0	2.238806995710771e+18
14200.0	2.238322367371673e+18
14201.0	2.2378789791072253e+18
14202.0	2.2374205332914176e+18
14203.0	2.2368266735321083e+18
14204.0	2.2363319503421437e+18
14205.0	2.2358677096759293e+18
14206.0	2.235330046879334e+18
14207.0	2.2349417415704573e+18
14208.0	2.2344824887705595e+18
14209.0	2.2339380261683195e+18
14210.0	2.2334936497258493e+18
14211.0	2.2330939476541432e+18
14212.0	2.23263720472576e+18
14213.0	2.2321766751797243e+18
14214.0	2.2317147732574205e+18
14215.0	2.231247306332569e+18
14216.0	2.230793244403302e+18
14217.0	2.2303322702610427e+18
14218.0	2.229861974697574e+18
14219.0	2.2294103957962747e+18
14220.0	2.2289497102221312e+18
14221.0	2.2283593267019773e+18
14222.0	2.2278486081142776e+18
14223.0	2.2273943901569024e+18
14224.0	2.2269329395417085e+18
14225.0	2.2263998267260928e+18
14226.0	2.226007711311462e+18
14227.0	2.2255510673686523e+18
14228.0	2.2249287031193595e+18
14229.0	2.22458958357463e+18
14230.0	2.2241714550865917e+18
14231.0	2.2237106587828221e+18
14232.0	2.2232525116014587e+18
14233.0	2.2227906985983995e+18
14234.0	2.2223330949988347e+18
14235.0	2.2218720436813821e+18
14236.0	2.2214138142916603e+18
14237.0	2.220953133750681e+18
14238.0	2.220492602526924e+18
14239.0	2.2200198574899195e+18
14240.0	2.2186530495791101e+18
14241.0	2.2189279039979517e+18
14242.0	2.2184632137023483e+18
14243.0	2.2179203835232248e+18
14244.0	2.2175546771243005e+18
14245.0	2.217090621007462e+18
14246.0	2.2166316920078333e+18
14247.0	2.2161780327317501e+18
14248.0	2.2157146980351995e+18
14249.0	2.2152639445729277e+18
14250.0	2.21480583430144e+18
14251.0	2.2143491651928061e+18
14252.0	2.2138909995565053e+18
14253.0	2.2134321544429565e+18
14254.0	2.21297282950103e+18
14255.0	2.212494546305024e+18
14256.0	2.2119855943581693e+18
14257.0	2.2115803994259448e+18
14258.0	2.2111429368741883e+18
14259.0	2.210671569246617e+18
14260.0	2.2102255972909056e+18
14261.0	2.2097555785515005e+18
14262.0	2.20933633605632e+18
14263.0	2.2087641256165373e+18
14264.0	2.2081778156044283e+18
14265.0	2.207767649583104e+18
14266.0	2.207317708138086e+18
14267.0	2.2068615977107453e+18
14268.0	2.20640501081047e+18
14269.0	2.2059415569956861e+18
14270.0	2.2054914125463547e+18
14271.0	2.2050343038746614e+18
14272.0	2.2045764855267323e+18
14273.0	2.2041108187971581e+18
14274.0	2.203480641398374e+18
14275.0	2.2031721989931003e+18
14276.0	2.2027394541944827e+18
14277.0	2.202290007677337e+18
14278.0	2.2018417775083515e+18
14279.0	2.2013854909202427e+18
14280.0	2.20092759539712e+18
14281.0	2.200476269831782e+18
14282.0	2.2000212046249984e+18
14283.0	2.1995659565465595e+18
14284.0	2.1991107302785021e+18
14285.0	2.198655458711961e+18
14286.0	2.198199980785663e+18
14287.0	2.1977437663395837e+18
14288.0	2.197278277448499e+18
14289.0	2.196064556600524e+18
14290.0	2.1961624365563901e+18
14291.0	2.1957166726381563e+18
14292.0	2.1952632801198077e+18
14293.0	2.194805394663014e+18
14294.0	2.194269475019161e+18
14295.0	2.1938763731042301e+18
14296.0	2.1929731381264384e+18
14297.0	2.192963452639641e+18
14298.0	2.1924415520374776e+18
14299.0	2.1920695676043261e+18
14300.0	2.1916226712240123e+18
14301.0	2.1911719244726267e+18
14302.0	2.1907207280918523e+18
14303.0	2.1902408812593147e+18
14304.0	2.1898036099678203e+18
14305.0	2.1893599297798144e+18
14306.0	2.188902077877452e+18
14307.0	2.1884499906265085e+18
14308.0	2.18800006931415e+18
14309.0	2.1875445980987387e+18
14310.0	2.1870689287929848e+18
14311.0	2.186631815207321e+18
14312.0	2.186172587573248e+18
14313.0	2.1856959166676987e+18
14314.0	2.185282675382681e+18
14315.0	2.1848282913308667e+18
14316.0	2.1843237132042232e+18
14317.0	2.183705160738406e+18
14318.0	2.1832565228830717e+18
14319.0	2.1828047392997373e+18
14320.0	2.182352101756108e+18
14321.0	2.1818994507907072e+18
14322.0	2.181424209303961e+18
14323.0	2.1809795090612221e+18
14324.0	2.180543172260659e+18
14325.0	2.1800835117744123e+18
14326.0	2.1796400262021117e+18
14327.0	2.1791828151894008e+18
14328.0	2.1787325834985467e+18
14329.0	2.1782849321435133e+18
14330.0	2.1778334656495608e+18
14331.0	2.1773818632601595e+18
14332.0	2.1769306501021696e+18
14333.0	2.1764794000343037e+18
14334.0	2.1760281549996024e+18
14335.0	2.175570219211161e+18
14336.0	2.1751176974303227e+18
14337.0	2.174672604600729e+18
14338.0	2.1742223645212672e+18
14339.0	2.173764562950553e+18
14340.0	2.173323028568473e+18
14341.0	2.1728724881768445e+18
14342.0	2.1724222480973821e+18
14343.0	2.1719708084469755e+18
14344.0	2.1715180199084027e+18
14345.0	2.1710715412807675e+18
14346.0	2.1706201251184637e+18
14347.0	2.1701664087998461e+18
14348.0	2.1697008142123003e+18
14349.0	2.1690446019297277e+18
14350.0	2.1685877499494395e+18
14351.0	2.1681332048363517e+18
14352.0	2.1676876892209147e+18
14353.0	2.1672434067308544e+18
14354.0	2.1667932757032952e+18
14355.0	2.1663423997673472e+18
14356.0	2.165893110956032e+18
14357.0	2.1654454445015032e+18
14358.0	2.1649960449605627e+18
14359.0	2.1645337621954557e+18
14360.0	2.1640966284771325e+18
14361.0	2.1636477272195072e+18
14362.0	2.1631987471089661e+18
14363.0	2.1627490170568701e+18
14364.0	2.1622813924261883e+18
14365.0	2.1618431279235072e+18
14366.0	2.1613992816410621e+18
14367.0	2.1609544807350264e+18
14368.0	2.160505755638169e+18
14369.0	2.1600576294879227e+18
14370.0	2.159609291944755e+18
14371.0	2.1591610399653883e+18
14372.0	2.1587088688283643e+18
14373.0	2.1582645242626043e+18
14374.0	2.157816701779968e+18
14375.0	2.1573687870226427e+18
14376.0	2.1569209376964603e+18
14377.0	2.1564727712808955e+18
14378.0	2.1560238264025083e+18
14379.0	2.1555777957265405e+18
14380.0	2.155129498448691e+18
14381.0	2.1546739718684667e+18
14382.0	2.154234433975091e+18
14383.0	2.1537867289329661e+18
14384.0	2.1533265047322621e+18
14385.0	2.1527996867280893e+18
14386.0	2.1521922927886328e+18
14387.0	2.1517565129916408e+18
14388.0	2.1513084338176e+18
14389.0	2.1508612891344893e+18
14390.0	2.1504133408227325e+18
14391.0	2.1499673017581565e+18
14392.0	2.1495196990570493e+18
14393.0	2.1490732472729592e+18
14394.0	2.1485970914279421e+18
14395.0	2.1481715088228347e+18
14396.0	2.1477322443980795e+18
14397.0	2.1472853027192827e+18
14398.0	2.1468379483209725e+18
14399.0	2.1463907298181117e+18
14400.0	2.14593208099799e+18
14401.0	2.1454881306968064e+18
14402.0	2.145032964826726e+18
14403.0	2.144052863356108e+18
14404.0	2.1419410849791987e+18
14405.0	2.1426388259045358e+18
14406.0	2.1432325816451064e+18
14407.0	2.142182470529843e+18
14408.0	2.1423324252864504e+18
14409.0	2.1419138958229501e+18
14410.0	2.1414817331937277e+18
14411.0	2.141038943875891e+18
14412.0	2.1405928611905533e+18
14413.0	2.1401501037494272e+18
14414.0	2.1397034925817856e+18
14415.0	2.139259003731968e+18
14416.0	2.13881435717632e+18
14417.0	2.1383673802653693e+18
14418.0	2.1379204134207488e+18
14419.0	2.1374773321793533e+18
14420.0	2.1370290734891005e+18
14421.0	2.1365847037575168e+18
14422.0	2.1361283517382653e+18
14423.0	2.1356238910521344e+18
14424.0	2.1326330922532849e+18
14425.0	2.1347183458516987e+18
14426.0	2.1342300634349565e+18
14427.0	2.1336764153069565e+18
14428.0	2.1332166390579192e+18
14429.0	2.1327877999951867e+18
14430.0	2.1323446533226493e+18
14431.0	2.1318658282225661e+18
14432.0	2.131439817798451e+18
14433.0	2.1305248035373053e+18
14434.0	2.1305450049830912e+18
14435.0	2.1301151257329661e+18
14436.0	2.1296805622841344e+18
14437.0	2.1292367898214392e+18
14438.0	2.1287825081106427e+18
14439.0	2.128344055703142e+18
14440.0	2.1279052107087872e+18
14441.0	2.1274579737509883e+18
14442.0	2.1270114498248701e+18
14443.0	2.1265424310075387e+18
14444.0	2.126123800880742e+18
14445.0	2.1256738292367352e+18
14446.0	2.124348971076813e+18
14447.0	2.12475004888023e+18
14448.0	2.1243539337773053e+18
14449.0	2.1239144596373501e+18
14450.0	2.1234676370767867e+18
14451.0	2.1230285773340664e+18
14452.0	2.122584814937702e+18
14453.0	2.1221383916748795e+18
14454.0	2.1217005365362683e+18
14455.0	2.1212522409361403e+18
14456.0	2.1208143505653752e+18
14457.0	2.1203714723282936e+18
14458.0	2.1199299463348221e+18
14459.0	2.1194866268569595e+18
14460.0	2.1190442569695227e+18
14461.0	2.1185929918021627e+18
14462.0	2.1181575794262008e+18
14463.0	2.1177163738775547e+18
14464.0	2.117276510506188e+18
14465.0	2.116822621382246e+18
14466.0	2.116390948647731e+18
14467.0	2.115934690580889e+18
14468.0	2.1155054723530747e+18
14469.0	2.1150542541619192e+18
14470.0	2.1146088006221821e+18
14471.0	2.114180218250854e+18
14472.0	2.1137402995146747e+18
14473.0	2.1133029711806461e+18
14474.0	2.1128635071070205e+18
14475.0	2.112396719659417e+18
14476.0	2.1117040186097661e+18
14477.0	2.111291210176921e+18
14478.0	2.1108476390408187e+18
14479.0	2.11040826556416e+18
14480.0	2.1099533647740925e+18
14481.0	2.1095248746774525e+18
14482.0	2.1090795872321533e+18
14483.0	2.1086346604969984e+18
14484.0	2.1081865427353597e+18
14485.0	2.1077239428808701e+18
14486.0	2.107119820498534e+18
14487.0	2.1068705261682683e+18
14488.0	2.1064326072762365e+18
14489.0	2.1059916097650683e+18
14490.0	2.1055521658241021e+18
14491.0	2.105112099448422e+18
14492.0	2.1046726437634043e+18
14493.0	2.1042278613123072e+18
14494.0	2.103774314443571e+18
14495.0	2.1033431701913597e+18
14496.0	2.1028220899950587e+18
14497.0	2.1024655758327803e+18
14498.0	2.1020285310337021e+18
14499.0	2.1015883203739643e+18
14500.0	2.101146816190873e+18
14501.0	2.1006838656925686e+18
14502.0	2.10013075275776e+18
14503.0	2.099812004108697e+18
14504.0	2.0993803733172221e+18
14505.0	2.0989276233662456e+18
14506.0	2.0984704593297403e+18
14507.0	2.097903916233523e+18
14508.0	2.0976228072685565e+18
14509.0	2.0971876801052672e+18
14510.0	2.096746556764979e+18
14511.0	2.0963077000265728e+18
14512.0	2.0958595302555645e+18
14513.0	2.0954260590034944e+18
14514.0	2.0949664287162368e+18
14515.0	2.0945308284354557e+18
14516.0	2.0926175077466117e+18
14517.0	2.0936183072686077e+18
14518.0	2.0932276682489853e+18
14519.0	2.0927930729234427e+18
14520.0	2.092355244628377e+18
14521.0	2.0919163795013627e+18
14522.0	2.091476017846681e+18
14523.0	2.091004663640883e+18
14524.0	2.090565132458393e+18
14525.0	2.0901560905105405e+18
14526.0	2.089721750198681e+18
14527.0	2.089260650227302e+18
14528.0	2.0887672121720827e+18
14529.0	2.0883974976962552e+18
14530.0	2.0879551831736315e+18
14531.0	2.0875258525384696e+18
14532.0	2.0868229677187067e+18
14533.0	2.086396499276595e+18
14534.0	2.0859617714110461e+18
14535.0	2.085514024425881e+18
14536.0	2.0850802444730363e+18
14537.0	2.0846375642071037e+18
14538.0	2.0842062186283003e+18
14539.0	2.0837663149916157e+18
14540.0	2.0833212389392384e+18
14541.0	2.0828631303454715e+18
14542.0	2.0824390308462587e+18
14543.0	2.0819733674721277e+18
14544.0	2.0815564653985792e+18
14545.0	2.081094603741593e+18
14546.0	2.0776992475447283e+18
14547.0	2.0774334796660716e+18
14548.0	2.079768685261619e+18
14549.0	2.079284691101286e+18
14550.0	2.0789219324592125e+18
14551.0	2.0784970159095803e+18
14552.0	2.078059487926681e+18
14553.0	2.07761882260439e+18
14554.0	2.07718504768471e+18
14555.0	2.0767466472865787e+18
14556.0	2.076307532179046e+18
14557.0	2.0758677241724925e+18
14558.0	2.0754111473385467e+18
14559.0	2.0738876049981425e+18
14560.0	2.0745334019850237e+18
14561.0	2.07411213280215e+18
14562.0	2.0736626946736128e+18
14563.0	2.0732436082065405e+18
14564.0	2.072805590328934e+18
14565.0	2.072369761878016e+18
14566.0	2.071932398311833e+18
14567.0	2.0714944794198016e+18
14568.0	2.0710514266996733e+18
14569.0	2.0706115314515965e+18
14570.0	2.0698753958674424e+18
14571.0	2.0697374921850877e+18
14572.0	2.0692818934628347e+18
14573.0	2.0688344769888253e+18
14574.0	2.0684300840075261e+18
14575.0	2.0679951632039933e+18
14576.0	2.0675584875036672e+18
14577.0	2.0671168893681661e+18
14578.0	2.0666847821037568e+18
14579.0	2.066249050960691e+18
14580.0	2.065812239364915e+18
14581.0	2.0653733155176445e+18
14582.0	2.0649381128568827e+18
14583.0	2.064500994238054e+18
14584.0	2.0640580069490683e+18
14585.0	2.0636270891892733e+18
14586.0	2.0631887559000061e+18
14587.0	2.0627536790683645e+18
14588.0	2.0623175956037627e+18
14589.0	2.0618844431187965e+18
14590.0	2.0614515053821947e+18
14591.0	2.0610180341301243e+18
14592.0	2.0605769057566715e+18
14593.0	2.060074725094195e+18
14594.0	2.0597161121021947e+18
14595.0	2.0592829193519101e+18
14596.0	2.0588169825091581e+18
14597.0	2.058147831637606e+18
14598.0	2.0577337078710267e+18
14599.0	2.057303925928755e+18
14600.0	2.0568708673961981e+18
14601.0	2.0564376092147707e+18
14602.0	2.0560038309396477e+18
14603.0	2.0555699167690747e+18
14604.0	2.055111066622361e+18
14605.0	2.054700368763289e+18
14606.0	2.0542248487747584e+18
14607.0	2.0538333457285115e+18
14608.0	2.0534042751401974e+18
14609.0	2.0529699734159355e+18
14610.0	2.0525374064558077e+18
14611.0	2.0521034167877627e+18
14612.0	2.0516724788953088e+18
14613.0	2.0512398263713787e+18
14614.0	2.0508047814164475e+18
14615.0	2.0503734073163773e+18
14616.0	2.0499408990765056e+18
14617.0	2.0495074848669693e+18
14618.0	2.0490734448672765e+18
14619.0	2.0486173176627197e+18
14620.0	2.0481615780118525e+18
14621.0	2.0477743514779643e+18
14622.0	2.047340125251174e+18
14623.0	2.0469085280141307e+18
14624.0	2.0464391619084288e+18
14625.0	2.0460384548814843e+18
14626.0	2.0456102080544763e+18
14627.0	2.04517593317376e+18
14628.0	2.0447456160382973e+18
14629.0	2.044312841040691e+18
14630.0	2.043879237248614e+18
14631.0	2.0434439104364544e+18
14632.0	2.0428117231271933e+18
14633.0	2.0425340014821368e+18
14634.0	2.0421454512259072e+18
14635.0	2.041712085670297e+18
14636.0	2.0412739218309115e+18
14637.0	2.0408491143331835e+18
14638.0	2.040414282448896e+18
14639.0	2.0399736053825533e+18
14640.0	2.0395242796613624e+18
14641.0	2.038300262635929e+18
14642.0	2.0386565670830075e+18
14643.0	2.0382473489743864e+18
14644.0	2.0378077573939192e+18
14645.0	2.037370559922176e+18
14646.0	2.036946963739443e+18
14647.0	2.036514052846387e+18
14648.0	2.0360856265031675e+18
