# Flux units: erg / (cm m2 s)
# Wavelength units: Angstrom
wave	flux
14000.0	1.8478774400057341e+18
14001.0	1.847748119547085e+18
14002.0	1.84756573610967e+18
14003.0	1.8472351981109243e+18
14004.0	1.8469004741967872e+18
14005.0	1.8465639031111675e+18
14006.0	1.846219481966182e+18
14007.0	1.8458788138844155e+18
14008.0	1.8454627104063488e+18
14009.0	1.8451983501361147e+18
14010.0	1.8448522999234555e+18
14011.0	1.8439143176536061e+18
14012.0	1.8441821642293243e+18
14013.0	1.8438667139809277e+18
14014.0	1.8435264619741181e+18
14015.0	1.8431947143380987e+18
14016.0	1.8428600088788984e+18
14017.0	1.8425240937824253e+18
14018.0	1.8421787717009403e+18
14019.0	1.8418513576198141e+18
14020.0	1.8415142379192317e+18
14021.0	1.8411770460766203e+18
14022.0	1.8408392183775232e+18
14023.0	1.840491530708582e+18
14024.0	1.8401560937627643e+18
14025.0	1.8398321374658555e+18
14026.0	1.8394955026268155e+18
14027.0	1.8391596563169275e+18
14028.0	1.8388138778951677e+18
14029.0	1.8384622727462912e+18
14030.0	1.837105799600538e+18
14031.0	1.8376294148341755e+18
14032.0	1.837468667294515e+18
14033.0	1.837100909042073e+18
14034.0	1.8368101280120832e+18
14035.0	1.8364780280545275e+18
14036.0	1.8361353064415232e+18
14037.0	1.8358084627857403e+18
14038.0	1.8354752890863613e+18
14039.0	1.835136322214297e+18
14040.0	1.8348034337275904e+18
14041.0	1.834470050313011e+18
14042.0	1.834126157650329e+18
14043.0	1.8337644324847608e+18
14044.0	1.8334509585924093e+18
14045.0	1.8331247222718461e+18
14046.0	1.8327942094389243e+18
14047.0	1.832455125126348e+18
14048.0	1.8321299910688765e+18
14049.0	1.8317971176816637e+18
14050.0	1.8314631755857917e+18
14051.0	1.831122264234393e+18
14052.0	1.830790362247987e+18
14053.0	1.8304619079794685e+18
14054.0	1.8301284457119741e+18
14055.0	1.8297948827811837e+18
14056.0	1.829461363471155e+18
14057.0	1.8291279431467003e+18
14058.0	1.8287945244999677e+18
14059.0	1.8284531215761405e+18
14060.0	1.8281277509599227e+18
14061.0	1.8277878110093307e+18
14062.0	1.8274597996593147e+18
14063.0	1.8271077146820605e+18
14064.0	1.8265676661653504e+18
14065.0	1.8264517288919035e+18
14066.0	1.8261273581977597e+18
14067.0	1.8257942415409147e+18
14068.0	1.8254646145449984e+18
14069.0	1.8251305868853245e+18
14070.0	1.8247989382348797e+18
14071.0	1.8244644592680955e+18
14072.0	1.8241350050775035e+18
14073.0	1.8238026652057597e+18
14074.0	1.8234700837421053e+18
14075.0	1.8231186966970365e+18
14076.0	1.8227959433265147e+18
14077.0	1.822232930156544e+18
14078.0	1.8221094867566587e+18
14079.0	1.8217978029932541e+18
14080.0	1.8214775276175355e+18
14081.0	1.8211466473635837e+18
14082.0	1.8208143209136125e+18
14083.0	1.8204800600506365e+18
14084.0	1.8201371220115453e+18
14085.0	1.8195169840988155e+18
14086.0	1.819446016475136e+18
14087.0	1.8191476773093376e+18
14088.0	1.8188129500397565e+18
14089.0	1.8184932887101437e+18
14090.0	1.818164143220326e+18
14091.0	1.8178350430289915e+18
14092.0	1.8175046577029117e+18
14093.0	1.8171737321504765e+18
14094.0	1.8168421925519355e+18
14095.0	1.8165081095274493e+18
14096.0	1.816150570277273e+18
14097.0	1.815819435009638e+18
14098.0	1.8155046625607677e+18
14099.0	1.815187403728486e+18
14100.0	1.8148483680698365e+18
14101.0	1.814530844157542e+18
14102.0	1.814198935460249e+18
14103.0	1.8138558363598845e+18
14104.0	1.8135383392911355e+18
14105.0	1.8132117288386555e+18
14106.0	1.8128819105824765e+18
14107.0	1.8125450995826685e+18
14108.0	1.8122100787118077e+18
14109.0	1.811888169235251e+18
14110.0	1.811560557182976e+18
14111.0	1.8112257477050368e+18
14112.0	1.8108932266393597e+18
14113.0	1.8105706829840381e+18
14114.0	1.8102236815032317e+18
14115.0	1.809893331409305e+18
14116.0	1.8094401184071677e+18
14117.0	1.8072891601977344e+18
14118.0	1.8088545046495227e+18
14119.0	1.8085526959554555e+18
14120.0	1.8082412084854781e+18
14121.0	1.8079180776275965e+18
14122.0	1.8075935945261053e+18
14123.0	1.8072652560203768e+18
14124.0	1.806916115444531e+18
14125.0	1.8061949585588221e+18
14126.0	1.8062777474088955e+18
14127.0	1.8059679460491261e+18
14128.0	1.8056416845627387e+18
14129.0	1.8053035229970427e+18
14130.0	1.8049648681811965e+18
14131.0	1.8046566958891005e+18
14132.0	1.8043008377159677e+18
14133.0	1.8035016768421878e+18
14134.0	1.8036432111140861e+18
14135.0	1.8033312303939581e+18
14136.0	1.8030130236489728e+18
14137.0	1.8026856229896187e+18
14138.0	1.802353642150297e+18
14139.0	1.8020360863612925e+18
14140.0	1.8017045132083197e+18
14141.0	1.8013432359944187e+18
14142.0	1.8009725316628477e+18
14143.0	1.8007194255491072e+18
14144.0	1.8004030911414272e+18
14145.0	1.800076900119347e+18
14146.0	1.7997479794442237e+18
14147.0	1.7994251723866112e+18
14148.0	1.7990985334128637e+18
14149.0	1.798773095687782e+18
14150.0	1.7984483105964032e+18
14151.0	1.7981180158672893e+18
14152.0	1.79779411157975e+18
14153.0	1.7974698566483963e+18
14154.0	1.7971170267627515e+18
14155.0	1.7967896378474493e+18
14156.0	1.7964881579868155e+18
14157.0	1.7961646714519547e+18
14158.0	1.7958358313074685e+18
14159.0	1.7955122524979197e+18
14160.0	1.7951688950284288e+18
14161.0	1.7948088593285115e+18
14162.0	1.7944367809429504e+18
14163.0	1.7941891744006144e+18
14164.0	1.7938356784594941e+18
14165.0	1.793535455212339e+18
14166.0	1.7932303967715325e+18
14167.0	1.7928937988423677e+18
14168.0	1.792581224208793e+18
14169.0	1.7922599002570747e+18
14170.0	1.7919321288212475e+18
14171.0	1.7916072346779648e+18
14172.0	1.7912848571170813e+18
14173.0	1.7909436320317437e+18
14174.0	1.7906278093291515e+18
14175.0	1.7903112299741181e+18
14176.0	1.7899871344263163e+18
14177.0	1.7896627385663485e+18
14178.0	1.7893378091909117e+18
14179.0	1.789010081375846e+18
14180.0	1.7886894285127675e+18
14181.0	1.7883650108424187e+18
14182.0	1.7880397140459515e+18
14183.0	1.787715069883187e+18
14184.0	1.7873835990712315e+18
14185.0	1.7870470397296637e+18
14186.0	1.786422972592947e+18
14187.0	1.786350065523097e+18
14188.0	1.78608638305239e+18
14189.0	1.7857684883636221e+18
14190.0	1.7854457568034816e+18
14191.0	1.7851207468974077e+18
14192.0	1.7847881134243837e+18
14193.0	1.7844285575528443e+18
14194.0	1.7841511882293243e+18
14195.0	1.7838329462521853e+18
14196.0	1.7835104529285115e+18
14197.0	1.78318732207063e+18
14198.0	1.7828591278489595e+18
14199.0	1.7825320157577216e+18
14200.0	1.7820179064946685e+18
14201.0	1.781848790479667e+18
14202.0	1.7815674181124093e+18
14203.0	1.781245357640908e+18
14204.0	1.78092470477783e+18
14205.0	1.7805988576886781e+18
14206.0	1.7801673644703741e+18
14207.0	1.7799510105260027e+18
14208.0	1.7796338792005627e+18
14209.0	1.7791910680723453e+18
14210.0	1.778892591333376e+18
14211.0	1.7786615640358907e+18
14212.0	1.7783494625198077e+18
14213.0	1.778028895220531e+18
14214.0	1.777706276067737e+18
14215.0	1.7773734865666043e+18
14216.0	1.777064599565107e+18
14217.0	1.7767431866941437e+18
14218.0	1.7764089409306621e+18
14219.0	1.7760998475694077e+18
14220.0	1.7757753493684221e+18
14221.0	1.7754553038405627e+18
14222.0	1.7751205430165504e+18
14223.0	1.7748102349848576e+18
14224.0	1.7744777843834877e+18
14225.0	1.7734826052288512e+18
14226.0	1.7737851839971325e+18
14227.0	1.7735019678138363e+18
14228.0	1.771369946048103e+18
14229.0	1.77238247116636e+18
14230.0	1.772553407509299e+18
14231.0	1.7722378280763387e+18
14232.0	1.7719251058032635e+18
14233.0	1.7716040704196605e+18
14234.0	1.7712854341779453e+18
14235.0	1.77096285529047e+18
14236.0	1.770627483775795e+18
14237.0	1.7702895252144128e+18
14238.0	1.7699655420739581e+18
14239.0	1.7696116669677563e+18
14240.0	1.7676756852932605e+18
14241.0	1.7689398267084797e+18
14242.0	1.768664801162035e+18
14243.0	1.768230808138547e+18
14244.0	1.7680467469795328e+18
14245.0	1.7677239919312893e+18
14246.0	1.7674064361422843e+18
14247.0	1.7670884810555387e+18
14248.0	1.766757481683353e+18
14249.0	1.7664501297971197e+18
14250.0	1.7661335504420861e+18
14251.0	1.7658157497057277e+18
14252.0	1.7654952511930365e+18
14253.0	1.7651725179551744e+18
14254.0	1.7648308717617147e+18
14255.0	1.764435659273011e+18
14256.0	1.7635268760698877e+18
14257.0	1.763640149121433e+18
14258.0	1.7635244333072381e+18
14259.0	1.7631971266002941e+18
14260.0	1.762872249234227e+18
14261.0	1.7625508179083261e+18
14262.0	1.7622387851788285e+18
14263.0	1.7610006333489152e+18
14264.0	1.7611665365270525e+18
14265.0	1.7612923773911037e+18
14266.0	1.7610090001465344e+18
14267.0	1.7606981686657024e+18
14268.0	1.7603822436220923e+18
14269.0	1.760054884905779e+18
14270.0	1.7597439057854467e+18
14271.0	1.7594205333356541e+18
14272.0	1.759086071146086e+18
14273.0	1.7586783327879165e+18
14274.0	1.7568195397287939e+18
14275.0	1.757750425236275e+18
14276.0	1.7577513194618877e+18
14277.0	1.7574692776837117e+18
14278.0	1.757166385181491e+18
14279.0	1.7568510473404413e+18
14280.0	1.7565320654880768e+18
14281.0	1.7562215477411837e+18
14282.0	1.7559052099780605e+18
14283.0	1.755588189382246e+18
14284.0	1.7552708634411003e+18
14285.0	1.7549530190839805e+18
14286.0	1.7546344197521405e+18
14287.0	1.7543144899870717e+18
14288.0	1.7539720586199037e+18
14289.0	1.7526203149713393e+18
14290.0	1.7533403293286397e+18
14291.0	1.753045551965798e+18
14292.0	1.7527293249323005e+18
14293.0	1.7524094941528061e+18
14294.0	1.7519738401849344e+18
14295.0	1.7517388652085243e+18
14296.0	1.7506305639972867e+18
14297.0	1.7510545192124413e+18
14298.0	1.750505951225446e+18
14299.0	1.750443947668275e+18
14300.0	1.7501550020657152e+18
14301.0	1.7498453047246848e+18
14302.0	1.7495314348900352e+18
14303.0	1.7491782140952576e+18
14304.0	1.7488823931895803e+18
14305.0	1.7485799553499133e+18
14306.0	1.748254915244851e+18
14307.0	1.7479356431466493e+18
14308.0	1.7476224175570941e+18
14309.0	1.7472963724967933e+18
14310.0	1.7469494498689021e+18
14311.0	1.7466031614197757e+18
14312.0	1.7463065872171003e+18
14313.0	1.745912815891251e+18
14314.0	1.7457255804829693e+18
14315.0	1.7454145929740288e+18
14316.0	1.7450612866154493e+18
14317.0	1.7447800400773117e+18
14318.0	1.74448035537879e+18
14319.0	1.7441699919822848e+18
14320.0	1.743856113759027e+18
14321.0	1.7435383247667195e+18
14322.0	1.7431790423638013e+18
14323.0	1.74285443343319e+18
14324.0	1.742563300081664e+18
14325.0	1.7422396306751485e+18
14326.0	1.7419358523359227e+18
14327.0	1.7416140233900032e+18
14328.0	1.741301017581977e+18
14329.0	1.7409930063511547e+18
14330.0	1.74067888989143e+18
14331.0	1.7403644143992827e+18
14332.0	1.7400504002805757e+18
14333.0	1.7397361496031227e+18
14334.0	1.7394214560071677e+18
14335.0	1.7390913156284408e+18
14336.0	1.738723703337779e+18
14337.0	1.7384745751019517e+18
14338.0	1.7381629215375357e+18
14339.0	1.73784005911511e+18
14340.0	1.7375371162812416e+18
14341.0	1.737222518315417e+18
14342.0	1.7369083313913853e+18
14343.0	1.7365964194578427e+18
14344.0	1.7362754092400637e+18
14345.0	1.7359671027302397e+18
14346.0	1.7356512296959997e+18
14347.0	1.7353244648931325e+18
14348.0	1.7350242483568635e+18
14349.0	1.734713158506905e+18
14350.0	1.7343195901853693e+18
14351.0	1.7339863476994048e+18
14352.0	1.7337280574259197e+18
14353.0	1.7334253763166203e+18
14354.0	1.7331072836567037e+18
14355.0	1.7327814399229947e+18
14356.0	1.732470009495552e+18
14357.0	1.7321748378681341e+18
14358.0	1.7318653569531904e+18
14359.0	1.7315365319081981e+18
14360.0	1.7312356761599997e+18
14361.0	1.730924193723187e+18
14362.0	1.7306134394175488e+18
14363.0	1.7302952410611712e+18
14364.0	1.7298243364847613e+18
14365.0	1.7295961361481723e+18
14366.0	1.729325818288537e+18
14367.0	1.7290525795155968e+18
14368.0	1.7287418285654013e+18
14369.0	1.7284308075020285e+18
14370.0	1.728119293188505e+18
14371.0	1.7278078107516925e+18
14372.0	1.7274902096642048e+18
14373.0	1.7271817571926008e+18
14374.0	1.72687132500951e+18
14375.0	1.726557044133068e+18
14376.0	1.7262493399252987e+18
14377.0	1.725937094125158e+18
14378.0	1.72562368734167e+18
14379.0	1.725314570492313e+18
14380.0	1.7250022106071037e+18
14381.0	1.7246795226677243e+18
14382.0	1.7243610122551293e+18
14383.0	1.7240313701597181e+18
14384.0	1.7237018639597565e+18
14385.0	1.723410326277324e+18
14386.0	1.7230796272173056e+18
14387.0	1.7227875476307965e+18
14388.0	1.722473353995878e+18
14389.0	1.722164772339712e+18
14390.0	1.721852794975027e+18
14391.0	1.7215438056325115e+18
14392.0	1.7212324708351997e+18
14393.0	1.7209222735331325e+18
14394.0	1.720569232254566e+18
14395.0	1.7202893664813053e+18
14396.0	1.7199896180293632e+18
14397.0	1.7196787764822013e+18
14398.0	1.719367413163622e+18
14399.0	1.7190555918270467e+18
14400.0	1.718724815591833e+18
14401.0	1.7184204517277693e+18
14402.0	1.7180993240694781e+18
14403.0	1.717471678352588e+18
14404.0	1.7146560722763763e+18
14405.0	1.715219332071421e+18
14406.0	1.7168250357940221e+18
14407.0	1.716203200027033e+18
14408.0	1.7162261864906747e+18
14409.0	1.7159293069426685e+18
14410.0	1.7156305751900157e+18
14411.0	1.71533292053463e+18
14412.0	1.7150234916290557e+18
14413.0	1.71471837111255e+18
14414.0	1.7144068702207997e+18
14415.0	1.7140981241479165e+18
14416.0	1.7137881315278848e+18
14417.0	1.7134714917748733e+18
14418.0	1.7131579188969467e+18
14419.0	1.7128304309960704e+18
14420.0	1.712506677703475e+18
14421.0	1.7121993996369915e+18
14422.0	1.7118761060401152e+18
14423.0	1.7115081196175357e+18
14424.0	1.709816830282956e+18
14425.0	1.7108903724580856e+18
14426.0	1.7106466364194813e+18
14427.0	1.7103454451269627e+18
14428.0	1.7100139374051325e+18
14429.0	1.7097270704996347e+18
14430.0	1.7094019364421632e+18
14431.0	1.7088042581884923e+18
14432.0	1.7087842966568957e+18
14433.0	1.7082099689324541e+18
14434.0	1.7081580300271613e+18
14435.0	1.7078486497755133e+18
14436.0	1.7075686413959165e+18
14437.0	1.7072643647733752e+18
14438.0	1.7069230289584123e+18
14439.0	1.706635969114931e+18
14440.0	1.7063411380649981e+18
14441.0	1.7060232366653437e+18
14442.0	1.7057082343686141e+18
14443.0	1.7053591860674557e+18
14444.0	1.7050962283724795e+18
14445.0	1.7047818619322365e+18
14446.0	1.7034641357668357e+18
14447.0	1.704113174111846e+18
14448.0	1.7038717499736061e+18
14449.0	1.7035692802572285e+18
14450.0	1.703256235861606e+18
14451.0	1.7029513670033403e+18
14452.0	1.7026468521443328e+18
14453.0	1.702337077628108e+18
14454.0	1.7020300075991035e+18
14455.0	1.7017141597306875e+18
14456.0	1.7014102522068987e+18
14457.0	1.7011021889667067e+18
14458.0	1.7007937130070013e+18
14459.0	1.7004801384513533e+18
14460.0	1.7001352374779904e+18
14461.0	1.6997819109867515e+18
14462.0	1.6994537285091325e+18
14463.0	1.6991880579383293e+18
14464.0	1.6989009779621888e+18
14465.0	1.6985786071121915e+18
14466.0	1.6982979477766141e+18
14467.0	1.69797571617751e+18
14468.0	1.6976841617178624e+18
14469.0	1.6973446781075456e+18
14470.0	1.697043847525171e+18
14471.0	1.6967637753921533e+18
14472.0	1.6964631662690296e+18
14473.0	1.6961616327213053e+18
14474.0	1.6958593525874685e+18
14475.0	1.695551093053849e+18
14476.0	1.6952308965310461e+18
14477.0	1.694939456156467e+18
14478.0	1.6946323055968253e+18
14479.0	1.694325889879244e+18
14480.0	1.6940028227747837e+18
14481.0	1.6937169977343997e+18
14482.0	1.6934052435066877e+18
14483.0	1.693094286196736e+18
14484.0	1.6927772823781368e+18
14485.0	1.6924353341947904e+18
14486.0	1.6918855297269757e+18
14487.0	1.6918694219218941e+18
14488.0	1.691566002615091e+18
14489.0	1.6912423063650304e+18
14490.0	1.6909551039152125e+18
14491.0	1.690658299864678e+18
14492.0	1.6903512533237757e+18
14493.0	1.6900331422089208e+18
14494.0	1.6897144355028987e+18
14495.0	1.6894209936064507e+18
14496.0	1.6889979795931133e+18
14497.0	1.688817252066918e+18
14498.0	1.688518317309952e+18
14499.0	1.6882135776362493e+18
14500.0	1.6879070528667648e+18
14501.0	1.6875763705839608e+18
14502.0	1.6870666787618813e+18
14503.0	1.686972182770483e+18
14504.0	1.6866768735698936e+18
14505.0	1.686371774863769e+18
14506.0	1.6860459646844925e+18
14507.0	1.685525204933017e+18
14508.0	1.6854584014143485e+18
14509.0	1.685154445236633e+18
14510.0	1.6848174631092221e+18
14511.0	1.684514387735347e+18
14512.0	1.6841971456802813e+18
14513.0	1.6838990648836096e+18
14514.0	1.6835635541180413e+18
14515.0	1.683246885843763e+18
14516.0	1.6802530956673034e+18
14517.0	1.6825540757422077e+18
14518.0	1.682369048215552e+18
14519.0	1.682071505967513e+18
14520.0	1.6817737993027581e+18
14521.0	1.681471420183347e+18
14522.0	1.6811646471110653e+18
14523.0	1.680833276962406e+18
14524.0	1.6805383687372797e+18
14525.0	1.680249334215475e+18
14526.0	1.6799477285257208e+18
14527.0	1.6796054095659003e+18
14528.0	1.6792093028515837e+18
14529.0	1.6790263221452797e+18
14530.0	1.6787181464977403e+18
14531.0	1.678430011234713e+18
14532.0	1.6781104103030781e+18
14533.0	1.6778240853016576e+18
14534.0	1.6775232966623232e+18
14535.0	1.6772071921025021e+18
14536.0	1.6769106313215995e+18
14537.0	1.6765986220802043e+18
14538.0	1.6763082554474493e+18
14539.0	1.6760053377794043e+18
14540.0	1.6757014940090363e+18
14541.0	1.6753723485192195e+18
14542.0	1.6750896960503803e+18
14543.0	1.674764736475955e+18
14544.0	1.6744779551342587e+18
14545.0	1.674146507810406e+18
14546.0	1.6717778148917235e+18
14547.0	1.671497301517925e+18
14548.0	1.673218026477977e+18
14549.0	1.672837084689203e+18
14550.0	1.6726464200179712e+18
14551.0	1.6723632759767035e+18
14552.0	1.6720604656828413e+18
14553.0	1.671750689488896e+18
14554.0	1.6714572224266237e+18
14555.0	1.6711536470917115e+18
14556.0	1.670848657437491e+18
14557.0	1.6705395573653504e+18
14558.0	1.670190257405952e+18
14559.0	1.6679039842385897e+18
14560.0	1.669579335217971e+18
14561.0	1.6693203721781243e+18
14562.0	1.6689996673056765e+18
14563.0	1.668721740978585e+18
14564.0	1.668408970051584e+18
14565.0	1.6681267756007421e+18
14566.0	1.667793106973491e+18
14567.0	1.6674850504441853e+18
14568.0	1.6671735596187648e+18
14569.0	1.6668607853363197e+18
14570.0	1.666018095975628e+18
14571.0	1.666259476493107e+18
14572.0	1.6659301883969533e+18
14573.0	1.665611750126387e+18
14574.0	1.665341091689267e+18
14575.0	1.665053236605747e+18
14576.0	1.664748144610508e+18
14577.0	1.6644542295965693e+18
14578.0	1.6641595361198077e+18
14579.0	1.6638622522408957e+18
14580.0	1.6635606884941824e+18
14581.0	1.6632537661046781e+18
14582.0	1.662949405596057e+18
14583.0	1.662653569590886e+18
14584.0	1.662333891484057e+18
14585.0	1.6620476486909947e+18
14586.0	1.6617466788577277e+18
14587.0	1.6614476249825277e+18
14588.0	1.6611465729409021e+18
14589.0	1.6608459873058813e+18
14590.0	1.660545114780467e+18
14591.0	1.6602399338659835e+18
14592.0	1.6599253862318075e+18
14593.0	1.6595242396418043e+18
14594.0	1.65933158015959e+18
14595.0	1.6590280333459456e+18
14596.0	1.658555251399065e+18
14597.0	1.6582186333372408e+18
14598.0	1.658108692240793e+18
14599.0	1.6578364181577725e+18
14600.0	1.6575360640483325e+18
14601.0	1.6572355773988861e+18
14602.0	1.6569305021808637e+18
14603.0	1.6566312822112256e+18
14604.0	1.6562862453424125e+18
14605.0	1.6560043965022205e+18
14606.0	1.6556379519057915e+18
14607.0	1.6554264801312763e+18
14608.0	1.6551242117414912e+18
14609.0	1.654818040971264e+18
14610.0	1.6545074745704443e+18
14611.0	1.6542103282647037e+18
14612.0	1.653933890076672e+18
14613.0	1.6536374651912192e+18
14614.0	1.653328438938828e+18
14615.0	1.6530323563085821e+18
14616.0	1.6527396593205243e+18
14617.0	1.6524216673239035e+18
14618.0	1.6521099583946744e+18
14619.0	1.6516095192072187e+18
14620.0	1.6511267330064381e+18
14621.0	1.6512239670394877e+18
14622.0	1.6509354760994813e+18
14623.0	1.6506404470783997e+18
14624.0	1.650289016412569e+18
14625.0	1.6500371182583805e+18
14626.0	1.649738012373811e+18
14627.0	1.6494395004026875e+18
14628.0	1.649148603609907e+18
14629.0	1.648848799793152e+18
14630.0	1.6485419931664381e+18
14631.0	1.6482098864979965e+18
14632.0	1.647784255238963e+18
14633.0	1.6475806385569792e+18
14634.0	1.6473091848798205e+18
14635.0	1.6469848460623867e+18
14636.0	1.646616514029158e+18
14637.0	1.6464165514248187e+18
14638.0	1.6461039499476992e+18
14639.0	1.6457953750024192e+18
14640.0	1.645495515820851e+18
14641.0	1.6447578182778875e+18
14642.0	1.6448941163806715e+18
14643.0	1.6446131651215357e+18
14644.0	1.6443012632543232e+18
14645.0	1.643990133139046e+18
14646.0	1.6436970536304637e+18
14647.0	1.6433941577727995e+18
