# Flux units: erg / (cm m2 s)
# Wavelength units: Angstrom
wave	flux
14000.0	2.001725978732134e+18
14001.0	2.00119612908503e+18
14002.0	2.000757997122355e+18
14003.0	2.0002750649597947e+18
14004.0	1.9997924347871232e+18
14005.0	1.9993078685237245e+18
14006.0	1.9988162558296064e+18
14007.0	1.9983281881612283e+18
14008.0	1.9977541221613565e+18
14009.0	1.9973691454521344e+18
14010.0	1.9968705500807168e+18
14011.0	1.995866707171738e+18
14012.0	1.9959160556748792e+18
14013.0	1.9954340580032507e+18
14014.0	1.994943448586649e+18
14015.0	1.994464794614169e+18
14016.0	1.9939839646367744e+18
14017.0	1.993496373441331e+18
14018.0	1.9930076296511483e+18
14019.0	1.9925285663145984e+18
14020.0	1.9920436292747264e+18
14021.0	1.9915619000385533e+18
14022.0	1.9910797782155261e+18
14023.0	1.9905801493676027e+18
14024.0	1.9901001112748024e+18
14025.0	1.989633401002393e+18
14026.0	1.9891505225269245e+18
14027.0	1.988668825167462e+18
14028.0	1.9881826935898107e+18
14029.0	1.987700810003251e+18
14030.0	1.9868530002362368e+18
14031.0	1.9867253960867837e+18
14032.0	1.9862633012264955e+18
14033.0	1.985737162699571e+18
14034.0	1.9853025724071933e+18
14035.0	1.9848183785979896e+18
14036.0	1.9843420918906875e+18
14037.0	1.983851630113587e+18
14038.0	1.9833747578814461e+18
14039.0	1.9828906580246525e+18
14040.0	1.982402149115494e+18
14041.0	1.981931598538342e+18
14042.0	1.9814468225597435e+18
14043.0	1.980939293320806e+18
14044.0	1.9804881355276283e+18
14045.0	1.980015091856179e+18
14046.0	1.9795334414729208e+18
14047.0	1.979051255896473e+18
14048.0	1.978580337898291e+18
14049.0	1.9781034052681725e+18
14050.0	1.9776246455992315e+18
14051.0	1.9771342140211192e+18
14052.0	1.97666364498903e+18
14053.0	1.9761886232838144e+18
14054.0	1.9757127727841275e+18
14055.0	1.9752303422603261e+18
14056.0	1.9747574344843261e+18
14057.0	1.9742781211672573e+18
14058.0	1.973802295833395e+18
14059.0	1.9733228315213821e+18
14060.0	1.9728422850789373e+18
14061.0	1.9723589989171192e+18
14062.0	1.9718887704625147e+18
14063.0	1.971396359172915e+18
14064.0	1.970886053304729e+18
14065.0	1.970451902575411e+18
14066.0	1.9699799427121147e+18
14067.0	1.9694955744198648e+18
14068.0	1.969031431061504e+18
14069.0	1.9685540437688312e+18
14070.0	1.9680799515213821e+18
14071.0	1.9676021531869181e+18
14072.0	1.9671282991759355e+18
14073.0	1.9666541146537981e+18
14074.0	1.9661791785123837e+18
14075.0	1.965686245451366e+18
14076.0	1.9652160874610683e+18
14077.0	1.9646617715998717e+18
14078.0	1.9642713305513981e+18
14079.0	1.9637954079096832e+18
14080.0	1.963331836654387e+18
14081.0	1.9628549308678144e+18
14082.0	1.9623516361981947e+18
14083.0	1.9619043455533053e+18
14084.0	1.9614303220924416e+18
14085.0	1.9606733995376637e+18
14086.0	1.960472210518835e+18
14087.0	1.9600076544409597e+18
14088.0	1.9595231334760443e+18
14089.0	1.9590466706079741e+18
14090.0	1.9585854448074747e+18
14091.0	1.958116246473932e+18
14092.0	1.9576421844254715e+18
14093.0	1.9571711154323453e+18
14094.0	1.9566990767161341e+18
14095.0	1.9562271235637245e+18
14096.0	1.9557349555437565e+18
14097.0	1.9552599220944893e+18
14098.0	1.954796993406566e+18
14099.0	1.9543393310867453e+18
14100.0	1.9538546708709373e+18
14101.0	1.9533976192417787e+18
14102.0	1.9529237299986427e+18
14103.0	1.9524433597169661e+18
14104.0	1.9519817681731584e+18
14105.0	1.9515047063584763e+18
14106.0	1.9510433580843003e+18
14107.0	1.950545683782041e+18
14108.0	1.950089226066329e+18
14109.0	1.949627835849113e+18
14110.0	1.94913223353303e+18
14111.0	1.9486243788161021e+18
14112.0	1.9482083592241147e+18
14113.0	1.9477395970981883e+18
14114.0	1.9472614716080128e+18
14115.0	1.9468061950083064e+18
14116.0	1.9462503457095677e+18
14117.0	1.9452764534865917e+18
14118.0	1.9453990009831421e+18
14119.0	1.9449175435378683e+18
14120.0	1.9444543027937275e+18
14121.0	1.9439707364524032e+18
14122.0	1.94351400526807e+18
14123.0	1.9430308566794237e+18
14124.0	1.9425663291228152e+18
14125.0	1.941679252281753e+18
14126.0	1.941649918997299e+18
14127.0	1.9411880137195515e+18
14128.0	1.9407192230723581e+18
14129.0	1.9402416445194237e+18
14130.0	1.9397617020567547e+18
14131.0	1.9393188724735997e+18
14132.0	1.938846026773299e+18
14133.0	1.937869513949182e+18
14134.0	1.937917818909491e+18
14135.0	1.9374370275196925e+18
14136.0	1.9369362242666496e+18
14137.0	1.9365185554743296e+18
14138.0	1.9360439313891325e+18
14139.0	1.935586758964019e+18
14140.0	1.935068698666598e+18
14141.0	1.9346547896483835e+18
14142.0	1.934113296613376e+18
14143.0	1.9336154662830077e+18
14144.0	1.933253449193881e+18
14145.0	1.932787311024537e+18
14146.0	1.9323208406663165e+18
14147.0	1.931857232501145e+18
14148.0	1.931390070921625e+18
14149.0	1.9309233640046587e+18
14150.0	1.930463607888281e+18
14151.0	1.9299888630071293e+18
14152.0	1.9295342004535293e+18
14153.0	1.929071956276019e+18
14154.0	1.9285822712840187e+18
14155.0	1.9278828308267005e+18
14156.0	1.927670184647065e+18
14157.0	1.9272154935721981e+18
14158.0	1.9267445839626235e+18
14159.0	1.9262887470039035e+18
14160.0	1.925826130372198e+18
14161.0	1.925298968435097e+18
14162.0	1.9247982675230715e+18
14163.0	1.924437703340851e+18
14164.0	1.9239447350476797e+18
14165.0	1.922977223199949e+18
14166.0	1.9230450903941115e+18
14167.0	1.9225752159387643e+18
14168.0	1.922118964582809e+18
14169.0	1.9216656039411712e+18
14170.0	1.9211986487214075e+18
14171.0	1.9207341144539133e+18
14172.0	1.920281064190771e+18
14173.0	1.919579836959949e+18
14174.0	1.9193540693196792e+18
14175.0	1.9188974941634555e+18
14176.0	1.9184322065989624e+18
14177.0	1.9179735829446656e+18
14178.0	1.9175090268667904e+18
14179.0	1.9169997980958717e+18
14180.0	1.9165882496319483e+18
14181.0	1.9161279985876987e+18
14182.0	1.9156669657251835e+18
14183.0	1.91520731866071e+18
14184.0	1.914743062895001e+18
14185.0	1.9142868920696832e+18
14186.0	1.913695627745689e+18
14187.0	1.9133459586875387e+18
14188.0	1.9129050752614397e+18
14189.0	1.9124437018214397e+18
14190.0	1.911989896583577e+18
14191.0	1.9115310162378747e+18
14192.0	1.9110639720988664e+18
14193.0	1.9105959649476603e+18
14194.0	1.910154784564838e+18
14195.0	1.9096984124129277e+18
14196.0	1.9092398994882555e+18
14197.0	1.9087801937035261e+18
14198.0	1.9083190366896125e+18
14199.0	1.9078519472521216e+18
14200.0	1.9073409115750392e+18
14201.0	1.9069501819584502e+18
14202.0	1.906491746208972e+18
14203.0	1.9059780916084733e+18
14204.0	1.9055757085376507e+18
14205.0	1.9051192139120635e+18
14206.0	1.904545111002317e+18
14207.0	1.9042081641070587e+18
14208.0	1.9037514815766525e+18
14209.0	1.9031569826054141e+18
14210.0	1.9027600655515638e+18
14211.0	1.90237547471831e+18
14212.0	1.9019256171593725e+18
14213.0	1.9014656530055163e+18
14214.0	1.9010140640378877e+18
14215.0	1.900542916191846e+18
14216.0	1.9001019438465021e+18
14217.0	1.8996479137939453e+18
14218.0	1.8991808243564541e+18
14219.0	1.8987338541563896e+18
14220.0	1.8982760525856768e+18
14221.0	1.8978189623689216e+18
14222.0	1.8973374092935165e+18
14223.0	1.8969107277807616e+18
14224.0	1.8964579962847232e+18
14225.0	1.895818073001165e+18
14226.0	1.8955495368818683e+18
14227.0	1.8950943575900155e+18
14228.0	1.8942098107531261e+18
14229.0	1.8941333334917112e+18
14230.0	1.8937331717242877e+18
14231.0	1.893260643113369e+18
14232.0	1.8928270795866107e+18
14233.0	1.8923650048589821e+18
14234.0	1.891920588151193e+18
14235.0	1.891464660595507e+18
14236.0	1.8910108083814397e+18
14237.0	1.8905593385320445e+18
14238.0	1.8901073217454075e+18
14239.0	1.8896494178336763e+18
14240.0	1.8879168313819144e+18
14241.0	1.8887505818419197e+18
14242.0	1.888299856900915e+18
14243.0	1.88769974091776e+18
14244.0	1.8873964960940027e+18
14245.0	1.8869243080605693e+18
14246.0	1.8864590758608893e+18
14247.0	1.8860352867401725e+18
14248.0	1.885577404638822e+18
14249.0	1.885134192535142e+18
14250.0	1.8846857358737403e+18
14251.0	1.8842356316897277e+18
14252.0	1.883785790908006e+18
14253.0	1.8833351129432061e+18
14254.0	1.8828827471904763e+18
14255.0	1.8824070476857336e+18
14256.0	1.8818430664704e+18
14257.0	1.881529074162073e+18
14258.0	1.8810844527722493e+18
14259.0	1.8806147897098237e+18
14260.0	1.8801787213447165e+18
14261.0	1.8797124942561277e+18
14262.0	1.8792882823495677e+18
14263.0	1.878627036902195e+18
14264.0	1.8783546906771456e+18
14265.0	1.877929799293337e+18
14266.0	1.8774901104050173e+18
14267.0	1.8770413584646144e+18
14268.0	1.8765894104645627e+18
14269.0	1.876130233162137e+18
14270.0	1.8756916045938688e+18
14271.0	1.875232898731212e+18
14272.0	1.874794536920678e+18
14273.0	1.874346561765376e+18
14274.0	1.8735846983204867e+18
14275.0	1.873424073254502e+18
14276.0	1.8729461222473725e+18
14277.0	1.8725246634819581e+18
14278.0	1.872108449274265e+18
14279.0	1.8716604959293437e+18
14280.0	1.871206360180326e+18
14281.0	1.8707669548269568e+18
14282.0	1.8703203453370365e+18
14283.0	1.8698735915630587e+18
14284.0	1.8694269451632637e+18
14285.0	1.8689804111708155e+18
14286.0	1.8685315602448381e+18
14287.0	1.8680856637865981e+18
14288.0	1.8676400693182461e+18
14289.0	1.866373142885168e+18
14290.0	1.8667370088235005e+18
14291.0	1.866302064531865e+18
14292.0	1.8658562267938816e+18
14293.0	1.8654110920212475e+18
14294.0	1.8648360713977856e+18
14295.0	1.864505976317542e+18
14296.0	1.863409608740045e+18
14297.0	1.8636325812961275e+18
14298.0	1.8630200518508544e+18
14299.0	1.8627251704692733e+18
14300.0	1.862287999841075e+18
14301.0	1.8618380013535232e+18
14302.0	1.861404662641459e+18
14303.0	1.8609289832693755e+18
14304.0	1.86050520589271e+18
14305.0	1.8600697062752253e+18
14306.0	1.8595101425008635e+18
14307.0	1.8591622451167227e+18
14308.0	1.858745274256588e+18
14309.0	1.85829627569111e+18
14310.0	1.8573157229133816e+18
14311.0	1.857286559078809e+18
14312.0	1.8569299962626045e+18
14313.0	1.8564717551288315e+18
14314.0	1.8560840470888443e+18
14315.0	1.8556439505141755e+18
14316.0	1.8551527220183035e+18
14317.0	1.8546661122899963e+18
14318.0	1.8543171344531453e+18
14319.0	1.8538757040898045e+18
14320.0	1.8534337972535293e+18
14321.0	1.8529885970497533e+18
14322.0	1.8525050122534907e+18
14323.0	1.8520953344491515e+18
14324.0	1.8516601569542141e+18
14325.0	1.8512100980686845e+18
14326.0	1.8507793262706683e+18
14327.0	1.8503293361717243e+18
14328.0	1.8498890768580603e+18
14329.0	1.8494565535186944e+18
14330.0	1.8490147825778688e+18
14331.0	1.8485708188549115e+18
14332.0	1.8481328445980672e+18
14333.0	1.8476938016325627e+18
14334.0	1.8472541010001917e+18
14335.0	1.846783604110131e+18
14336.0	1.8463339780767744e+18
14337.0	1.845930524619571e+18
14338.0	1.8454913222705147e+18
14339.0	1.845042692803788e+18
14340.0	1.844615291548467e+18
14341.0	1.8441723462025213e+18
14342.0	1.8437318738182144e+18
14343.0	1.8432712285093883e+18
14344.0	1.8428408677531643e+18
14345.0	1.842418380544409e+18
14346.0	1.841979285569536e+18
14347.0	1.841526560784384e+18
14348.0	1.8411002819248123e+18
14349.0	1.840666169783091e+18
14350.0	1.840213179917926e+18
14351.0	1.8397690266124283e+18
14352.0	1.839342715876147e+18
14353.0	1.8389120715849725e+18
14354.0	1.8384722853887997e+18
14355.0	1.8380342960324603e+18
14356.0	1.8375984306716672e+18
14357.0	1.8371639141990397e+18
14358.0	1.8367266965946365e+18
14359.0	1.8362732252233725e+18
14360.0	1.8358510282604544e+18
14361.0	1.8354155118657533e+18
14362.0	1.834978134877798e+18
14363.0	1.834542090000793e+18
14364.0	1.8340500847198203e+18
14365.0	1.8336632776163323e+18
14366.0	1.83322339746775e+18
14367.0	1.8327958586392576e+18
14368.0	1.832359619146547e+18
14369.0	1.8319255875354621e+18
14370.0	1.8314897238523896e+18
14371.0	1.8310515801456637e+18
14372.0	1.8306083630088184e+18
14373.0	1.8301782572662781e+18
14374.0	1.8297404205826043e+18
14375.0	1.82930571788288e+18
14376.0	1.8288715218550781e+18
14377.0	1.8284377150586877e+18
14378.0	1.828000963860889e+18
14379.0	1.827568948871168e+18
14380.0	1.8271339039162365e+18
14381.0	1.8266874957529088e+18
14382.0	1.8262634046423037e+18
14383.0	1.8257932600737784e+18
14384.0	1.8253734656081915e+18
14385.0	1.8249638431686653e+18
14386.0	1.8245117525622781e+18
14387.0	1.8240936274296827e+18
14388.0	1.8236527154823163e+18
14389.0	1.8232232942501885e+18
14390.0	1.8227884640436221e+18
14391.0	1.822355586704998e+18
14392.0	1.8219013184159741e+18
14393.0	1.821491640611635e+18
14394.0	1.821021595028684e+18
14395.0	1.8205868000542715e+18
14396.0	1.8201921328250877e+18
14397.0	1.8197612335202304e+18
14398.0	1.8193118323015675e+18
14399.0	1.818893997414809e+18
14400.0	1.8184293557731325e+18
14401.0	1.8180267445321723e+18
14402.0	1.8175968149503997e+18
14403.0	1.8096287849119606e+18
14404.0	1.797464504716489e+18
14405.0	1.8151679153143752e+18
14406.0	1.8158728016560123e+18
14407.0	1.8036605855989824e+18
14408.0	1.8149801782673403e+18
14409.0	1.8145621420539907e+18
14410.0	1.814141689921536e+18
14411.0	1.8137178001375227e+18
14412.0	1.8132841476915197e+18
14413.0	1.8128566625501181e+18
14414.0	1.812426226296422e+18
14415.0	1.8119971724853243e+18
14416.0	1.811562320468377e+18
14417.0	1.811105847653171e+18
14418.0	1.8106499301638141e+18
14419.0	1.8102769072209915e+18
14420.0	1.8098425467764728e+18
14421.0	1.8094181956190205e+18
14422.0	1.808983835174502e+18
14423.0	1.8085515769151485e+18
14424.0	1.7661719903993587e+18
14425.0	1.8076963583295485e+18
14426.0	1.80727199039488e+18
14427.0	1.8068444113010688e+18
14428.0	1.8063796018872317e+18
14429.0	1.8059852467142653e+18
14430.0	1.8055593184985085e+18
14431.0	1.8050456387321853e+18
14432.0	1.8046610462212093e+18
14433.0	1.7953759426510787e+18
14434.0	1.8038319715713021e+18
14435.0	1.8033972940374013e+18
14436.0	1.8029910538846208e+18
14437.0	1.8025634999566333e+18
14438.0	1.801861447286784e+18
14439.0	1.8016446068031485e+18
14440.0	1.8012804321640443e+18
14441.0	1.800847670588211e+18
14442.0	1.8004170866950141e+18
14443.0	1.799954642868633e+18
14444.0	1.7995689816489981e+18
14445.0	1.799145826707046e+18
14446.0	1.7893918217601065e+18
14447.0	1.7982800384753661e+18
14448.0	1.7978675689422848e+18
14449.0	1.797441434366771e+18
14450.0	1.7970089714253821e+18
14451.0	1.796585412152524e+18
14452.0	1.7961570764062717e+18
14453.0	1.7955494073204733e+18
14454.0	1.7953086760812544e+18
14455.0	1.7948776979234813e+18
14456.0	1.7944205473087485e+18
14457.0	1.7939712903741435e+18
14458.0	1.7935830991503352e+18
14459.0	1.7931439018344448e+18
14460.0	1.792757999022899e+18
14461.0	1.792313283680665e+18
14462.0	1.7918085092605947e+18
14463.0	1.7914797781680125e+18
14464.0	1.791059616281395e+18
14465.0	1.7906154847862781e+18
14466.0	1.790200470149529e+18
14467.0	1.7896461022789632e+18
14468.0	1.789343916097536e+18
14469.0	1.7889148488646653e+18
14470.0	1.788480874296115e+18
14471.0	1.7880661868150781e+18
14472.0	1.7876502360096763e+18
14473.0	1.787238706000691e+18
14474.0	1.7868171046289405e+18
14475.0	1.7863848816017403e+18
14476.0	1.7853712089219075e+18
14477.0	1.785544593060659e+18
14478.0	1.7851177219653632e+18
14479.0	1.7846900640186365e+18
14480.0	1.7842612668989437e+18
14481.0	1.7838558471520256e+18
14482.0	1.78343008838615e+18
14483.0	1.782999068285337e+18
14484.0	1.7825840016392187e+18
14485.0	1.782122997297971e+18
14486.0	1.7814573612531712e+18
14487.0	1.7813222727876608e+18
14488.0	1.7808745207693307e+18
14489.0	1.7804698257981437e+18
14490.0	1.7800429949681667e+18
14491.0	1.7796349260988416e+18
14492.0	1.7792147608567803e+18
14493.0	1.7787847943651325e+18
14494.0	1.7783525260394493e+18
14495.0	1.777951911287193e+18
14496.0	1.7774008267177984e+18
14497.0	1.7771086766669821e+18
14498.0	1.7766864478273533e+18
14499.0	1.776269737014067e+18
14500.0	1.775849278170726e+18
14501.0	1.7751471600697341e+18
14502.0	1.7745324814630912e+18
14503.0	1.7745591874355197e+18
14504.0	1.7741626394804221e+18
14505.0	1.7734870662905846e+18
14506.0	1.7727138044051453e+18
14507.0	1.7726752772063227e+18
14508.0	1.7724901876039677e+18
14509.0	1.7720701532241917e+18
14510.0	1.7716494980874237e+18
14511.0	1.7712329449799675e+18
14512.0	1.770796380009267e+18
14513.0	1.7703947770789885e+18
14514.0	1.769882169376768e+18
14515.0	1.7695491651272704e+18
14516.0	1.767155990895003e+18
14517.0	1.7687196676915197e+18
14518.0	1.7683008244940795e+18
14519.0	1.7678814259707904e+18
14520.0	1.76746413466583e+18
14521.0	1.7670393875660797e+18
14522.0	1.7666253661405181e+18
14523.0	1.7655868849913846e+18
14524.0	1.765126256459775e+18
14525.0	1.765369390196326e+18
14526.0	1.7649545080995837e+18
14527.0	1.764485606722764e+18
14528.0	1.763981451381965e+18
14529.0	1.7636946163531776e+18
14530.0	1.763267879475609e+18
14531.0	1.7628679861436413e+18
14532.0	1.7614009763102715e+18
14533.0	1.7620353597571072e+18
14534.0	1.7616198669697021e+18
14535.0	1.7611901789798397e+18
14536.0	1.760781719201382e+18
14537.0	1.7603545075286013e+18
14538.0	1.7599509802516477e+18
14539.0	1.7595361283538941e+18
14540.0	1.7591211724374016e+18
14541.0	1.7586807705174016e+18
14542.0	1.7582850580676603e+18
14543.0	1.7574625164656635e+18
14544.0	1.757455263675187e+18
14545.0	1.757027568818585e+18
14546.0	1.717626582387897e+18
14547.0	1.721223984919323e+18
14548.0	1.7557804327895037e+18
14549.0	1.755262208075366e+18
14550.0	1.7549554870124536e+18
14551.0	1.754549755209318e+18
14552.0	1.754124524925747e+18
14553.0	1.7537030326059003e+18
14554.0	1.753304286835507e+18
14555.0	1.7528859788312568e+18
14556.0	1.7524531501465595e+18
14557.0	1.752055885804339e+18
14558.0	1.7516411396030461e+18
14559.0	1.7497216633536463e+18
14560.0	1.7507692914409464e+18
14561.0	1.750391844346265e+18
14562.0	1.7499585308000253e+18
14563.0	1.7495690208870397e+18
14564.0	1.749146391071948e+18
14565.0	1.7487432630927357e+18
14566.0	1.748329557078835e+18
14567.0	1.7479138243772408e+18
14568.0	1.747462904820531e+18
14569.0	1.7470882360328187e+18
14570.0	1.7462454694969344e+18
14571.0	1.7462582705127421e+18
14572.0	1.7458010947321856e+18
14573.0	1.7453868703023107e+18
14574.0	1.7449947012005885e+18
14575.0	1.7446064915218427e+18
14576.0	1.7441919818792957e+18
14577.0	1.7437749506211835e+18
14578.0	1.7433692355952635e+18
14579.0	1.7429576686764024e+18
14580.0	1.7425466218512381e+18
14581.0	1.742102525588275e+18
14582.0	1.741721748216217e+18
14583.0	1.741309709857587e+18
14584.0	1.7408847698198525e+18
14585.0	1.7404850358714365e+18
14586.0	1.740068981047296e+18
14587.0	1.7396443882979323e+18
14588.0	1.7392333934821376e+18
14589.0	1.7388428584812544e+18
14590.0	1.7384491542642685e+18
14591.0	1.7380508732227581e+18
14592.0	1.7376536491458557e+18
14593.0	1.7371548759359485e+18
14594.0	1.7368709601427453e+18
14595.0	1.7364720113680381e+18
14596.0	1.735996615530905e+18
14597.0	1.7356454751109112e+18
14598.0	1.7352946282921984e+18
14599.0	1.7349075745636347e+18
14600.0	1.734512848614195e+18
14601.0	1.7341198087749632e+18
14602.0	1.7336997962055677e+18
14603.0	1.7333294978826235e+18
14604.0	1.732898628776755e+18
14605.0	1.7325346621751293e+18
14606.0	1.7320870863175675e+18
14607.0	1.7317607644332024e+18
14608.0	1.731362406216499e+18
14609.0	1.730907247057305e+18
14610.0	1.730558207144755e+18
14611.0	1.7301882846314493e+18
14612.0	1.7297986237235197e+18
14613.0	1.7294084477550587e+18
14614.0	1.729012599409868e+18
14615.0	1.728614254614937e+18
14616.0	1.7282310378356733e+18
14617.0	1.7278380298731523e+18
14618.0	1.7274197285797888e+18
14619.0	1.7270307639263224e+18
14620.0	1.7265341784653821e+18
14621.0	1.7262705261936635e+18
14622.0	1.725875139221913e+18
14623.0	1.7254861393362944e+18
14624.0	1.725037077017395e+18
14625.0	1.724698553063833e+18
14626.0	1.7242900949630976e+18
14627.0	1.7238815093555197e+18
14628.0	1.723526508498124e+18
14629.0	1.7231346078318587e+18
14630.0	1.7227416770445307e+18
14631.0	1.722343239974912e+18
14632.0	1.7179756004900887e+18
14633.0	1.721179290415921e+18
14634.0	1.7211634275581947e+18
14635.0	1.720556471504075e+18
14636.0	1.7195387353825275e+18
14637.0	1.7200006691815421e+18
14638.0	1.7196034417491965e+18
14639.0	1.719207611858944e+18
14640.0	1.7188206638268413e+18
14641.0	1.7038658896920458e+18
14642.0	1.7180371711950848e+18
14643.0	1.717650479854387e+18
14644.0	1.7172471421599741e+18
14645.0	1.7168427592450048e+18
14646.0	1.7164551317356541e+18
14647.0	1.7160664506171387e+18
14648.0	1.715690815461785e+18
