# Flux units: erg / (cm m2 s)
# Wavelength units: Angstrom
wave	flux
14000.0	1.9108912540155904e+18
14001.0	1.9104373799911421e+18
14002.0	1.9100387885711355e+18
14003.0	1.9096104779907064e+18
14004.0	1.9091821556662275e+18
14005.0	1.9087537259675643e+18
14006.0	1.9083225565495293e+18
14007.0	1.907893551392358e+18
14008.0	1.9074295674175488e+18
14009.0	1.9070409869623293e+18
14010.0	1.9066078529323005e+18
14011.0	1.9059525449416704e+18
14012.0	1.9057577144877056e+18
14013.0	1.9053302863888381e+18
14014.0	1.9049005698777083e+18
14015.0	1.9044746030743547e+18
14016.0	1.904048377901875e+18
14017.0	1.903621312190873e+18
14018.0	1.9031940367646723e+18
14019.0	1.9027675012136955e+18
14020.0	1.9023404640239613e+18
14021.0	1.9019135711182845e+18
14022.0	1.9014854165659645e+18
14023.0	1.9010470681772027e+18
14024.0	1.9006249131573243e+18
14025.0	1.9002083298508797e+18
14026.0	1.8997819134181373e+18
14027.0	1.8993567804424187e+18
14028.0	1.8989309679894528e+18
14029.0	1.8985048854233088e+18
14030.0	1.897507458121728e+18
14031.0	1.8976417949679613e+18
14032.0	1.8972281208307712e+18
14033.0	1.896780630537011e+18
14034.0	1.8963775596003325e+18
14035.0	1.8959533124616187e+18
14036.0	1.8955202035974144e+18
14037.0	1.895090550839705e+18
14038.0	1.894666615757209e+18
14039.0	1.8942402966323192e+18
14040.0	1.8938129540972541e+18
14041.0	1.893391263806259e+18
14042.0	1.892964387677798e+18
14043.0	1.8925291330076672e+18
14044.0	1.8921163178639355e+18
14045.0	1.8916952617517053e+18
14046.0	1.891270932404633e+18
14047.0	1.8908447055544317e+18
14048.0	1.890424177924505e+18
14049.0	1.890002088335769e+18
14050.0	1.88957873710039e+18
14051.0	1.8891519851233277e+18
14052.0	1.8887323164868605e+18
14053.0	1.8883091934216187e+18
14054.0	1.8878760459698168e+18
14055.0	1.8874509331267581e+18
14056.0	1.8870286556332027e+18
14057.0	1.8866060476284925e+18
14058.0	1.8861835453202432e+18
14059.0	1.8857611537416187e+18
14060.0	1.8853388645040125e+18
14061.0	1.8849141845131261e+18
14062.0	1.8844946484166653e+18
14063.0	1.8840664720539645e+18
14064.0	1.883561771453645e+18
14065.0	1.8832259217883133e+18
14066.0	1.8828074544005115e+18
14067.0	1.8823735033200637e+18
14068.0	1.8819646576656384e+18
14069.0	1.8815417527042043e+18
14070.0	1.881121921328742e+18
14071.0	1.8807000884314112e+18
14072.0	1.8802802084020221e+18
14073.0	1.8798566239633403e+18
14074.0	1.8794266792820733e+18
14075.0	1.878998632103936e+18
14076.0	1.8785707912855547e+18
14077.0	1.8780285801857021e+18
14078.0	1.877734884953292e+18
14079.0	1.877322037932851e+18
14080.0	1.8769045402681341e+18
14081.0	1.8764845780303864e+18
14082.0	1.876059357813145e+18
14083.0	1.8756443935080443e+18
14084.0	1.875225300330086e+18
14085.0	1.8746351584018427e+18
14086.0	1.874376005779456e+18
14087.0	1.873967096371609e+18
14088.0	1.8735419482963965e+18
14089.0	1.873117212940697e+18
14090.0	1.8727075233923064e+18
14091.0	1.8722909870620672e+18
14092.0	1.871872251238809e+18
14093.0	1.8714536144011267e+18
14094.0	1.8710350782267387e+18
14095.0	1.8706166611705853e+18
14096.0	1.8701623761043453e+18
14097.0	1.8697564345860093e+18
14098.0	1.8693373430857728e+18
14099.0	1.8689321045327872e+18
14100.0	1.8685097716744184e+18
14101.0	1.8680965287116797e+18
14102.0	1.867678703891251e+18
14103.0	1.8672558945599483e+18
14104.0	1.866843827680051e+18
14105.0	1.8664257025474555e+18
14106.0	1.866009186349875e+18
14107.0	1.8655897240731645e+18
14108.0	1.865170441312665e+18
14109.0	1.8647561346744317e+18
14110.0	1.8643347178520576e+18
14111.0	1.8639118632222715e+18
14112.0	1.8635049536585725e+18
14113.0	1.8630851055058944e+18
14114.0	1.8626697066708987e+18
14115.0	1.8622583729553405e+18
14116.0	1.8618007072800763e+18
14117.0	1.8604895577833472e+18
14118.0	1.8610106564345853e+18
14119.0	1.8605778864701435e+18
14120.0	1.8601652072218624e+18
14121.0	1.859746986459136e+18
14122.0	1.8593138272632827e+18
14123.0	1.8588971214831613e+18
14124.0	1.8584775333773307e+18
14125.0	1.8579098360086525e+18
14126.0	1.8576695560765437e+18
14127.0	1.8572606617681915e+18
14128.0	1.8568452931321853e+18
14129.0	1.8564263828258808e+18
14130.0	1.8560080077127677e+18
14131.0	1.8555752562032637e+18
14132.0	1.855151604655718e+18
14133.0	1.8545322452058107e+18
14134.0	1.8543251170525181e+18
14135.0	1.8539020845842432e+18
14136.0	1.853442338534195e+18
14137.0	1.8530818028732413e+18
14138.0	1.8526567000965115e+18
14139.0	1.8522556273262587e+18
14140.0	1.851831802973388e+18
14141.0	1.8514263211507707e+18
14142.0	1.8509306030718976e+18
14143.0	1.8505918593368061e+18
14144.0	1.8501892296409088e+18
14145.0	1.8497762416918523e+18
14146.0	1.8493614317371387e+18
14147.0	1.8489493011038203e+18
14148.0	1.8485294797946877e+18
14149.0	1.8481078012477437e+18
14150.0	1.8477012255506432e+18
14151.0	1.8472793758760955e+18
14152.0	1.8468766572609533e+18
14153.0	1.8464644158980093e+18
14154.0	1.8460423783186427e+18
14155.0	1.8454593130201088e+18
14156.0	1.8452113591894008e+18
14157.0	1.8448165627756541e+18
14158.0	1.844402606781235e+18
14159.0	1.8439933903503355e+18
14160.0	1.843580590306099e+18
14161.0	1.8431469462487035e+18
14162.0	1.842718269924966e+18
14163.0	1.8423385058967547e+18
14164.0	1.841891894729113e+18
14165.0	1.8414082713452541e+18
14166.0	1.8411037061545981e+18
14167.0	1.840688800569753e+18
14168.0	1.840278208407142e+18
14169.0	1.8398734614265853e+18
14170.0	1.8394589282959355e+18
14171.0	1.8390510238433277e+18
14172.0	1.838642760358297e+18
14173.0	1.838181598311219e+18
14174.0	1.8378201348702203e+18
14175.0	1.8374130172690432e+18
14176.0	1.8370016818757627e+18
14177.0	1.836593094590464e+18
14178.0	1.8361828430053376e+18
14179.0	1.835764154158284e+18
14180.0	1.8353577261006843e+18
14181.0	1.8349449965207547e+18
14182.0	1.8345355871518715e+18
14183.0	1.834126922691379e+18
14184.0	1.8337160084062203e+18
14185.0	1.8333091877617661e+18
14186.0	1.8327218442731515e+18
14187.0	1.8324825273532413e+18
14188.0	1.83208313398231e+18
14189.0	1.8316725099429885e+18
14190.0	1.831265499715993e+18
14191.0	1.8308566490284032e+18
14192.0	1.8304474711851003e+18
14193.0	1.8300133422661627e+18
14194.0	1.8296330145234936e+18
14195.0	1.8292273280188413e+18
14196.0	1.8288195913383933e+18
14197.0	1.8284120928944125e+18
14198.0	1.8280027741224955e+18
14199.0	1.8275955390808061e+18
14200.0	1.8270842282573824e+18
14201.0	1.8267798912368635e+18
14202.0	1.8263762481971197e+18
14203.0	1.8259573160804347e+18
14204.0	1.8255613771382781e+18
14205.0	1.825154819896115e+18
14206.0	1.824700378801766e+18
14207.0	1.8243428110303227e+18
14208.0	1.8239365977210877e+18
14209.0	1.8234773868642296e+18
14210.0	1.823089074844467e+18
14211.0	1.8227161978634235e+18
14212.0	1.8223118652801021e+18
14213.0	1.8219036370272253e+18
14214.0	1.8215003966406653e+18
14215.0	1.8210902272638976e+18
14216.0	1.8206848461045755e+18
14217.0	1.820273019138867e+18
14218.0	1.8198630057902077e+18
14219.0	1.819462427947827e+18
14220.0	1.8190573806551035e+18
14221.0	1.8186489661751293e+18
14222.0	1.8182228903198717e+18
14223.0	1.8178416616407037e+18
14224.0	1.8174379196153853e+18
14225.0	1.816724914778931e+18
14226.0	1.8166284541755387e+18
14227.0	1.8162244974018555e+18
14228.0	1.8150801352425472e+18
14229.0	1.8152931589095416e+18
14230.0	1.8150119895465981e+18
14231.0	1.8145862744014845e+18
14232.0	1.8142041212977147e+18
14233.0	1.8137976177426424e+18
14234.0	1.813396751332147e+18
14235.0	1.8129922375548925e+18
14236.0	1.8125895021625341e+18
14237.0	1.8121858725445627e+18
14238.0	1.8117829878349821e+18
14239.0	1.811376440659148e+18
14240.0	1.8103985068048384e+18
14241.0	1.81057147151319e+18
14242.0	1.8101701789614075e+18
14243.0	1.809708094167449e+18
14244.0	1.809365859093708e+18
14245.0	1.8089549766852603e+18
14246.0	1.8085487885418496e+18
14247.0	1.8081566194401277e+18
14248.0	1.8077506091352061e+18
14249.0	1.8073534823661563e+18
14250.0	1.8069497638289405e+18
14251.0	1.8064970759536635e+18
14252.0	1.8060952649859064e+18
14253.0	1.8056933248335864e+18
14254.0	1.805291072625049e+18
14255.0	1.8048783027798016e+18
14256.0	1.8041856369623043e+18
14257.0	1.8040699798683643e+18
14258.0	1.8036757471690747e+18
14259.0	1.803266970301235e+18
14260.0	1.8028638339334141e+18
14261.0	1.8024647391969277e+18
14262.0	1.8020815140290552e+18
14263.0	1.8012357242388477e+18
14264.0	1.801208082097766e+18
14265.0	1.8008755325108221e+18
14266.0	1.8004795331706877e+18
14267.0	1.8000792086642685e+18
14268.0	1.7996791442046976e+18
14269.0	1.7992781301547003e+18
14270.0	1.7988791344037888e+18
14271.0	1.798477565027942e+18
14272.0	1.7980793074745344e+18
14273.0	1.7976793269010432e+18
14274.0	1.7966225887854595e+18
14275.0	1.796821774604697e+18
14276.0	1.7964684867010555e+18
14277.0	1.7960725477588987e+18
14278.0	1.7956829573152765e+18
14279.0	1.7952836142759933e+18
14280.0	1.7948820667105277e+18
14281.0	1.7944861244129275e+18
14282.0	1.7940874944053243e+18
14283.0	1.793688840909619e+18
14284.0	1.793290284721766e+18
14285.0	1.7928917151121405e+18
14286.0	1.792492046594867e+18
14287.0	1.7920952318820347e+18
14288.0	1.791697039759769e+18
14289.0	1.790929302611557e+18
14290.0	1.79089880163287e+18
14291.0	1.7905028626907133e+18
14292.0	1.7901055111069693e+18
14293.0	1.7897070186725376e+18
14294.0	1.7892561679024128e+18
14295.0	1.788907475278233e+18
14296.0	1.7882159486337021e+18
14297.0	1.7881183102697472e+18
14298.0	1.7875833402163197e+18
14299.0	1.7873159583694843e+18
14300.0	1.7869242288308224e+18
14301.0	1.786527830192947e+18
14302.0	1.786132550595379e+18
14303.0	1.7857227150852093e+18
14304.0	1.7853336766119933e+18
14305.0	1.7849403129724925e+18
14306.0	1.78450747925463e+18
14307.0	1.7841300975910907e+18
14308.0	1.7837427720716285e+18
14309.0	1.783343388767027e+18
14310.0	1.7828251992850427e+18
14311.0	1.7823978148069376e+18
14312.0	1.7821267335839741e+18
14313.0	1.7817291924176893e+18
14314.0	1.781363323279769e+18
14315.0	1.7809732530077693e+18
14316.0	1.780557985035059e+18
14317.0	1.7801613733265403e+18
14318.0	1.7797881037586432e+18
14319.0	1.7793933308329981e+18
14320.0	1.7789981971972093e+18
14321.0	1.7786035719110656e+18
14322.0	1.778192437844377e+18
14323.0	1.777807399059456e+18
14324.0	1.7774187531730936e+18
14325.0	1.7770212438835197e+18
14326.0	1.7766308380671995e+18
14327.0	1.7762338555822077e+18
14328.0	1.7758398007214077e+18
14329.0	1.7754482540543997e+18
14330.0	1.775054239458918e+18
14331.0	1.7746578341101563e+18
14332.0	1.7742665307127805e+18
14333.0	1.7738728516616187e+18
14334.0	1.7734792514633725e+18
14335.0	1.773078027698176e+18
14336.0	1.7726555438448637e+18
14337.0	1.7722988266782715e+18
14338.0	1.7719050368974843e+18
14339.0	1.7715081282322427e+18
14340.0	1.771119623274496e+18
14341.0	1.7707241054404603e+18
14342.0	1.7703340133580797e+18
14343.0	1.769936363139891e+18
14344.0	1.76954450944983e+18
14345.0	1.7691562477617147e+18
14346.0	1.7687621526355963e+18
14347.0	1.7683527734657021e+18
14348.0	1.76797877576663e+18
14349.0	1.7675871200477181e+18
14350.0	1.767170234751385e+18
14351.0	1.766774336074547e+18
14352.0	1.7664078008811515e+18
14353.0	1.766018972123136e+18
14354.0	1.765624529708646e+18
14355.0	1.7652272217456637e+18
14356.0	1.7648384500301821e+18
14357.0	1.7644535488184317e+18
14358.0	1.7640622437433341e+18
14359.0	1.763664996178329e+18
14360.0	1.7632776337489917e+18
14361.0	1.7628811680022525e+18
14362.0	1.7624875443159035e+18
14363.0	1.762096586529177e+18
14364.0	1.7616216017338365e+18
14365.0	1.7613019034943485e+18
14366.0	1.7609106370068475e+18
14367.0	1.7605345035681787e+18
14368.0	1.7601439450791933e+18
14369.0	1.759753901650739e+18
14370.0	1.7593638313787387e+18
14371.0	1.7589738668031997e+18
14372.0	1.7585813269250048e+18
14373.0	1.75819346453463e+18
14374.0	1.7578041173606395e+18
14375.0	1.7574140085010427e+18
14376.0	1.7570249465397248e+18
14377.0	1.756635200067993e+18
14378.0	1.7562449804787707e+18
14379.0	1.7558567171129341e+18
14380.0	1.7554671786786813e+18
14381.0	1.755073620423475e+18
14382.0	1.7546886739132413e+18
14383.0	1.7542829119111168e+18
14384.0	1.753889543238451e+18
14385.0	1.7535089722261504e+18
14386.0	1.7531143872053243e+18
14387.0	1.7527316250886141e+18
14388.0	1.7523423651561472e+18
14389.0	1.751954789656166e+18
14390.0	1.7515657696378875e+18
14391.0	1.7511781035409405e+18
14392.0	1.7507876591370235e+18
14393.0	1.7504023653384187e+18
14394.0	1.7499996282683387e+18
14395.0	1.749613342936268e+18
14396.0	1.7492384057131003e+18
14397.0	1.7488513016528893e+18
14398.0	1.7484622245920763e+18
14399.0	1.748075956037222e+18
14400.0	1.747677094504038e+18
14401.0	1.7472991088607227e+18
14402.0	1.7469140113555453e+18
14403.0	1.7446865087758303e+18
14404.0	1.7412159017320438e+18
14405.0	1.7451663891628012e+18
14406.0	1.7453663433785336e+18
14407.0	1.7422943311101962e+18
14408.0	1.744572742474137e+18
14409.0	1.7441991306510333e+18
14410.0	1.7438135969382397e+18
14411.0	1.7434328682201088e+18
14412.0	1.7430463043862528e+18
14413.0	1.7426615558471677e+18
14414.0	1.742274399777587e+18
14415.0	1.7418888744534013e+18
14416.0	1.7414992605216763e+18
14417.0	1.7411011271196672e+18
14418.0	1.7407091425673213e+18
14419.0	1.740345511510016e+18
14420.0	1.7399585433452541e+18
14421.0	1.7395748115054587e+18
14422.0	1.7391879221936123e+18
14423.0	1.7388004775559163e+18
14424.0	1.7276067408510904e+18
14425.0	1.7380254054088696e+18
14426.0	1.7376387040018432e+18
14427.0	1.7372539521073152e+18
14428.0	1.736859229513318e+18
14429.0	1.736482619601715e+18
14430.0	1.7360996779687939e+18
14431.0	1.7355756147834877e+18
14432.0	1.7353223358644221e+18
14433.0	1.7329345857060854e+18
14434.0	1.7345549778812925e+18
14435.0	1.7341544319156224e+18
14436.0	1.7337933895827453e+18
14437.0	1.7334093742079997e+18
14438.0	1.7329604595286013e+18
14439.0	1.732627925041152e+18
14440.0	1.7322573045956605e+18
14441.0	1.731871133348659e+18
14442.0	1.7314854905839613e+18
14443.0	1.7310864814112765e+18
14444.0	1.7307214075133947e+18
14445.0	1.7303397879250941e+18
14446.0	1.727711024670311e+18
14447.0	1.7295671652515837e+18
14448.0	1.7291904043450368e+18
14449.0	1.7288074056695803e+18
14450.0	1.7284221387145213e+18
14451.0	1.7280410056654843e+18
14452.0	1.727657215105433e+18
14453.0	1.7272392929771515e+18
14454.0	1.7268931454566397e+18
14455.0	1.7265086049550333e+18
14456.0	1.7261190950420477e+18
14457.0	1.7257335697178616e+18
14458.0	1.725358654305075e+18
14459.0	1.72497654817751e+18
14460.0	1.724596027496857e+18
14461.0	1.7241939011174397e+18
14462.0	1.7236946950553597e+18
14463.0	1.723445001427353e+18
14464.0	1.7230698762993661e+18
14465.0	1.7226806381772797e+18
14466.0	1.7223079826554877e+18
14467.0	1.721896046637875e+18
14468.0	1.7215424299007997e+18
14469.0	1.7211460899831805e+18
14470.0	1.7207707702394875e+18
14471.0	1.720395150183628e+18
14472.0	1.7200164129210365e+18
14473.0	1.7196394976641021e+18
14474.0	1.7192583830700027e+18
14475.0	1.7188744046051323e+18
14476.0	1.718366118713753e+18
14477.0	1.7181157288312827e+18
14478.0	1.7177352651931643e+18
14479.0	1.7173531422883835e+18
14480.0	1.7169676337414141e+18
14481.0	1.7165944816140285e+18
14482.0	1.7162127764619261e+18
14483.0	1.7158295630381053e+18
14484.0	1.7154504768094205e+18
14485.0	1.7150577691590653e+18
14486.0	1.714573630714675e+18
14487.0	1.7143121796136957e+18
14488.0	1.713907110510592e+18
14489.0	1.7135401005219837e+18
14490.0	1.7131701461319677e+18
14491.0	1.7127945680191485e+18
14492.0	1.7124149734408187e+18
14493.0	1.712033347141632e+18
14494.0	1.7116475382824957e+18
14495.0	1.7112776342241277e+18
14496.0	1.7108439012474875e+18
14497.0	1.7105189785829376e+18
14498.0	1.7101398000795643e+18
14499.0	1.7097613731954685e+18
14500.0	1.7093823205212157e+18
14501.0	1.7089445945671675e+18
14502.0	1.7084763324022781e+18
14503.0	1.7082236490743803e+18
14504.0	1.7078551392026624e+18
14505.0	1.7074236090744824e+18
14506.0	1.7069777646256125e+18
14507.0	1.7066232486297597e+18
14508.0	1.706343704979046e+18
14509.0	1.7059654307676157e+18
14510.0	1.7055860056391675e+18
14511.0	1.705209004818432e+18
14512.0	1.7048244257292285e+18
14513.0	1.7044529630674936e+18
14514.0	1.7040549840158715e+18
14515.0	1.7036960656785403e+18
14516.0	1.7023983933194243e+18
14517.0	1.7029414902562813e+18
14518.0	1.7025638988775421e+18
14519.0	1.7021863527972861e+18
14520.0	1.7018088167833597e+18
14521.0	1.7014301566959613e+18
14522.0	1.7010517331673085e+18
14523.0	1.7005341795418107e+18
14524.0	1.7001479160201213e+18
14525.0	1.6999016298446843e+18
14526.0	1.6995267748298747e+18
14527.0	1.69913921610711e+18
14528.0	1.698713975757209e+18
14529.0	1.698391237486182e+18
14530.0	1.698011194956185e+18
14531.0	1.6976409704529915e+18
14532.0	1.697071679248793e+18
14533.0	1.6968878210940925e+18
14534.0	1.6965120450101243e+18
14535.0	1.6961307374780408e+18
14536.0	1.6957587815661563e+18
14537.0	1.695377324716851e+18
14538.0	1.6950059711070205e+18
14539.0	1.694629871222784e+18
14540.0	1.6942535918223357e+18
14541.0	1.6938689087143928e+18
14542.0	1.693501207504486e+18
14543.0	1.6930391143219195e+18
14544.0	1.692748933916262e+18
14545.0	1.6923698074222587e+18
14546.0	1.67911685368053e+18
14547.0	1.6801110362685348e+18
14548.0	1.6912400850616315e+18
14549.0	1.6908213072953341e+18
14550.0	1.6904916769439741e+18
14551.0	1.6901186657452032e+18
14552.0	1.6897420759662587e+18
14553.0	1.689364075223449e+18
14554.0	1.6889922652733435e+18
14555.0	1.6886165982412797e+18
14556.0	1.6882381596131323e+18
14557.0	1.6878662926204925e+18
14558.0	1.6874907749056507e+18
14559.0	1.686418318216395e+18
14560.0	1.68671862367191e+18
14561.0	1.6863627319443453e+18
14562.0	1.685977943139942e+18
14563.0	1.68561510228951e+18
14564.0	1.6852263104413693e+18
14565.0	1.684865746259148e+18
14566.0	1.6844908878888957e+18
14567.0	1.6841154540601341e+18
14568.0	1.683709155187097e+18
14569.0	1.683366275868262e+18
14570.0	1.6827840712409088e+18
14571.0	1.682615674968473e+18
14572.0	1.6822143455068152e+18
14573.0	1.6818454313041912e+18
14574.0	1.6814547469860861e+18
14575.0	1.6811148271681533e+18
14576.0	1.6807392540884984e+18
14577.0	1.6803672075796475e+18
14578.0	1.6799943272431616e+18
14579.0	1.6796212791345147e+18
14580.0	1.6792471035969533e+18
14581.0	1.6788683327799293e+18
14582.0	1.6784964540432381e+18
14583.0	1.6781242129186813e+18
14584.0	1.677741610185523e+18
14585.0	1.677375982639513e+18
14586.0	1.6770004867350525e+18
14587.0	1.6766252106121213e+18
14588.0	1.6762540063195139e+18
14589.0	1.6758932173225981e+18
14590.0	1.675533324229017e+18
14591.0	1.6751714749120507e+18
14592.0	1.674810818455142e+18
14593.0	1.6744025767804925e+18
14594.0	1.674084076434227e+18
14595.0	1.6737216483033085e+18
14596.0	1.673284380367257e+18
14597.0	1.6729188870389752e+18
14598.0	1.6726370029666296e+18
14599.0	1.6722842687111165e+18
14600.0	1.67192174830551e+18
14601.0	1.6715635664879613e+18
14602.0	1.671194685839769e+18
14603.0	1.670843463211417e+18
14604.0	1.6704601004703744e+18
14605.0	1.670103178621747e+18
14606.0	1.6697328517775357e+18
14607.0	1.6694013893541885e+18
14608.0	1.66904286192599e+18
14609.0	1.6686723505324032e+18
14610.0	1.6682858403856384e+18
14611.0	1.667947432194867e+18
14612.0	1.6675923826835453e+18
14613.0	1.6672329845178368e+18
14614.0	1.6668716217401336e+18
14615.0	1.666509488888217e+18
14616.0	1.666153083777843e+18
14617.0	1.6657929121824763e+18
14618.0	1.6654191661416443e+18
14619.0	1.6650251498684406e+18
14620.0	1.6645154664349693e+18
14621.0	1.6643524925587453e+18
14622.0	1.6639910526058493e+18
14623.0	1.663632097358643e+18
14624.0	1.6632479595102203e+18
14625.0	1.6629101418774525e+18
14626.0	1.6625477624004603e+18
14627.0	1.6621829368053757e+18
14628.0	1.6618303971655675e+18
14629.0	1.6614699302912e+18
14630.0	1.6611075323592704e+18
14631.0	1.6607478926016507e+18
14632.0	1.6595031842357248e+18
14633.0	1.6599187122552824e+18
14634.0	1.659662519133798e+18
14635.0	1.6590847973785587e+18
14636.0	1.6583469907836923e+18
14637.0	1.658584591394406e+18
14638.0	1.65821971211223e+18
14639.0	1.6578552572936187e+18
14640.0	1.6574996121911293e+18
14641.0	1.6537221028904932e+18
14642.0	1.656776613167104e+18
14643.0	1.6564165875335163e+18
14644.0	1.6560498409471997e+18
14645.0	1.6556832973651965e+18
14646.0	1.6553141331820541e+18
14647.0	1.654949351207731e+18
