# Flux units: erg / (cm m2 s)
# Wavelength units: Angstrom
wave	flux
14000.0	2.1337085906518008e+18
14001.0	2.1334277635440635e+18
14002.0	2.1330686606573565e+18
14003.0	2.132638850193817e+18
14004.0	2.1322031979036667e+18
14005.0	2.131774702773862e+18
14006.0	2.1313361144709115e+18
14007.0	2.130901228899532e+18
14008.0	2.13039344296919e+18
14009.0	2.1300414888542203e+18
14010.0	2.1295986492047357e+18
14011.0	2.1286821988139008e+18
14012.0	2.1287448684265467e+18
14013.0	2.1283145781346301e+18
14014.0	2.1278775098474493e+18
14015.0	2.1274486456188928e+18
14016.0	2.1270187026153467e+18
14017.0	2.1265869208289275e+18
14018.0	2.1261550216019963e+18
14019.0	2.125723399199129e+18
14020.0	2.125291000011161e+18
14021.0	2.124858315610521e+18
14022.0	2.1244113739317243e+18
14023.0	2.123955035334246e+18
14024.0	2.1235331621715963e+18
14025.0	2.1231297842118656e+18
14026.0	2.1227013679349755e+18
14027.0	2.1222718812717048e+18
14028.0	2.1218336218021888e+18
14029.0	2.1213965115719677e+18
14030.0	2.116470403864989e+18
14031.0	2.1204013307396086e+18
14032.0	2.1201031476019195e+18
14033.0	2.119621247238144e+18
14034.0	2.1192453923012605e+18
14035.0	2.1188267336531965e+18
14036.0	2.1183831725834237e+18
14037.0	2.1179692518211576e+18
14038.0	2.1175410284822528e+18
14039.0	2.1171078994853883e+18
14040.0	2.116676780399001e+18
14041.0	2.1162508756713472e+18
14042.0	2.115814785495859e+18
14043.0	2.1153622821699584e+18
14044.0	2.114956533589606e+18
14045.0	2.1145334524674043e+18
14046.0	2.1141026571812861e+18
14047.0	2.1136547776561147e+18
14048.0	2.1132448297385984e+18
14049.0	2.1128213207973888e+18
14050.0	2.112393402803814e+18
14051.0	2.1119578494992381e+18
14052.0	2.1115330571010045e+18
14053.0	2.1111088133177344e+18
14054.0	2.1106809842434045e+18
14055.0	2.110253054505779e+18
14056.0	2.1098252019433472e+18
14057.0	2.1093975221862397e+18
14058.0	2.108969881016729e+18
14059.0	2.1085347588866043e+18
14060.0	2.108114654042521e+18
14061.0	2.107682070305177e+18
14062.0	2.1072598884417533e+18
14063.0	2.1068168944418816e+18
14064.0	2.1056729550684163e+18
14065.0	2.1059712573243387e+18
14066.0	2.1055518235688957e+18
14067.0	2.1050766861008896e+18
14068.0	2.1046985830170621e+18
14069.0	2.104262999513497e+18
14070.0	2.1038418997805053e+18
14071.0	2.1034170587283448e+18
14072.0	2.1029932444418045e+18
14073.0	2.102566987392614e+18
14074.0	2.1021404333867005e+18
14075.0	2.1016956039593984e+18
14076.0	2.1012360206483448e+18
14077.0	2.099839535520154e+18
14078.0	2.100356887819059e+18
14079.0	2.1000002545385472e+18
14080.0	2.0995862347907064e+18
14081.0	2.0991614977572861e+18
14082.0	2.0987336703606781e+18
14083.0	2.098309394700697e+18
14084.0	2.0978806881779704e+18
14085.0	2.096746425902694e+18
14086.0	2.096944735951257e+18
14087.0	2.0966092855836667e+18
14088.0	2.0961634679783424e+18
14089.0	2.0957220107714555e+18
14090.0	2.0953231207170045e+18
14091.0	2.0949129060417533e+18
14092.0	2.0944896974127096e+18
14093.0	2.0940653563215867e+18
14094.0	2.093640169658777e+18
14095.0	2.0932111057813501e+18
14096.0	2.092600389953126e+18
14097.0	2.0922963851214845e+18
14098.0	2.0918521277972477e+18
14099.0	2.09151833669632e+18
14100.0	2.0910855465992187e+18
14101.0	2.090676709333401e+18
14102.0	2.0902536802205693e+18
14103.0	2.0898194170839037e+18
14104.0	2.0894054476677115e+18
14105.0	2.0889848764170237e+18
14106.0	2.0885622197583864e+18
14107.0	2.0881386151870461e+18
14108.0	2.087699134336204e+18
14109.0	2.0872883727237115e+18
14110.0	2.086864607091097e+18
14111.0	2.0864368115712e+18
14112.0	2.086015718549094e+18
14113.0	2.085574648895897e+18
14114.0	2.0851647093669888e+18
14115.0	2.08474075079639e+18
14116.0	2.084177059826892e+18
14117.0	2.0761950728224786e+18
14118.0	2.0834477777354747e+18
14119.0	2.0829273803718653e+18
14120.0	2.0825319850115067e+18
14121.0	2.0821844500152315e+18
14122.0	2.0817151543738365e+18
14123.0	2.0812787202654205e+18
14124.0	2.0808512535789565e+18
14125.0	2.0801394550243325e+18
14126.0	2.0800971764400125e+18
14127.0	2.0796965113561088e+18
14128.0	2.07928211579863e+18
14129.0	2.0788532901576707e+18
14130.0	2.078424679265075e+18
14131.0	2.0780196118396925e+18
14132.0	2.0775952472604672e+18
14133.0	2.0767223522000883e+18
14134.0	2.0767586513846267e+18
14135.0	2.076296048174694e+18
14136.0	2.0757784408621053e+18
14137.0	2.0754730435215352e+18
14138.0	2.074996052171161e+18
14139.0	2.0746589341483005e+18
14140.0	2.0742296169349115e+18
14141.0	2.0737159589789693e+18
14142.0	2.0728400154984443e+18
14143.0	2.0729664687308797e+18
14144.0	2.0725659546419197e+18
14145.0	2.0721503662243837e+18
14146.0	2.071715990680371e+18
14147.0	2.0713045244248061e+18
14148.0	2.070874952197734e+18
14149.0	2.0704572481732603e+18
14150.0	2.0700604955361277e+18
14151.0	2.0696106094559227e+18
14152.0	2.0692245053177853e+18
14153.0	2.06880634830848e+18
14154.0	2.0683656141996027e+18
14155.0	2.0677669125357565e+18
14156.0	2.0675249632706552e+18
14157.0	2.0671341933887483e+18
14158.0	2.0667125936947197e+18
14159.0	2.0662997902950397e+18
14160.0	2.065876217600409e+18
14161.0	2.065412913102848e+18
14162.0	2.06495441527767e+18
14163.0	2.06461590306816e+18
14164.0	2.0639752113881083e+18
14165.0	2.0637239641899003e+18
14166.0	2.0633743018426363e+18
14167.0	2.0629481085468667e+18
14168.0	2.0625315856384e+18
14169.0	2.0621220068196347e+18
14170.0	2.0617033515270144e+18
14171.0	2.0612945025171453e+18
14172.0	2.06088191386583e+18
14173.0	2.0604285163143165e+18
14174.0	2.060041472652083e+18
14175.0	2.0596292161896443e+18
14176.0	2.0592165134532605e+18
14177.0	2.0588022722461693e+18
14178.0	2.058386366739251e+18
14179.0	2.057964537197363e+18
14180.0	2.0575563240439805e+18
14181.0	2.0571408731996155e+18
14182.0	2.0567246959017981e+18
14183.0	2.056309506782003e+18
14184.0	2.0558881184808955e+18
14185.0	2.0554659433283581e+18
14186.0	2.0536196694278144e+18
14187.0	2.054595452443033e+18
14188.0	2.0542282528718845e+18
14189.0	2.0538066095570936e+18
14190.0	2.053394304440729e+18
14191.0	2.0529734026788861e+18
14192.0	2.0525652029472768e+18
14193.0	2.051914839202201e+18
14194.0	2.0517362658705403e+18
14195.0	2.0513356309856253e+18
14196.0	2.0509225138520064e+18
14197.0	2.0504405933555707e+18
14198.0	2.0499510862020603e+18
14199.0	2.0495377257988093e+18
14200.0	2.0482397145399296e+18
14201.0	2.048660614624051e+18
14202.0	2.048297354343219e+18
14203.0	2.0478788013916155e+18
14204.0	2.0474686974459901e+18
14205.0	2.0470571607261181e+18
14206.0	2.0465388655476733e+18
14207.0	2.0462323089014781e+18
14208.0	2.0458201665241088e+18
14209.0	2.0452915349028856e+18
14210.0	2.0449146615889915e+18
14211.0	2.044577033538764e+18
14212.0	2.044168224794214e+18
14213.0	2.0437480796848125e+18
14214.0	2.0433428126105597e+18
14215.0	2.042805985319321e+18
14216.0	2.042283482415104e+18
14217.0	2.0418711336779773e+18
14218.0	2.041447683457024e+18
14219.0	2.041045778536857e+18
14220.0	2.0406252894945277e+18
14221.0	2.0402095819587581e+18
14222.0	2.039727953385881e+18
14223.0	2.0393929442590715e+18
14224.0	2.038976891112652e+18
14225.0	2.0359842652749842e+18
14226.0	2.038124702492262e+18
14227.0	2.0377389724860408e+18
14228.0	2.0312860794028052e+18
14229.0	2.0358728075182031e+18
14230.0	2.0365090901458944e+18
14231.0	2.0360274431180797e+18
14232.0	2.0356910146387965e+18
14233.0	2.0352766996119547e+18
14234.0	2.0348693102198781e+18
14235.0	2.0343670507044864e+18
14236.0	2.0339053467533307e+18
14237.0	2.0334895234547707e+18
14238.0	2.0330784447528952e+18
14239.0	2.0326536271888381e+18
14240.0	2.0309950198710275e+18
14241.0	2.031817459132006e+18
14242.0	2.0314257983799293e+18
14243.0	2.030895192080384e+18
14244.0	2.0306169335644155e+18
14245.0	2.030194827198464e+18
14246.0	2.0297811983597563e+18
14247.0	2.0293814577004544e+18
14248.0	2.0289628762275835e+18
14249.0	2.0285632882409472e+18
14250.0	2.0281527732535293e+18
14251.0	2.027744526545715e+18
14252.0	2.0273338572079101e+18
14253.0	2.0269220788961275e+18
14254.0	2.0265077370257403e+18
14255.0	2.0260590840709117e+18
14256.0	2.0228743020675087e+18
14257.0	2.0250554340999163e+18
14258.0	2.0246541012828155e+18
14259.0	2.0241761049772027e+18
14260.0	2.0236988200255483e+18
14261.0	2.0233526540500992e+18
14262.0	2.0229663435522045e+18
14263.0	2.018488439170665e+18
14264.0	2.0212348962734072e+18
14265.0	2.0217379728392187e+18
14266.0	2.021351568388915e+18
14267.0	2.0209460915994621e+18
14268.0	2.0205354021289981e+18
14269.0	2.020121030059622e+18
14270.0	2.019719294589337e+18
14271.0	2.0193069575962624e+18
14272.0	2.0188904699199483e+18
14273.0	2.0184340071710715e+18
14274.0	2.0118168634654746e+18
14275.0	2.0169778639405059e+18
14276.0	2.0172329547988987e+18
14277.0	2.0168424818737147e+18
14278.0	2.0164504016912381e+18
14279.0	2.0160432975118333e+18
14280.0	2.0156308447559677e+18
14281.0	2.015229568981401e+18
14282.0	2.014822125902233e+18
14283.0	2.014330511530393e+18
14284.0	2.013863794547097e+18
14285.0	2.013453895283507e+18
14286.0	2.0130420381188093e+18
14287.0	2.0126383749464061e+18
14288.0	2.012228968932966e+18
14289.0	2.0110114480455662e+18
14290.0	2.011412485583667e+18
14291.0	2.011006686671667e+18
14292.0	2.010599857638604e+18
14293.0	2.010189706716774e+18
14294.0	2.0096648952676352e+18
14295.0	2.0093609625780221e+18
14296.0	2.0083105276624896e+18
14297.0	2.0085497657294843e+18
14298.0	2.0073047419518968e+18
14299.0	2.0077151445319677e+18
14300.0	2.0073306526842877e+18
14301.0	2.0069262479589373e+18
14302.0	2.0065197729251328e+18
14303.0	2.006080463201894e+18
14304.0	2.005686577790976e+18
14305.0	2.0052865770848256e+18
14306.0	2.0048214774251515e+18
14307.0	2.0044178209636344e+18
14308.0	2.0040250764034045e+18
14309.0	2.0035783444398077e+18
14310.0	2.0029910378610683e+18
14311.0	2.002227597357875e+18
14312.0	2.0020576408043515e+18
14313.0	2.0017498678099965e+18
14314.0	2.0014210595422205e+18
14315.0	2.0010610674630653e+18
14316.0	2.000625393362534e+18
14317.0	2.000171296201113e+18
14318.0	1.9998693398675453e+18
14319.0	1.9994721006911488e+18
14320.0	1.9990692981899261e+18
14321.0	1.9986637895237627e+18
14322.0	1.9982275131211773e+18
14323.0	1.997841905588633e+18
14324.0	1.997453274801766e+18
14325.0	1.9970409159983101e+18
14326.0	1.9966457102204925e+18
14327.0	1.9962350979252221e+18
14328.0	1.9958310958530555e+18
14329.0	1.995432061514547e+18
14330.0	1.9950274789507064e+18
14331.0	1.9946140866707453e+18
14332.0	1.994218308789862e+18
14333.0	1.9938137849462781e+18
14334.0	1.9934090480320512e+18
14335.0	1.9929921543471101e+18
14336.0	1.992317440150732e+18
14337.0	1.99219209085911e+18
14338.0	1.9917886726340603e+18
14339.0	1.9913718074703872e+18
14340.0	1.9909788901048317e+18
14341.0	1.9905609780428797e+18
14342.0	1.9901723875213312e+18
14343.0	1.9896482018623483e+18
14344.0	1.9892182991241216e+18
14345.0	1.9888174511685627e+18
14346.0	1.9884004433985533e+18
14347.0	1.987923702028697e+18
14348.0	1.9875922949701627e+18
14349.0	1.9871995302772733e+18
14350.0	1.9865691666513915e+18
14351.0	1.9861509341446136e+18
14352.0	1.9859843229679608e+18
14353.0	1.985588264907571e+18
14354.0	1.9851565317750784e+18
14355.0	1.984696584398438e+18
14356.0	1.9843126042558461e+18
14357.0	1.9839758989524987e+18
14358.0	1.9835734387064832e+18
14359.0	1.9831560735817725e+18
14360.0	1.9827469762691072e+18
14361.0	1.9823541947990016e+18
14362.0	1.981960052696678e+18
14363.0	1.9815538779750397e+18
14364.0	1.9804249357549568e+18
14365.0	1.980588605885644e+18
14366.0	1.9802245285543933e+18
14367.0	1.9799468303974392e+18
14368.0	1.979544423838515e+18
14369.0	1.9791424266436603e+18
14370.0	1.978740602254131e+18
14371.0	1.978339173806899e+18
14372.0	1.9779313867948027e+18
14373.0	1.9775301865177088e+18
14374.0	1.9771316068417536e+18
14375.0	1.976728336256204e+18
14376.0	1.976327174566707e+18
14377.0	1.975924355288268e+18
14378.0	1.975520408580915e+18
14379.0	1.9750973224255488e+18
14380.0	1.9745807888547837e+18
14381.0	1.974168013976371e+18
14382.0	1.9737751049994235e+18
14383.0	1.9733698396028925e+18
14384.0	1.9729544474787837e+18
14385.0	1.972569516068044e+18
14386.0	1.9721506997141501e+18
14387.0	1.97176486568919e+18
14388.0	1.9713612411043835e+18
14389.0	1.9709605726650363e+18
14390.0	1.9704715352735741e+18
14391.0	1.9700332640600061e+18
14392.0	1.969633499912601e+18
14393.0	1.9692330160226301e+18
14394.0	1.968796019877478e+18
14395.0	1.968407184408576e+18
14396.0	1.9680268784762875e+18
14397.0	1.9676269264240637e+18
14398.0	1.9672246389833725e+18
14399.0	1.9668225411252221e+18
14400.0	1.9664026392854525e+18
14401.0	1.966013365931212e+18
14402.0	1.965613390390886e+18
14403.0	1.9642325315616748e+18
14404.0	1.9609045946073068e+18
14405.0	1.9630717713514463e+18
14406.0	1.9640047338782715e+18
14407.0	1.9622082396553219e+18
14408.0	1.9631490237202427e+18
14409.0	1.9627952358555645e+18
14410.0	1.9623586775957496e+18
14411.0	1.9620085219983355e+18
14412.0	1.961608256212172e+18
14413.0	1.9612107855101947e+18
14414.0	1.9608077732937725e+18
14415.0	1.9604077759430656e+18
14416.0	1.959991429195366e+18
14417.0	1.9595434456514555e+18
14418.0	1.9591222167339005e+18
14419.0	1.958800647834828e+18
14420.0	1.9583581168861181e+18
14421.0	1.9578683027095547e+18
14422.0	1.9574547980222461e+18
14423.0	1.9569771473272827e+18
14424.0	1.9507888141631455e+18
14425.0	1.956218755088384e+18
14426.0	1.9558614624632824e+18
14427.0	1.9554678354214912e+18
14428.0	1.9550484821966845e+18
14429.0	1.954665681492377e+18
14430.0	1.9542598809026555e+18
14431.0	1.9526601616130053e+18
14432.0	1.953456237156761e+18
14433.0	1.9520058719993846e+18
14434.0	1.9526421412052987e+18
14435.0	1.9521183565217787e+18
14436.0	1.951860171944755e+18
14437.0	1.9514678669475835e+18
14438.0	1.950922484953907e+18
14439.0	1.9506510681866235e+18
14440.0	1.950269698578841e+18
14441.0	1.9498649281101824e+18
14442.0	1.949460592171417e+18
14443.0	1.9490262417932283e+18
14444.0	1.9486662597804027e+18
14445.0	1.9482678310993915e+18
14446.0	1.9462635846107144e+18
14447.0	1.9474510038171645e+18
14448.0	1.9470709294104573e+18
14449.0	1.94667185480663e+18
14450.0	1.9462663780171773e+18
14451.0	1.945867533261209e+18
14452.0	1.9454681147244547e+18
14453.0	1.9450523434352637e+18
14454.0	1.9446628268113917e+18
14455.0	1.9442576151019515e+18
14456.0	1.9438474557915133e+18
14457.0	1.9434498424832e+18
14458.0	1.9430410974920701e+18
14459.0	1.9426253647904765e+18
14460.0	1.94218717914071e+18
14461.0	1.9416354201272317e+18
14462.0	1.9409421922729984e+18
14463.0	1.9409192729182203e+18
14464.0	1.9406121726902264e+18
14465.0	1.9402246928203773e+18
14466.0	1.939856672843366e+18
14467.0	1.9394403395174392e+18
14468.0	1.939068064838451e+18
14469.0	1.938575425378713e+18
14470.0	1.938128591074099e+18
14471.0	1.9377505567768573e+18
14472.0	1.9373560925519864e+18
14473.0	1.9369619957481464e+18
14474.0	1.936568877056e+18
14475.0	1.936167693556121e+18
14476.0	1.9357030267486205e+18
14477.0	1.9353677961625597e+18
14478.0	1.9349735701741565e+18
14479.0	1.93457128776663e+18
14480.0	1.934160819755417e+18
14481.0	1.933781485223936e+18
14482.0	1.93337964405719e+18
14483.0	1.932974959152332e+18
14484.0	1.932576330822451e+18
14485.0	1.9321513320644605e+18
14486.0	1.9315189182627835e+18
14487.0	1.931384160308428e+18
14488.0	1.9308914889719803e+18
14489.0	1.930477214210457e+18
14490.0	1.930170771649331e+18
14491.0	1.9297968158932984e+18
14492.0	1.92939899790295e+18
14493.0	1.9289780911079421e+18
14494.0	1.9285795550527483e+18
14495.0	1.9282019603185661e+18
14496.0	1.9276833077854203e+18
14497.0	1.9274065441193981e+18
14498.0	1.9270096656531453e+18
14499.0	1.926611552383795e+18
14500.0	1.9262126354857984e+18
14501.0	1.9257776022749181e+18
14502.0	1.9251675223031805e+18
14503.0	1.9249783742922747e+18
14504.0	1.9246138003554304e+18
14505.0	1.9241884811526141e+18
14506.0	1.923757957657395e+18
14507.0	1.9232015278669821e+18
14508.0	1.9230257865293821e+18
14509.0	1.9226285003767805e+18
14510.0	1.9222275836346363e+18
14511.0	1.9218316077826045e+18
14512.0	1.9214191499935741e+18
14513.0	1.9210345943924733e+18
14514.0	1.920605792239616e+18
14515.0	1.9202344084307963e+18
14516.0	1.9177862502285325e+18
14517.0	1.91943106667479e+18
14518.0	1.919042878806425e+18
14519.0	1.9186455456776187e+18
14520.0	1.9182473434890235e+18
14521.0	1.917848116212531e+18
14522.0	1.9174387051659261e+18
14523.0	1.9168716570755064e+18
14524.0	1.916570735896166e+18
14525.0	1.9162497189675005e+18
14526.0	1.9157588427931643e+18
14527.0	1.915317694287052e+18
14528.0	1.9148128896679936e+18
14529.0	1.9145286400081915e+18
14530.0	1.9141232773038077e+18
14531.0	1.9137390304034816e+18
14532.0	1.9132487615643643e+18
14533.0	1.9129427149455355e+18
14534.0	1.9124385361166333e+18
14535.0	1.9119411403161597e+18
14536.0	1.9115490567782397e+18
14537.0	1.9111430028525563e+18
14538.0	1.9107556706222077e+18
14539.0	1.910357089268531e+18
14540.0	1.9099582814224384e+18
14541.0	1.9095372857081853e+18
14542.0	1.909157728039731e+18
14543.0	1.90870627328983e+18
14544.0	1.9083597130498045e+18
14545.0	1.9079444719206392e+18
14546.0	1.9010342487064535e+18
14547.0	1.9011984171204557e+18
14548.0	1.906745842178457e+18
14549.0	1.9062567091568635e+18
14550.0	1.905960410100531e+18
14551.0	1.9055716618731517e+18
14552.0	1.9051722299146237e+18
14553.0	1.904768028193587e+18
14554.0	1.9043754983817213e+18
14555.0	1.9039760043474936e+18
14556.0	1.9035751144488955e+18
14557.0	1.90317654483927e+18
14558.0	1.902771266020966e+18
14559.0	1.9008410020216804e+18
14560.0	1.9019478654255104e+18
14561.0	1.901462002283315e+18
14562.0	1.900988409996902e+18
14563.0	1.900616168872345e+18
14564.0	1.9001365032337403e+18
14565.0	1.8998378486562816e+18
14566.0	1.8994404333191163e+18
14567.0	1.899029753914982e+18
14568.0	1.8985699390783483e+18
14569.0	1.8982297676021755e+18
14570.0	1.8973698178416637e+18
14571.0	1.8974351399321597e+18
14572.0	1.8969723454619643e+18
14573.0	1.8965735996915707e+18
14574.0	1.896033583051571e+18
14575.0	1.8957898017144827e+18
14576.0	1.8953931447074813e+18
14577.0	1.8950429018685435e+18
14578.0	1.8946460368240635e+18
14579.0	1.8942517084946427e+18
14580.0	1.8938499428253693e+18
14581.0	1.8934386963513336e+18
14582.0	1.8930316777357312e+18
14583.0	1.8926536753151992e+18
14584.0	1.89219770246103e+18
14585.0	1.8918525011755003e+18
14586.0	1.8914524987916288e+18
14587.0	1.8910543972663293e+18
14588.0	1.8906554820460541e+18
14589.0	1.8902617610518525e+18
14590.0	1.8898683605024765e+18
14591.0	1.8893537915437056e+18
14592.0	1.888951339686297e+18
14593.0	1.888459968584089e+18
14594.0	1.8881715732742136e+18
14595.0	1.887768035930931e+18
14596.0	1.886757170079333e+18
14597.0	1.8862237200416755e+18
14598.0	1.8865166770765821e+18
14599.0	1.8861906706038781e+18
14600.0	1.8857808434823165e+18
14601.0	1.8853892313841661e+18
14602.0	1.8849704536178688e+18
14603.0	1.8845917717200893e+18
14604.0	1.8841288010891261e+18
14605.0	1.88369391887319e+18
14606.0	1.8833317994430461e+18
14607.0	1.8830095879766016e+18
14608.0	1.8826139644461056e+18
14609.0	1.8821966127431675e+18
14610.0	1.8817014583787515e+18
14611.0	1.8813881489031163e+18
14612.0	1.8810346227630077e+18
14613.0	1.8806509160890365e+18
14614.0	1.8802553143689208e+18
14615.0	1.8798611269681147e+18
14616.0	1.8794724844371965e+18
14617.0	1.8790758945390587e+18
14618.0	1.878628244861747e+18
14619.0	1.877759124674968e+18
14620.0	1.8761582360133632e+18
14621.0	1.8774848507478008e+18
14622.0	1.8770925155516413e+18
14623.0	1.876700108213452e+18
14624.0	1.876250225488691e+18
14625.0	1.875903364936499e+18
14626.0	1.8755065485459456e+18
14627.0	1.87510562005975e+18
14628.0	1.8747150666039293e+18
14629.0	1.8743155088162813e+18
14630.0	1.8739029956624381e+18
14631.0	1.873518498781593e+18
14632.0	1.8726638539767805e+18
14633.0	1.872631594745856e+18
14634.0	1.8723023586590715e+18
14635.0	1.87168568020828e+18
14636.0	1.8708330855792635e+18
14637.0	1.8711303996571643e+18
14638.0	1.8706905195085821e+18
14639.0	1.8702838582476797e+18
14640.0	1.8699217438507003e+18
14641.0	1.8677584795533297e+18
14642.0	1.8691180531286016e+18
14643.0	1.868722229949235e+18
14644.0	1.8683034907705336e+18
14645.0	1.8679017452339197e+18
14646.0	1.8674583250927616e+18
14647.0	1.866990878300569e+18
14648.0	1.8666711867719675e+18
