# Flux units: erg / (cm m2 s)
# Wavelength units: Angstrom
wave	flux
14000.0	1.799479183278079e+18
14001.0	1.799591895970611e+18
14002.0	1.799459320732057e+18
14003.0	1.799147759442329e+18
14004.0	1.7988288547651581e+18
14005.0	1.7985069469663235e+18
14006.0	1.7981764358111227e+18
14007.0	1.797848718062387e+18
14008.0	1.7974355321421821e+18
14009.0	1.797195263954124e+18
14010.0	1.796862268093235e+18
14011.0	1.7959173232787453e+18
14012.0	1.7962178720038907e+18
14013.0	1.7959195747811328e+18
14014.0	1.7955931740438528e+18
14015.0	1.7952752357343224e+18
14016.0	1.7949540661329917e+18
14017.0	1.7946317472923643e+18
14018.0	1.7942885206851581e+18
14019.0	1.7939859503054843e+18
14020.0	1.79366221882327e+18
14021.0	1.7933381769625597e+18
14022.0	1.7930123365842944e+18
14023.0	1.792677686489907e+18
14024.0	1.792355881032089e+18
14025.0	1.7920459370659837e+18
14026.0	1.791722883383296e+18
14027.0	1.791399468990464e+18
14028.0	1.791063892793753e+18
14029.0	1.7907106703212544e+18
14030.0	1.7887919909896197e+18
14031.0	1.7897993436921853e+18
14032.0	1.7897659637432315e+18
14033.0	1.789417277829939e+18
14034.0	1.7891433092481016e+18
14035.0	1.7888264916566013e+18
14036.0	1.7884899121823741e+18
14037.0	1.7881834192895995e+18
14038.0	1.7878656252641277e+18
14039.0	1.78754021270487e+18
14040.0	1.787221125156044e+18
14041.0	1.7869010376851456e+18
14042.0	1.7865703285587965e+18
14043.0	1.7862213691768827e+18
14044.0	1.785915637969715e+18
14045.0	1.7856030901796861e+18
14046.0	1.7852920691163133e+18
14047.0	1.784964510751129e+18
14048.0	1.7846545936285693e+18
14049.0	1.7843354758807547e+18
14050.0	1.7840150159556605e+18
14051.0	1.783687563286937e+18
14052.0	1.7833689756991485e+18
14053.0	1.7830540405112832e+18
14054.0	1.7827339614289915e+18
14055.0	1.7824137900720128e+18
14056.0	1.782093637169971e+18
14057.0	1.7817735849312253e+18
14058.0	1.7814534823608315e+18
14059.0	1.7811151177908221e+18
14060.0	1.7808133124521984e+18
14061.0	1.780486342967296e+18
14062.0	1.7801712165191677e+18
14063.0	1.779826724909875e+18
14064.0	1.7791617482096637e+18
14065.0	1.7792013843824637e+18
14066.0	1.7788923900067837e+18
14067.0	1.7785695309398008e+18
14068.0	1.7782567600127995e+18
14069.0	1.7779355384020987e+18
14070.0	1.7776173568229376e+18
14071.0	1.7772965177327613e+18
14072.0	1.776980443371929e+18
14073.0	1.7766612769701885e+18
14074.0	1.7763416374509565e+18
14075.0	1.7760022830252024e+18
14076.0	1.7756877588791293e+18
14077.0	1.7750060670386176e+18
14078.0	1.7750125312999421e+18
14079.0	1.7747332242079741e+18
14080.0	1.774419241965977e+18
14081.0	1.774109611733811e+18
14082.0	1.7737921415086077e+18
14083.0	1.7734702957854715e+18
14084.0	1.77313492762624e+18
14085.0	1.7724806145245181e+18
14086.0	1.7724572707061755e+18
14087.0	1.7721821461741563e+18
14088.0	1.7718683870691328e+18
14089.0	1.771562753169817e+18
14090.0	1.7712474270728184e+18
14091.0	1.7709323559895037e+18
14092.0	1.7706154343792637e+18
14093.0	1.7702975916998656e+18
14094.0	1.7699786668900352e+18
14095.0	1.7696555360321533e+18
14096.0	1.7692988675194875e+18
14097.0	1.7689835699437563e+18
14098.0	1.7686859001888768e+18
14099.0	1.7683885877886976e+18
14100.0	1.7680641164312576e+18
14101.0	1.7677606484705277e+18
14102.0	1.767442064238182e+18
14103.0	1.767111621869568e+18
14104.0	1.766808004591616e+18
14105.0	1.7664946598838264e+18
14106.0	1.7661779848986621e+18
14107.0	1.765845549396787e+18
14108.0	1.7655296981729275e+18
14109.0	1.7652231666925563e+18
14110.0	1.7649083808219133e+18
14111.0	1.764586593819033e+18
14112.0	1.764266125505331e+18
14113.0	1.7639553292566528e+18
14114.0	1.7636178891112443e+18
14115.0	1.7632903173242875e+18
14116.0	1.762759672437145e+18
14117.0	1.7595947227807744e+18
14118.0	1.762249814520627e+18
14119.0	1.7619921768808443e+18
14120.0	1.761702333697228e+18
14121.0	1.7614010065092605e+18
14122.0	1.7610882305490944e+18
14123.0	1.7607749512724475e+18
14124.0	1.7604375446814715e+18
14125.0	1.759732863021875e+18
14126.0	1.759831638881075e+18
14127.0	1.759538473808691e+18
14128.0	1.759226088757657e+18
14129.0	1.75890125333463e+18
14130.0	1.7585720793235453e+18
14131.0	1.758276045347225e+18
14132.0	1.757934726309478e+18
14133.0	1.757147019241062e+18
14134.0	1.7572947560497152e+18
14135.0	1.757005738305126e+18
14136.0	1.7566995692126203e+18
14137.0	1.7563832297717757e+18
14138.0	1.7560620048056317e+18
14139.0	1.7557621540126715e+18
14140.0	1.7554411270176763e+18
14141.0	1.7550732278366203e+18
14142.0	1.7546963494895613e+18
14143.0	1.754492491215667e+18
14144.0	1.7541954204073981e+18
14145.0	1.7538838842834936e+18
14146.0	1.753566241252966e+18
14147.0	1.7532587014619133e+18
14148.0	1.75294504805335e+18
14149.0	1.752633324024627e+18
14150.0	1.752322425434931e+18
14151.0	1.752004493836288e+18
14152.0	1.7516944961830912e+18
14153.0	1.7513833711009784e+18
14154.0	1.751043072117964e+18
14155.0	1.7507121163665405e+18
14156.0	1.7504390889865213e+18
14157.0	1.7501300392460288e+18
14158.0	1.749814397737369e+18
14159.0	1.7495036316876797e+18
14160.0	1.7491720266579963e+18
14161.0	1.7488231343849472e+18
14162.0	1.7484652579127293e+18
14163.0	1.748220079033548e+18
14164.0	1.7478734114193403e+18
14165.0	1.7476009846636541e+18
14166.0	1.7473118595448832e+18
14167.0	1.746988720298393e+18
14168.0	1.746689599314329e+18
14169.0	1.746378449066393e+18
14170.0	1.7460667686584317e+18
14171.0	1.745755007719833e+18
14172.0	1.7454457415532541e+18
14173.0	1.745118379481497e+18
14174.0	1.7448137689923581e+18
14175.0	1.7445102205009917e+18
14176.0	1.744200029909811e+18
14177.0	1.743888589416038e+18
14178.0	1.743576612051353e+18
14179.0	1.7432618161143805e+18
14180.0	1.7429539072245757e+18
14181.0	1.7426422167502843e+18
14182.0	1.7423294558896128e+18
14183.0	1.742016903066419e+18
14184.0	1.7416960438435837e+18
14185.0	1.7413601539129341e+18
14186.0	1.7406009748226048e+18
14187.0	1.7406726219235325e+18
14188.0	1.7404441397297152e+18
14189.0	1.7401440087572475e+18
14190.0	1.7398365092315133e+18
14191.0	1.7395238356123648e+18
14192.0	1.7391997903962112e+18
14193.0	1.7388331125964797e+18
14194.0	1.7385930826448896e+18
14195.0	1.7382904569004027e+18
14196.0	1.7379813853495293e+18
14197.0	1.737671129327206e+18
14198.0	1.7373551673737213e+18
14199.0	1.7370378749870077e+18
14200.0	1.736426815225856e+18
14201.0	1.7363512925880312e+18
14202.0	1.7361129017704443e+18
14203.0	1.7358063753232381e+18
14204.0	1.7354989345177597e+18
14205.0	1.735185655241113e+18
14206.0	1.7347667768115197e+18
14207.0	1.7345629856464893e+18
14208.0	1.734259302937395e+18
14209.0	1.7338284019548157e+18
14210.0	1.7335420400435197e+18
14211.0	1.733325706231808e+18
14212.0	1.733027039910297e+18
14213.0	1.7327192568496125e+18
14214.0	1.7324095007883261e+18
14215.0	1.7320865662238712e+18
14216.0	1.7317935034925053e+18
14217.0	1.731484992300646e+18
14218.0	1.7311632891838461e+18
14219.0	1.730867065624985e+18
14220.0	1.7305531823685627e+18
14221.0	1.730247174337331e+18
14222.0	1.7299226593591293e+18
14223.0	1.7296251053670395e+18
14224.0	1.729296137715712e+18
14225.0	1.727915267142452e+18
14226.0	1.7285897145810936e+18
14227.0	1.7283458158034944e+18
14228.0	1.725099320488756e+18
14229.0	1.7269195477614572e+18
14230.0	1.7274483723206653e+18
14231.0	1.727152323244851e+18
14232.0	1.726856745608806e+18
14233.0	1.7265496118263805e+18
14234.0	1.726244046713651e+18
14235.0	1.72593444332503e+18
14236.0	1.725628806070272e+18
14237.0	1.7253169427906557e+18
14238.0	1.7250049603928061e+18
14239.0	1.7246592675348477e+18
14240.0	1.7226686844108803e+18
14241.0	1.7239802684375037e+18
14242.0	1.72372874273751e+18
14243.0	1.723311438010777e+18
14244.0	1.723140392615936e+18
14245.0	1.7228313126764541e+18
14246.0	1.7225269622341627e+18
14247.0	1.722220952525209e+18
14248.0	1.7219019287298043e+18
14249.0	1.7216078828535803e+18
14250.0	1.7213037454819325e+18
14251.0	1.7209981082271741e+18
14252.0	1.7206893571211261e+18
14253.0	1.720377314325299e+18
14254.0	1.7200580690706432e+18
14255.0	1.7196714800709632e+18
14256.0	1.7184268287475712e+18
14257.0	1.7187771588280315e+18
14258.0	1.7188043077189627e+18
14259.0	1.71847874248704e+18
14260.0	1.7181534574346235e+18
14261.0	1.717851242731929e+18
14262.0	1.7175218774605821e+18
14263.0	1.7157788908126205e+18
14264.0	1.716203778840985e+18
14265.0	1.7166246957023227e+18
14266.0	1.7163774012162043e+18
14267.0	1.7160851320471547e+18
14268.0	1.7157802111795197e+18
14269.0	1.7154690575761405e+18
14270.0	1.7151693175128061e+18
14271.0	1.7148524881772541e+18
14272.0	1.7145193446768637e+18
14273.0	1.7140557482557437e+18
14274.0	1.7113708937347072e+18
14275.0	1.713019790399897e+18
14276.0	1.7132557065781248e+18
14277.0	1.7130110192713725e+18
14278.0	1.7127201577107453e+18
14279.0	1.7124020616953856e+18
14280.0	1.712097563613593e+18
14281.0	1.7118007058759677e+18
14282.0	1.7114976623788032e+18
14283.0	1.7111936827129853e+18
14284.0	1.7108891930198013e+18
14285.0	1.7105839617736704e+18
14286.0	1.7102777859702784e+18
14287.0	1.709970298188595e+18
14288.0	1.7096362688511997e+18
14289.0	1.708258810763672e+18
14290.0	1.709030378150297e+18
14291.0	1.7087522286862333e+18
14292.0	1.7084489368862723e+18
14293.0	1.7081412091903997e+18
14294.0	1.7077177707134976e+18
14295.0	1.707491748059545e+18
14296.0	1.7063684765384707e+18
14297.0	1.706841884275507e+18
14298.0	1.7062434560802813e+18
14299.0	1.7062736349364221e+18
14300.0	1.7060086404874235e+18
14301.0	1.7057025636696061e+18
14302.0	1.705383461021286e+18
14303.0	1.7050430882185213e+18
14304.0	1.7047595666898941e+18
14305.0	1.7044685507788795e+18
14306.0	1.7041517935853565e+18
14307.0	1.7038429736927232e+18
14308.0	1.7035415894622205e+18
14309.0	1.7032225170128893e+18
14310.0	1.702877520409395e+18
14311.0	1.7025235295404027e+18
14312.0	1.7022553692307453e+18
14313.0	1.7018762997792768e+18
14314.0	1.701719295236505e+18
14315.0	1.701425464108646e+18
14316.0	1.701086904922931e+18
14317.0	1.7008126511284221e+18
14318.0	1.7005336242159616e+18
14319.0	1.7002384777543675e+18
14320.0	1.699938234374553e+18
14321.0	1.699633471212748e+18
14322.0	1.699301376288358e+18
14323.0	1.6990112160153597e+18
14324.0	1.6987335916781563e+18
14325.0	1.6984229749456893e+18
14326.0	1.6981292042158077e+18
14327.0	1.697795668128563e+18
14328.0	1.6974931950567421e+18
14329.0	1.6972003537846272e+18
14330.0	1.696898971231846e+18
14331.0	1.6965971877036032e+18
14332.0	1.6962957883736056e+18
14333.0	1.695994122285875e+18
14334.0	1.6956916592803837e+18
14335.0	1.6953699595190267e+18
14336.0	1.6949795134373885e+18
14337.0	1.6947812990189565e+18
14338.0	1.6944837550931965e+18
14339.0	1.6941735074594813e+18
14340.0	1.6938827029413885e+18
14341.0	1.6935784145747968e+18
14342.0	1.6932758056075261e+18
14343.0	1.6929806088142843e+18
14344.0	1.692666728913305e+18
14345.0	1.6923726494826493e+18
14346.0	1.6920704884670461e+18
14347.0	1.691751773372416e+18
14348.0	1.6914672586326008e+18
14349.0	1.6911692483002363e+18
14350.0	1.6907752957804536e+18
14351.0	1.6904702843158523e+18
14352.0	1.6902590675550205e+18
14353.0	1.6899705967476728e+18
14354.0	1.6896536818483197e+18
14355.0	1.68931288458199e+18
14356.0	1.689013491807027e+18
14357.0	1.688741066729062e+18
14358.0	1.68844760973312e+18
14359.0	1.6881313541783547e+18
14360.0	1.6878408482947067e+18
14361.0	1.687542153451929e+18
14362.0	1.6872447336775675e+18
14363.0	1.6869347377020925e+18
14364.0	1.6863870203199485e+18
14365.0	1.6862134231105533e+18
14366.0	1.6859847848886267e+18
14367.0	1.6857471037472763e+18
14368.0	1.6854488635670528e+18
14369.0	1.6851523682172925e+18
14370.0	1.684853748871987e+18
14371.0	1.684555137915289e+18
14372.0	1.6842485879799803e+18
14373.0	1.6839524617289725e+18
14374.0	1.6836553640771581e+18
14375.0	1.683352854095462e+18
14376.0	1.683059724255232e+18
14377.0	1.6827600479453181e+18
14378.0	1.682459185486233e+18
14379.0	1.682162680070144e+18
14380.0	1.681862856120729e+18
14381.0	1.681552563188531e+18
14382.0	1.681264731593113e+18
14383.0	1.68096663905239e+18
14384.0	1.6806489993773053e+18
14385.0	1.6803702358671357e+18
14386.0	1.68004661846999e+18
14387.0	1.679744767832883e+18
14388.0	1.679443200730726e+18
14389.0	1.6791470728019965e+18
14390.0	1.6788476884156413e+18
14391.0	1.6785512568193024e+18
14392.0	1.6782524747350013e+18
14393.0	1.6779548033023997e+18
14394.0	1.6776132728717312e+18
14395.0	1.677346599023411e+18
14396.0	1.677057636643635e+18
14397.0	1.676761389596672e+18
14398.0	1.6764624732946424e+18
14399.0	1.676160919614259e+18
14400.0	1.6758438755303421e+18
14401.0	1.6755516583706621e+18
14402.0	1.6752419241197565e+18
14403.0	1.6746551980326907e+18
14404.0	1.671789820667493e+18
14405.0	1.672287548656842e+18
14406.0	1.6740109814595581e+18
14407.0	1.6734518186606587e+18
14408.0	1.673444747064115e+18
14409.0	1.6731606081339387e+18
14410.0	1.672868429561856e+18
14411.0	1.6725889899298816e+18
14412.0	1.672293519668019e+18
14413.0	1.672001166612889e+18
14414.0	1.671702168102502e+18
14415.0	1.67140568114135e+18
14416.0	1.6711072362790912e+18
14417.0	1.6707996075687933e+18
14418.0	1.6704971730845693e+18
14419.0	1.670212477150822e+18
14420.0	1.6699126347464696e+18
14421.0	1.6696174933180413e+18
14422.0	1.6693044958986237e+18
14423.0	1.6689298505990136e+18
14424.0	1.667411039433523e+18
14425.0	1.6683262281777147e+18
14426.0	1.6680984825036797e+18
14427.0	1.6678107230502907e+18
14428.0	1.6674912697581563e+18
14429.0	1.667214677219737e+18
14430.0	1.6668878872510461e+18
14431.0	1.6661391553331197e+18
14432.0	1.6663048991277053e+18
14433.0	1.6657798108545021e+18
14434.0	1.6657077728444408e+18
14435.0	1.665403472733798e+18
14436.0	1.6651437161316347e+18
14437.0	1.6648543762644987e+18
14438.0	1.6645088813776896e+18
14439.0	1.6642460746776576e+18
14440.0	1.6639702757015547e+18
14441.0	1.6636642223718397e+18
14442.0	1.663361303026073e+18
14443.0	1.6630239467667453e+18
14444.0	1.662774410844569e+18
14445.0	1.6624715183423488e+18
14446.0	1.6611713646329859e+18
14447.0	1.661822689712537e+18
14448.0	1.6616000879329275e+18
14449.0	1.6613106054594557e+18
14450.0	1.6610099090948093e+18
14451.0	1.6607174536986621e+18
14452.0	1.6604252986146813e+18
14453.0	1.6601279023284221e+18
14454.0	1.6598315109974013e+18
14455.0	1.6595280732356605e+18
14456.0	1.6592334602895357e+18
14457.0	1.65893886747607e+18
14458.0	1.6586399293636603e+18
14459.0	1.6583350068183035e+18
14460.0	1.6580237441630205e+18
14461.0	1.6576790612934653e+18
14462.0	1.657346214749798e+18
14463.0	1.657115793109811e+18
14464.0	1.6568406534782976e+18
14465.0	1.6565176014733307e+18
14466.0	1.656254036443136e+18
14467.0	1.6559463825670141e+18
14468.0	1.655666852338073e+18
14469.0	1.6553281253801984e+18
14470.0	1.6550495095095293e+18
14471.0	1.65478660046848e+18
14472.0	1.6544989165125632e+18
14473.0	1.6542111419596797e+18
14474.0	1.6539222399778808e+18
14475.0	1.6536268972228603e+18
14476.0	1.6533210468974592e+18
14477.0	1.6530392819433472e+18
14478.0	1.6527457880375296e+18
14479.0	1.652451596199526e+18
14480.0	1.6521407580078077e+18
14481.0	1.6518683429961723e+18
14482.0	1.6515690072637437e+18
14483.0	1.6512705942781947e+18
14484.0	1.6509652892123133e+18
14485.0	1.650633627140096e+18
14486.0	1.650096086817177e+18
14487.0	1.6500941054279675e+18
14488.0	1.649799715618816e+18
14489.0	1.6494770679447547e+18
14490.0	1.64921433170903e+18
14491.0	1.6489350564937728e+18
14492.0	1.6486440623931392e+18
14493.0	1.6483359387549693e+18
14494.0	1.6480315547582461e+18
14495.0	1.6477498837565435e+18
14496.0	1.647340291516006e+18
14497.0	1.647170266175897e+18
14498.0	1.6468864929890296e+18
14499.0	1.6465943228055547e+18
14500.0	1.6463001578110976e+18
14501.0	1.6459806575427581e+18
14502.0	1.645475868023193e+18
14503.0	1.6454003487408123e+18
14504.0	1.6451196088745981e+18
14505.0	1.644828176888627e+18
14506.0	1.6445131980799995e+18
14507.0	1.6440028049702907e+18
14508.0	1.643949872853811e+18
14509.0	1.643666648281907e+18
14510.0	1.64337246315479e+18
14511.0	1.643082012635955e+18
14512.0	1.6427774759665661e+18
14513.0	1.6424909513162747e+18
14514.0	1.642140767197593e+18
14515.0	1.641824504931942e+18
14516.0	1.6387346064736266e+18
14517.0	1.6411422208557053e+18
14518.0	1.64099039208407e+18
14519.0	1.6407014716473341e+18
14520.0	1.640422572241715e+18
14521.0	1.6401327525462013e+18
14522.0	1.6398371598106624e+18
14523.0	1.6395147168186365e+18
14524.0	1.6392371663011837e+18
14525.0	1.6389606828146688e+18
14526.0	1.6386718127095805e+18
14527.0	1.6383388051046395e+18
14528.0	1.6379551353405437e+18
14529.0	1.6377881097666557e+18
14530.0	1.6374927821111296e+18
14531.0	1.6372175200059392e+18
14532.0	1.6369134547763197e+18
14533.0	1.6366369058586621e+18
14534.0	1.6363485172596733e+18
14535.0	1.6360447355650043e+18
14536.0	1.635760745952051e+18
14537.0	1.6354601536061435e+18
14538.0	1.6351835359019005e+18
14539.0	1.6348932078567421e+18
14540.0	1.6346018681454587e+18
14541.0	1.634283684888576e+18
14542.0	1.634015034684211e+18
14543.0	1.63370366968791e+18
14544.0	1.633428162635366e+18
14545.0	1.6331067950628861e+18
14546.0	1.6309534259675128e+18
14547.0	1.630660361558424e+18
14548.0	1.6322152605155325e+18
14549.0	1.631847665002086e+18
14550.0	1.631670131857817e+18
14551.0	1.6314007266787325e+18
14552.0	1.6311088651960312e+18
14553.0	1.6308126097604603e+18
14554.0	1.6305322004054016e+18
14555.0	1.6302409479356413e+18
14556.0	1.6299480630427643e+18
14557.0	1.6296501399519232e+18
14558.0	1.6293049051119608e+18
14559.0	1.6269514492608492e+18
14560.0	1.6287175012253693e+18
14561.0	1.628479439241216e+18
14562.0	1.6281694969528315e+18
14563.0	1.627902885180211e+18
14564.0	1.627591691311513e+18
14565.0	1.6273368235900925e+18
14566.0	1.6270498342109181e+18
14567.0	1.6267561322676221e+18
14568.0	1.6264585480765437e+18
14569.0	1.6261558585786365e+18
14570.0	1.6252904813887485e+18
14571.0	1.6255522646786048e+18
14572.0	1.6252355578167293e+18
14573.0	1.6249258889969661e+18
14574.0	1.6246599315357693e+18
14575.0	1.624390430726553e+18
14576.0	1.6240963680731133e+18
14577.0	1.623824830509875e+18
14578.0	1.6235418307526653e+18
14579.0	1.623258203527577e+18
14580.0	1.6229678335393787e+18
14581.0	1.6226739940229115e+18
14582.0	1.622379345844633e+18
14583.0	1.62210001190912e+18
14584.0	1.6217869725466621e+18
14585.0	1.6215175287799805e+18
14586.0	1.6212314722140157e+18
14587.0	1.6209451119804413e+18
14588.0	1.620656654594867e+18
14589.0	1.6203683297492987e+18
14590.0	1.620079627416371e+18
14591.0	1.619785811388006e+18
14592.0	1.6194824558346237e+18
14593.0	1.6190940414738432e+18
14594.0	1.618913090810675e+18
14595.0	1.6186196287815675e+18
14596.0	1.6180464385523707e+18
14597.0	1.617702354629427e+18
14598.0	1.6177206636052477e+18
14599.0	1.6174781002940416e+18
14600.0	1.6171902754095104e+18
14601.0	1.6169019757297661e+18
14602.0	1.61660799025152e+18
14603.0	1.6163207307591683e+18
14604.0	1.6159828795719677e+18
14605.0	1.6157003277664253e+18
14606.0	1.6153564518809597e+18
14607.0	1.6151657184231421e+18
14608.0	1.6148688573300733e+18
14609.0	1.6145671308443648e+18
14610.0	1.614263186410701e+18
14611.0	1.613978461955686e+18
14612.0	1.6137355396120576e+18
14613.0	1.6134533569052672e+18
14614.0	1.613148786681446e+18
14615.0	1.612867801867878e+18
14616.0	1.6125934255996925e+18
14617.0	1.6122664326266875e+18
14618.0	1.6119625519464443e+18
14619.0	1.611352621291929e+18
14620.0	1.610790493958963e+18
14621.0	1.611126021501747e+18
14622.0	1.6108617954492413e+18
14623.0	1.6105818793443325e+18
14624.0	1.6102444274548733e+18
14625.0	1.610004974639513e+18
14626.0	1.6097116518612992e+18
14627.0	1.6094259325173757e+18
14628.0	1.6091551063080957e+18
14629.0	1.6088673267220477e+18
14630.0	1.6085654240755707e+18
14631.0	1.6082794648174587e+18
14632.0	1.6078769643061248e+18
14633.0	1.6076844776292344e+18
14634.0	1.6074251287134205e+18
14635.0	1.607082293015347e+18
14636.0	1.606668464527769e+18
14637.0	1.6065422528872443e+18
14638.0	1.6062355838337021e+18
14639.0	1.6059393032323072e+18
14640.0	1.6056583704281085e+18
14641.0	1.6049903637626875e+18
14642.0	1.605081341571891e+18
14643.0	1.604811694800896e+18
14644.0	1.6045109430714363e+18
14645.0	1.604206047369625e+18
14646.0	1.6039215527624704e+18
14647.0	1.6036320803553277e+18
14648.0	1.6033580413091837e+18
14649.0	1.6030841113149437e+18
