# Flux units: erg / (cm m2 s)
# Wavelength units: Angstrom
wave	flux
14000.0	1.5959050365698043e+18
14001.0	1.5956151229218808e+18
14002.0	1.595383698004377e+18
14003.0	1.5951216244686843e+18
14004.0	1.5948594955681792e+18
14005.0	1.5945974035775488e+18
14006.0	1.5943341019496443e+18
14007.0	1.594072699502592e+18
14008.0	1.593798059832115e+18
14009.0	1.5935489534066685e+18
14010.0	1.5932873882206205e+18
14011.0	1.5929228545490941e+18
14012.0	1.592763652191027e+18
14013.0	1.592502724539187e+18
14014.0	1.5922412130402304e+18
14015.0	1.591979426394931e+18
14016.0	1.5917183041273853e+18
14017.0	1.5914569385902077e+18
14018.0	1.5911956082851837e+18
14019.0	1.5909343316672507e+18
14020.0	1.5906730231726075e+18
14021.0	1.590411780109107e+18
14022.0	1.5901506880405504e+18
14023.0	1.5898895993274365e+18
14024.0	1.589627577801113e+18
14025.0	1.589367859786547e+18
14026.0	1.5891067861729277e+18
14027.0	1.5888462108426235e+18
14028.0	1.5885854392188925e+18
14029.0	1.5883245971308541e+18
14030.0	1.588019273610035e+18
14031.0	1.5878017620377597e+18
14032.0	1.5875429097275387e+18
14033.0	1.5872769438777341e+18
14034.0	1.587022074478592e+18
14035.0	1.5867618246262781e+18
14036.0	1.5865015630299133e+18
14037.0	1.5862413249216507e+18
14038.0	1.5859811371450365e+18
14039.0	1.5857210517094397e+18
14040.0	1.58546100486144e+18
14041.0	1.5852009580134397e+18
14042.0	1.5849395320782843e+18
14043.0	1.5846749184720893e+18
14044.0	1.584419143103283e+18
14045.0	1.584161535662489e+18
14046.0	1.5839018277142523e+18
14047.0	1.5836420157472763e+18
14048.0	1.5833825208696832e+18
14049.0	1.5831230243143677e+18
14050.0	1.5828635361476605e+18
14051.0	1.582602890353049e+18
14052.0	1.5823446990651387e+18
14053.0	1.58208542900224e+18
14054.0	1.5818261757165565e+18
14055.0	1.581566974440243e+18
14056.0	1.5813078285287421e+18
14057.0	1.5810487480483837e+18
14058.0	1.5807897145442296e+18
14059.0	1.5805307397603325e+18
14060.0	1.5802718119526395e+18
14061.0	1.5800118372466685e+18
14062.0	1.5797541241094141e+18
14063.0	1.5794932098793472e+18
14064.0	1.579226435367731e+18
14065.0	1.578976706507571e+18
14066.0	1.5787195084308475e+18
14067.0	1.5784610017312763e+18
14068.0	1.5782025436856315e+18
14069.0	1.577943984976691e+18
14070.0	1.5776857601343485e+18
14071.0	1.5774270252646397e+18
14072.0	1.5771692617957376e+18
14073.0	1.576911087285043e+18
14074.0	1.5766529765277693e+18
14075.0	1.5763925505146875e+18
14076.0	1.5761368506433533e+18
14077.0	1.5758691483516923e+18
14078.0	1.575620268418662e+18
14079.0	1.575362348921651e+18
14080.0	1.5751054259912701e+18
14081.0	1.574847707820851e+18
14082.0	1.5745899359633403e+18
14083.0	1.5743321641058301e+18
14084.0	1.5740745851863035e+18
14085.0	1.5737812103987197e+18
14086.0	1.5735585918418941e+18
14087.0	1.5733024708624384e+18
14088.0	1.5730450899140605e+18
14089.0	1.572787943846707e+18
14090.0	1.5725306081968128e+18
14091.0	1.572273579569971e+18
14092.0	1.5720164871897085e+18
14093.0	1.5717594384302077e+18
14094.0	1.5715024433577981e+18
14095.0	1.5712454650626043e+18
14096.0	1.5709870070169595e+18
14097.0	1.5707314883395581e+18
14098.0	1.5704742382534653e+18
14099.0	1.5702182833684477e+18
14100.0	1.5699596776833021e+18
14101.0	1.569705066653286e+18
14102.0	1.5694484943667195e+18
14103.0	1.5691893870428157e+18
14104.0	1.568935608162713e+18
14105.0	1.568679232169574e+18
14106.0	1.5684229065080832e+18
14107.0	1.5681666227896315e+18
14108.0	1.5679104414121981e+18
14109.0	1.5676536074010621e+18
14110.0	1.567398011548467e+18
14111.0	1.5671415147593723e+18
14112.0	1.5668858350206976e+18
14113.0	1.566630180447846e+18
14114.0	1.5663742792499197e+18
14115.0	1.566118126393753e+18
14116.0	1.5658612101742592e+18
14117.0	1.5655263688196093e+18
14118.0	1.565350791898726e+18
14119.0	1.565094578644582e+18
14120.0	1.5648392529051643e+18
14121.0	1.564584378472857e+18
14122.0	1.5643278145748987e+18
14123.0	1.5640731465023485e+18
14124.0	1.5638171496742907e+18
14125.0	1.5634953559605243e+18
14126.0	1.5633075568377853e+18
14127.0	1.5630528820543488e+18
14128.0	1.5627976636891133e+18
14129.0	1.5625412239425533e+18
14130.0	1.5622857438527488e+18
14131.0	1.5620328206106621e+18
14132.0	1.5617772650233853e+18
14133.0	1.561443609817907e+18
14134.0	1.5612676335992832e+18
14135.0	1.5610118448087035e+18
14136.0	1.5607586128658424e+18
14137.0	1.5605042853707773e+18
14138.0	1.5602492582658048e+18
14139.0	1.5599953904664573e+18
14140.0	1.559740806279987e+18
14141.0	1.5594857691086848e+18
14142.0	1.5592275174227965e+18
14143.0	1.5589778472828925e+18
14144.0	1.55872386875392e+18
14145.0	1.5584697123864568e+18
14146.0	1.5582153815359485e+18
14147.0	1.557961421461913e+18
14148.0	1.5577074949423101e+18
14149.0	1.5574536539865085e+18
14150.0	1.5571997593436157e+18
14151.0	1.556945562710835e+18
14152.0	1.5566921680289787e+18
14153.0	1.556438419347865e+18
14154.0	1.5561813118681085e+18
14155.0	1.5559286067298304e+18
14156.0	1.5556772991336448e+18
14157.0	1.5554240588021757e+18
14158.0	1.555170046718771e+18
14159.0	1.5549171754860541e+18
14160.0	1.5546626332426237e+18
14161.0	1.554401925372313e+18
14162.0	1.5541419892539387e+18
14163.0	1.553903600114073e+18
14164.0	1.553648915264307e+18
14165.0	1.5533949166026747e+18
14166.0	1.5531447884447741e+18
14167.0	1.5528919876763643e+18
14168.0	1.552638926861107e+18
14169.0	1.5523862452109312e+18
14170.0	1.5521329813913597e+18
14171.0	1.5518802108219392e+18
14172.0	1.5516279922229243e+18
14173.0	1.5513721531006973e+18
14174.0	1.5511220299759616e+18
14175.0	1.5508702610063357e+18
14176.0	1.5506177991376893e+18
14177.0	1.5503653909561341e+18
14178.0	1.5501129794191357e+18
14179.0	1.5498600494661632e+18
14180.0	1.5496084600127488e+18
14181.0	1.549356249802342e+18
14182.0	1.5491039691276285e+18
14183.0	1.5488519837319165e+18
14184.0	1.5485991913521147e+18
14185.0	1.5483477948366843e+18
14186.0	1.5480800237584381e+18
14187.0	1.5478401716453373e+18
14188.0	1.5475921104404475e+18
14189.0	1.5473403918024701e+18
14190.0	1.5470886916194301e+18
14191.0	1.5468369830477821e+18
14192.0	1.5465842896535547e+18
14193.0	1.546331795908198e+18
14194.0	1.5460822465642493e+18
14195.0	1.545831031242752e+18
14196.0	1.545579592784281e+18
14197.0	1.5453282667331581e+18
14198.0	1.5450761454419965e+18
14199.0	1.5448254653136893e+18
14200.0	1.5445656365694976e+18
14201.0	1.5443228081782784e+18
14202.0	1.5440723444760576e+18
14203.0	1.5438206375821312e+18
14204.0	1.5435699104776187e+18
14205.0	1.5433189082267648e+18
14206.0	1.5430509341442043e+18
14207.0	1.542817425496473e+18
14208.0	1.5425668644863997e+18
14209.0	1.5422970247774205e+18
14210.0	1.5420516747706365e+18
14211.0	1.5418148324900856e+18
14212.0	1.5415643570438144e+18
14213.0	1.5413140309147648e+18
14214.0	1.541063426283929e+18
14215.0	1.5408111590309888e+18
14216.0	1.5405629149544448e+18
14217.0	1.5403126408347643e+18
14218.0	1.540062396914073e+18
14219.0	1.539812225135411e+18
14220.0	1.539562123821056e+18
14221.0	1.539311980563661e+18
14222.0	1.5390619849457664e+18
14223.0	1.5388120212045821e+18
14224.0	1.5385620473970688e+18
14225.0	1.5382827604377597e+18
14226.0	1.5380619034886141e+18
14227.0	1.537812547082649e+18
14228.0	1.5374739274989565e+18
14229.0	1.5372984260755453e+18
14230.0	1.5370637010796541e+18
14231.0	1.5368142540767224e+18
14232.0	1.5365647902965757e+18
14233.0	1.5363153651040253e+18
14234.0	1.5360659633995773e+18
14235.0	1.5358162328616957e+18
14236.0	1.5355673277628413e+18
14237.0	1.535317852238643e+18
14238.0	1.5350686719934464e+18
14239.0	1.5348180019314685e+18
14240.0	1.5342936199790587e+18
14241.0	1.5343196062089216e+18
14242.0	1.5340719711453184e+18
14243.0	1.533801086215782e+18
14244.0	1.5335748404248568e+18
14245.0	1.5333255377059835e+18
14246.0	1.5330762500866043e+18
14247.0	1.5328275530252285e+18
14248.0	1.5325635836641275e+18
14249.0	1.5323175994785787e+18
14250.0	1.5320689863032832e+18
14251.0	1.5318207942361088e+18
14252.0	1.5315722716577792e+18
14253.0	1.5313236870037501e+18
14254.0	1.5310750000087035e+18
14255.0	1.5308212764934141e+18
14256.0	1.530549435262566e+18
14257.0	1.5303276471779325e+18
14258.0	1.5300822300622848e+18
14259.0	1.529834183956889e+18
14260.0	1.529584116196966e+18
14261.0	1.5293387846451197e+18
14262.0	1.5291132938289147e+18
14263.0	1.5288222829510653e+18
14264.0	1.5286060867125243e+18
14265.0	1.5283696152084477e+18
14266.0	1.528108647291289e+18
14267.0	1.527860933374771e+18
14268.0	1.5276132127473667e+18
14269.0	1.5273651280543744e+18
14270.0	1.527117882222182e+18
14271.0	1.5268702320590848e+18
14272.0	1.5266226171281403e+18
14273.0	1.5263743344639995e+18
14274.0	1.5260606642782203e+18
14275.0	1.5258726806061053e+18
14276.0	1.525632702663885e+18
14277.0	1.525385257182822e+18
14278.0	1.5251385851314176e+18
14279.0	1.5248912738680832e+18
14280.0	1.5246432831275005e+18
14281.0	1.5243972704206843e+18
14282.0	1.524150296379392e+18
14283.0	1.5239033223380992e+18
14284.0	1.523656385206681e+18
14285.0	1.523407923026329e+18
14286.0	1.5231452824207357e+18
14287.0	1.5228984174313472e+18
14288.0	1.5226507874009085e+18
14289.0	1.5222273791229944e+18
14290.0	1.5221573963218941e+18
14291.0	1.5219114087809021e+18
14292.0	1.5216650286530557e+18
14293.0	1.5214180445454336e+18
14294.0	1.521151603900416e+18
14295.0	1.5209247272861693e+18
14296.0	1.5205369353601027e+18
14297.0	1.5204306651185147e+18
14298.0	1.5201593288818685e+18
14299.0	1.5199396463378432e+18
14300.0	1.5196942057340923e+18
14301.0	1.5194481041080315e+18
14302.0	1.5192015125872637e+18
14303.0	1.5189508911792123e+18
14304.0	1.5187077222105085e+18
14305.0	1.5184637093478397e+18
14306.0	1.518217245333913e+18
14307.0	1.5179714524086272e+18
14308.0	1.517723626084761e+18
14309.0	1.5174665790029821e+18
14310.0	1.517217165554483e+18
14311.0	1.5169684953366525e+18
14312.0	1.5167254605856763e+18
14313.0	1.5164546645753853e+18
14314.0	1.516238458270515e+18
14315.0	1.5159931485290493e+18
14316.0	1.515740275618611e+18
14317.0	1.5155016935407613e+18
14318.0	1.5152572209823741e+18
14319.0	1.515012035392307e+18
14320.0	1.5147667239731195e+18
14321.0	1.514521553482547e+18
14322.0	1.514270628406886e+18
14323.0	1.5140284023177213e+18
14324.0	1.5137862282379256e+18
14325.0	1.513541243974451e+18
14326.0	1.5132962597109757e+18
14327.0	1.5130513375231997e+18
14328.0	1.5128054271574016e+18
14329.0	1.5125616374317053e+18
14330.0	1.5123168578502653e+18
14331.0	1.5120720732356605e+18
14332.0	1.5118274329051136e+18
14333.0	1.5115827875414016e+18
14334.0	1.5113261246578683e+18
14335.0	1.5110783838978048e+18
14336.0	1.510832837597593e+18
14337.0	1.5105911668342781e+18
14338.0	1.5103464812052475e+18
14339.0	1.510102065689395e+18
14340.0	1.509857973973811e+18
14341.0	1.5096135383252987e+18
14342.0	1.5093694013112315e+18
14343.0	1.5091251250462715e+18
14344.0	1.5088809377005563e+18
14345.0	1.508636844307251e+18
14346.0	1.508392296251392e+18
14347.0	1.50814664425472e+18
14348.0	1.507904584259993e+18
14349.0	1.507660762657587e+18
14350.0	1.5074145419132925e+18
14351.0	1.5071706381025277e+18
14352.0	1.5069284170465277e+18
14353.0	1.5066850601730048e+18
14354.0	1.5064412939354107e+18
14355.0	1.5061972424851453e+18
14356.0	1.5059538201804797e+18
14357.0	1.5057109230026747e+18
14358.0	1.5054674033901565e+18
14359.0	1.5052238334459901e+18
14360.0	1.5049802333028347e+18
14361.0	1.504736102999654e+18
14362.0	1.5044806195544064e+18
14363.0	1.5042372089937915e+18
14364.0	1.5039868291776512e+18
14365.0	1.5037489987190781e+18
14366.0	1.503506047854182e+18
14367.0	1.5032643385032701e+18
14368.0	1.503021149401907e+18
14369.0	1.502778138139033e+18
14370.0	1.502535141975654e+18
14371.0	1.5022921474899963e+18
14372.0	1.502049168103833e+18
14373.0	1.5018062642151427e+18
14374.0	1.5015633452269565e+18
14375.0	1.50131997493166e+18
14376.0	1.501077894804275e+18
14377.0	1.5008350714462205e+18
14378.0	1.500592098770944e+18
14379.0	1.500349876037222e+18
14380.0	1.500107240583987e+18
14381.0	1.4998643283066875e+18
14382.0	1.4996220032319488e+18
14383.0	1.4993795053518843e+18
14384.0	1.4991330329493504e+18
14385.0	1.4988826447446016e+18
14386.0	1.498640333091635e+18
14387.0	1.4983980046614525e+18
14388.0	1.4981555504021501e+18
14389.0	1.497913572615782e+18
14390.0	1.4976711485554688e+18
14391.0	1.4974294291382272e+18
14392.0	1.4971872550584315e+18
14393.0	1.4969453930348541e+18
14394.0	1.4966854736936957e+18
14395.0	1.4964469419474944e+18
14396.0	1.4962065177313275e+18
14397.0	1.4959646372528125e+18
14398.0	1.4957227517411323e+18
14399.0	1.495480923271987e+18
14400.0	1.4952358752550912e+18
14401.0	1.4949962697670653e+18
14402.0	1.4947549647470587e+18
14403.0	1.4944662724804605e+18
14404.0	1.493762109236838e+18
14405.0	1.493736104552037e+18
14406.0	1.4937876290600957e+18
14407.0	1.4934802536857597e+18
14408.0	1.4933052002140157e+18
14409.0	1.4930617493880824e+18
14410.0	1.492823351859609e+18
14411.0	1.4925825853882365e+18
14412.0	1.4923409297244157e+18
14413.0	1.4921004333662203e+18
14414.0	1.4918589169532925e+18
14415.0	1.4916179927760893e+18
14416.0	1.491377130674585e+18
14417.0	1.4911359347064824e+18
14418.0	1.4908941431472125e+18
14419.0	1.4906538346938365e+18
14420.0	1.4904123082145792e+18
14421.0	1.490172167533363e+18
14422.0	1.4899311410151421e+18
14423.0	1.4896877052887037e+18
14424.0	1.4891795167051773e+18
14425.0	1.489206489435341e+18
14426.0	1.488968432484352e+18
14427.0	1.48872810725376e+18
14428.0	1.4884841967321088e+18
14429.0	1.4882466011545597e+18
14430.0	1.488004584780595e+18
14431.0	1.4877402832306168e+18
14432.0	1.4875086653751293e+18
14433.0	1.4872111919136765e+18
14434.0	1.4870203762475005e+18
14435.0	1.4867796617854973e+18
14436.0	1.4865422809563136e+18
14437.0	1.4863020882657277e+18
14438.0	1.486059576963891e+18
14439.0	1.4858211744022525e+18
14440.0	1.4855814061752315e+18
14441.0	1.4853394585878525e+18
14442.0	1.4850979136536576e+18
14443.0	1.4848512902561787e+18
14444.0	1.4846202277265403e+18
14445.0	1.4843807531008e+18
14446.0	1.48396228739072e+18
14447.0	1.483898267212185e+18
14448.0	1.4836616547794941e+18
14449.0	1.483422066068684e+18
14450.0	1.4831823230074877e+18
14451.0	1.482942635311104e+18
14452.0	1.4827029341929467e+18
14453.0	1.4824626827821053e+18
14454.0	1.4822237416718339e+18
14455.0	1.4819833157779453e+18
14456.0	1.481744575994265e+18
14457.0	1.481505029226496e+18
14458.0	1.4812656368091136e+18
14459.0	1.481025934013235e+18
14460.0	1.480786370468249e+18
14461.0	1.4805434414137341e+18
14462.0	1.4803015827455997e+18
14463.0	1.4800676328570877e+18
14464.0	1.4798296295931896e+18
14465.0	1.4795860848148477e+18
14466.0	1.4793517826047997e+18
14467.0	1.4791108215177213e+18
14468.0	1.4788734994087936e+18
14469.0	1.478630612297318e+18
14470.0	1.4783904011517955e+18
14471.0	1.4781532652699648e+18
14472.0	1.477905219164569e+18
14473.0	1.4776663350968315e+18
14474.0	1.4774275147825147e+18
14475.0	1.4771885686390781e+18
14476.0	1.4769466411843581e+18
14477.0	1.476711032029184e+18
14478.0	1.4764723895533565e+18
14479.0	1.4762336380256253e+18
14480.0	1.4759932825960445e+18
14481.0	1.475756374884352e+18
14482.0	1.4755171250733053e+18
14483.0	1.4752775095189501e+18
14484.0	1.4750387009486848e+18
14485.0	1.4747956779417597e+18
14486.0	1.4745145924648957e+18
14487.0	1.474324947848396e+18
14488.0	1.4740868455989248e+18
14489.0	1.4738473642622976e+18
14490.0	1.473609772040192e+18
14491.0	1.4733716882456573e+18
14492.0	1.473133708469862e+18
14493.0	1.4728954216710141e+18
14494.0	1.4726540864520187e+18
14495.0	1.4724188765945853e+18
14496.0	1.4721593632620541e+18
14497.0	1.471942745915392e+18
14498.0	1.471705032897331e+18
14499.0	1.4714670246002685e+18
14500.0	1.471228954227507e+18
14501.0	1.4709894443696125e+18
14502.0	1.470714086634291e+18
14503.0	1.4705129395585021e+18
14504.0	1.4702763573247997e+18
14505.0	1.4700381812555776e+18
14506.0	1.4697986596536315e+18
14507.0	1.469523513311232e+18
14508.0	1.4693260354125821e+18
14509.0	1.4690886126403584e+18
14510.0	1.468850975119769e+18
14511.0	1.4686132772012032e+18
14512.0	1.4683733076475904e+18
14513.0	1.4681379216293888e+18
14514.0	1.4678953650290688e+18
14515.0	1.4676614084296704e+18
14516.0	1.4669559667621888e+18
14517.0	1.4671836654600187e+18
14518.0	1.4669503715606523e+18
14519.0	1.4667133933846528e+18
14520.0	1.4664761702612992e+18
14521.0	1.4662319007072253e+18
14522.0	1.465988820657766e+18
14523.0	1.4657479552008187e+18
14524.0	1.4655110927876093e+18
14525.0	1.4652761295552507e+18
14526.0	1.4650397889134587e+18
14527.0	1.464798775817011e+18
14528.0	1.464540759012147e+18
14529.0	1.4643263747129341e+18
14530.0	1.4640886281404413e+18
14531.0	1.4638537336946685e+18
14532.0	1.463612786029363e+18
14533.0	1.4633797404327936e+18
14534.0	1.463142918284902e+18
14535.0	1.4629058042134525e+18
14536.0	1.4626688528809981e+18
14537.0	1.4624300627656701e+18
14538.0	1.4621950424907773e+18
14539.0	1.4619581431676925e+18
14540.0	1.4617212421668864e+18
14541.0	1.4614835979354107e+18
14542.0	1.461247440165273e+18
14543.0	1.4610088362770432e+18
14544.0	1.460773544211251e+18
14545.0	1.4605359402450944e+18
14546.0	1.459875793705369e+18
14547.0	1.459657802304716e+18
14548.0	1.4598238883545085e+18
14549.0	1.4595707805630464e+18
14550.0	1.4593532354363387e+18
14551.0	1.4591170088796157e+18
14552.0	1.458880268940083e+18
14553.0	1.4586420022738941e+18
14554.0	1.4584074014294013e+18
14555.0	1.4581708460392445e+18
14556.0	1.4579342319288315e+18
14557.0	1.4576976111075325e+18
14558.0	1.4574595793223677e+18
14559.0	1.4568788460568566e+18
14560.0	1.4569864735752187e+18
14561.0	1.4567506513494013e+18
14562.0	1.4565118729781245e+18
14563.0	1.4562793206317053e+18
14564.0	1.4560423307116541e+18
14565.0	1.455806934627123e+18
14566.0	1.4555706644496381e+18
14567.0	1.455334345618227e+18
14568.0	1.4550978892136445e+18
14569.0	1.4548612633591803e+18
14570.0	1.4545308948103163e+18
14571.0	1.4543886189854715e+18
14572.0	1.4541470740512765e+18
14573.0	1.453911230015078e+18
14574.0	1.4536792548048893e+18
14575.0	1.453444610339635e+18
14576.0	1.4532085934981115e+18
14577.0	1.4529687816503293e+18
14578.0	1.4527151319547901e+18
14579.0	1.4524794238140413e+18
14580.0	1.4522433314750464e+18
14581.0	1.4520067559522304e+18
14582.0	1.4517710931099648e+18
14583.0	1.4515350796238848e+18
14584.0	1.4512971619237885e+18
14585.0	1.451062957021593e+18
14586.0	1.4508264603516925e+18
14587.0	1.4505908713291776e+18
14588.0	1.4503551480889341e+18
14589.0	1.450120460002918e+18
14590.0	1.4498859430445053e+18
14591.0	1.4496513002569725e+18
14592.0	1.449416442721075e+18
14593.0	1.4491630648164347e+18
14594.0	1.4489477091164157e+18
14595.0	1.448712516036198e+18
14596.0	1.4484715448827901e+18
14597.0	1.4482356085719037e+18
14598.0	1.4480091262222336e+18
14599.0	1.4477758071570432e+18
14600.0	1.447541312009011e+18
14601.0	1.447306934301491e+18
14602.0	1.447072170718003e+18
14603.0	1.4468379792375808e+18
14604.0	1.4465965936869373e+18
14605.0	1.4463677474275323e+18
14606.0	1.446120231482163e+18
14607.0	1.445899077576294e+18
14608.0	1.4456652300287997e+18
14609.0	1.4454311626997757e+18
14610.0	1.4451952884645885e+18
14611.0	1.4449618083381248e+18
14612.0	1.4447283382779901e+18
14613.0	1.4444941182763008e+18
14614.0	1.4442590980014077e+18
14615.0	1.4440253511172093e+18
14616.0	1.4437910522626045e+18
14617.0	1.4435566292566013e+18
14618.0	1.4433222213500925e+18
14619.0	1.4430822115311613e+18
14620.0	1.4428355814227963e+18
14621.0	1.4426190479622141e+18
14622.0	1.4423847809843197e+18
14623.0	1.4421503395233792e+18
14624.0	1.4419066303283197e+18
14625.0	1.441681475056435e+18
14626.0	1.4414471107706875e+18
14627.0	1.441212291822387e+18
14628.0	1.4409783721328637e+18
14629.0	1.4407439407382525e+18
14630.0	1.440509349960089e+18
14631.0	1.4402750544609275e+18
14632.0	1.4400169923575803e+18
14633.0	1.4398031432515581e+18
14634.0	1.4395714431877115e+18
14635.0	1.4393343324717053e+18
14636.0	1.4390934938583037e+18
14637.0	1.4388682999988221e+18
14638.0	1.438633318311526e+18
14639.0	1.4383971202760704e+18
14640.0	1.4381634019131387e+18
14641.0	1.437842301098393e+18
14642.0	1.4376920862949373e+18
14643.0	1.4374481019535357e+18
14644.0	1.4372134289670141e+18
14645.0	1.4369752042438653e+18
14646.0	1.4367430545506301e+18
14647.0	1.4365083379433472e+18
