# Flux units: erg / (cm m2 s)
# Wavelength units: Angstrom
wave	flux
14000.0	1.937003054628863e+18
14001.0	1.936656699070873e+18
14002.0	1.9364009757114365e+18
14003.0	1.9360326671663104e+18
14004.0	1.9356598975594493e+18
14005.0	1.9352924933062653e+18
14006.0	1.9349141435973624e+18
14007.0	1.9345416709472253e+18
14008.0	1.934073385294233e+18
14009.0	1.9338085787500541e+18
14010.0	1.9334257310695421e+18
14011.0	1.93241114738688e+18
14012.0	1.9326987810111483e+18
14013.0	1.9323307224465403e+18
14014.0	1.9319549211967483e+18
14015.0	1.9315888087891963e+18
14016.0	1.9312216058626043e+18
14017.0	1.9308520474148861e+18
14018.0	1.9304784792125437e+18
14019.0	1.9301129774956541e+18
14020.0	1.929742709371699e+18
14021.0	1.9293723993047037e+18
14022.0	1.9289907495174141e+18
14023.0	1.9286029357809661e+18
14024.0	1.9282367696863232e+18
14025.0	1.9278938215809021e+18
14026.0	1.9275261220487163e+18
14027.0	1.9271591808466936e+18
14028.0	1.9267828007829504e+18
14029.0	1.9264122927448061e+18
14030.0	1.9225249144897562e+18
14031.0	1.9255785741615096e+18
14032.0	1.925305642411622e+18
14033.0	1.9248767060410368e+18
14034.0	1.924570335621939e+18
14035.0	1.9242106925088765e+18
14036.0	1.9238330675757046e+18
14037.0	1.923476518181273e+18
14038.0	1.9231089209901053e+18
14039.0	1.9227367922728955e+18
14040.0	1.92236729925632e+18
14041.0	1.9220034668724221e+18
14042.0	1.921626843539046e+18
14043.0	1.9212289148190717e+18
14044.0	1.920889093986713e+18
14045.0	1.9205302964453373e+18
14046.0	1.9201641286729725e+18
14047.0	1.9197817423659003e+18
14048.0	1.9194298335494141e+18
14049.0	1.9190679993319421e+18
14050.0	1.9187014775603197e+18
14051.0	1.9183255286710264e+18
14052.0	1.9179637833727997e+18
14053.0	1.917601341820108e+18
14054.0	1.9172351052611581e+18
14055.0	1.9168686942191616e+18
14056.0	1.9165023318310907e+18
14057.0	1.9161360952721405e+18
14058.0	1.9157698973007864e+18
14059.0	1.9153951530156027e+18
14060.0	1.9150375902773243e+18
14061.0	1.914664639476531e+18
14062.0	1.9143057161060347e+18
14063.0	1.9139218752143355e+18
14064.0	1.912940899650765e+18
14065.0	1.9131992469667837e+18
14066.0	1.9128430314389504e+18
14067.0	1.9124473424773115e+18
14068.0	1.9121124759568381e+18
14069.0	1.9117395889094653e+18
14070.0	1.9113793703378941e+18
14071.0	1.911013880365056e+18
14072.0	1.9106519488397307e+18
14073.0	1.9102869420507133e+18
14074.0	1.9099218379538427e+18
14075.0	1.9095357724033021e+18
14076.0	1.9091596205096955e+18
14077.0	1.9080351309627395e+18
14078.0	1.908402147662233e+18
14079.0	1.908086779622195e+18
14080.0	1.9077344194985981e+18
14081.0	1.9073704226979835e+18
14082.0	1.9070036358463483e+18
14083.0	1.9066402530918397e+18
14084.0	1.9062749761896443e+18
14085.0	1.9052912911056893e+18
14086.0	1.9054803720077307e+18
14087.0	1.905182786138931e+18
14088.0	1.9048007135657984e+18
14089.0	1.9044345357271037e+18
14090.0	1.904083331553689e+18
14091.0	1.9037317549260797e+18
14092.0	1.9033689459523584e+18
14093.0	1.903005563197849e+18
14094.0	1.9026418633539581e+18
14095.0	1.902276344859852e+18
14096.0	1.9017628194439165e+18
14097.0	1.9015042523463675e+18
14098.0	1.9011178378297341e+18
14099.0	1.900825504907264e+18
14100.0	1.9004518528188416e+18
14101.0	1.9001025746698237e+18
14102.0	1.8997399552786427e+18
14103.0	1.899361956213555e+18
14104.0	1.8990123878187005e+18
14105.0	1.8986529175109632e+18
14106.0	1.898290831635251e+18
14107.0	1.8979249541087227e+18
14108.0	1.8975508154810365e+18
14109.0	1.8971983261728765e+18
14110.0	1.8968365791969277e+18
14111.0	1.8964677555912704e+18
14112.0	1.896108140999475e+18
14113.0	1.8957413944131584e+18
14114.0	1.8953782901604347e+18
14115.0	1.8950224470867965e+18
14116.0	1.894568383479808e+18
14117.0	1.8882243359408138e+18
14118.0	1.8939260258222077e+18
14119.0	1.893479808919142e+18
14120.0	1.8931385603457021e+18
14121.0	1.8928310507536381e+18
14122.0	1.892408524957286e+18
14123.0	1.8920705143865341e+18
14124.0	1.891700011381555e+18
14125.0	1.8909214780948472e+18
14126.0	1.891045448299315e+18
14127.0	1.8907008677707768e+18
14128.0	1.89034008716247e+18
14129.0	1.8899689768222715e+18
14130.0	1.8895990811525115e+18
14131.0	1.889261597386342e+18
14132.0	1.8888935857979387e+18
14133.0	1.8879621332205553e+18
14134.0	1.88817830093783e+18
14135.0	1.8877880192729083e+18
14136.0	1.887363322504806e+18
14137.0	1.8870832738598912e+18
14138.0	1.886673453449216e+18
14139.0	1.8863803554856955e+18
14140.0	1.8860140081971192e+18
14141.0	1.885600770267545e+18
14142.0	1.88485617057792e+18
14143.0	1.8849342366416893e+18
14144.0	1.884585721856e+18
14145.0	1.8842267045330941e+18
14146.0	1.883858907693056e+18
14147.0	1.8835040024657915e+18
14148.0	1.8831372860784635e+18
14149.0	1.8827814295830525e+18
14150.0	1.8824358524878843e+18
14151.0	1.8820564760133624e+18
14152.0	1.8817191214317563e+18
14153.0	1.8813606242025464e+18
14154.0	1.8809752146411515e+18
14155.0	1.8804364193824768e+18
14156.0	1.8802577739087872e+18
14157.0	1.8799275781652477e+18
14158.0	1.8795648497221624e+18
14159.0	1.8792121288884224e+18
14160.0	1.8788470180806653e+18
14161.0	1.87843208061911e+18
14162.0	1.878024187910553e+18
14163.0	1.8777728954138621e+18
14164.0	1.8772335901278205e+18
14165.0	1.8770004237352955e+18
14166.0	1.8767056044294141e+18
14167.0	1.876335462134579e+18
14168.0	1.8759840230801405e+18
14169.0	1.8756323122348027e+18
14170.0	1.875272155738931e+18
14171.0	1.8749208811012093e+18
14172.0	1.8745672274542587e+18
14173.0	1.8741697248755707e+18
14174.0	1.8738458440761336e+18
14175.0	1.8734962119278587e+18
14176.0	1.8731396390453243e+18
14177.0	1.872784138226892e+18
14178.0	1.8724273606623227e+18
14179.0	1.8720640215285755e+18
14180.0	1.8717157785337856e+18
14181.0	1.871359608304435e+18
14182.0	1.8710025690152955e+18
14183.0	1.8706471101399035e+18
14184.0	1.8702847843500027e+18
14185.0	1.8699286023766013e+18
14186.0	1.868471382048768e+18
14187.0	1.8691809626554363e+18
14188.0	1.8688624069443581e+18
14189.0	1.8685023494340603e+18
14190.0	1.868148440773427e+18
14191.0	1.8677882272350205e+18
14192.0	1.8674354007048187e+18
14193.0	1.8669028516036608e+18
14194.0	1.8667261120217088e+18
14195.0	1.8663818771038205e+18
14196.0	1.8660271312601088e+18
14197.0	1.8656723501842432e+18
14198.0	1.8653120292716544e+18
14199.0	1.8649596691480576e+18
14200.0	1.8639110495272963e+18
14201.0	1.8642151332118518e+18
14202.0	1.8638952554561536e+18
14203.0	1.8635358254137336e+18
14204.0	1.86318771495895e+18
14205.0	1.8628334288109565e+18
14206.0	1.8623473576312827e+18
14207.0	1.8621274150404093e+18
14208.0	1.8617743922167803e+18
14209.0	1.8612760250155003e+18
14210.0	1.8609261697302523e+18
14211.0	1.8606133501493243e+18
14212.0	1.860264090455244e+18
14213.0	1.8599057895194621e+18
14214.0	1.8595563805081597e+18
14215.0	1.8591863422320637e+18
14216.0	1.8588501587001341e+18
14217.0	1.8584968808628216e+18
14218.0	1.8581305016975352e+18
14219.0	1.8577897480519677e+18
14220.0	1.8574296888639483e+18
14221.0	1.8570756157865981e+18
14222.0	1.8566750580768765e+18
14223.0	1.8563750462226435e+18
14224.0	1.8560195017834493e+18
14225.0	1.853565917829531e+18
14226.0	1.8552957175857147e+18
14227.0	1.8549591632773117e+18
14228.0	1.8493292060606482e+18
14229.0	1.853218275459068e+18
14230.0	1.853808266392371e+18
14231.0	1.8534109634625533e+18
14232.0	1.8531056734961661e+18
14233.0	1.8527493237506045e+18
14234.0	1.8524008878178304e+18
14235.0	1.852045742676377e+18
14236.0	1.851695931011891e+18
14237.0	1.8513396785741821e+18
14238.0	1.8509878922313728e+18
14239.0	1.8506227982008317e+18
14240.0	1.8485826233040893e+18
14241.0	1.8499104443203581e+18
14242.0	1.8495728481468413e+18
14243.0	1.8490638643232768e+18
14244.0	1.8488787881426944e+18
14245.0	1.8485133669564413e+18
14246.0	1.8481585741365243e+18
14247.0	1.8478190552940541e+18
14248.0	1.8472944233611261e+18
14249.0	1.8468153063374843e+18
14250.0	1.8464633488670717e+18
14251.0	1.8461143005659133e+18
14252.0	1.8457623951048696e+18
14253.0	1.845409546764288e+18
14254.0	1.8450547572998141e+18
14255.0	1.844663113324953e+18
14256.0	1.842123230727374e+18
14257.0	1.8438579092979707e+18
14258.0	1.8436488165326843e+18
14259.0	1.843279945950822e+18
14260.0	1.842878900024115e+18
14261.0	1.8425752777129981e+18
14262.0	1.8422609381163003e+18
14263.0	1.8386747494760468e+18
14264.0	1.8408823240785912e+18
14265.0	1.841205909599027e+18
14266.0	1.840869450920755e+18
14267.0	1.8405221726158843e+18
14268.0	1.8401700540841981e+18
14269.0	1.8398122765975547e+18
14270.0	1.8394714625540093e+18
14271.0	1.839053142805708e+18
14272.0	1.8386694445203453e+18
14273.0	1.8382934486548477e+18
14274.0	1.8330334877712412e+18
14275.0	1.8371093395931133e+18
14276.0	1.8372479697289213e+18
14277.0	1.8369079123378176e+18
14278.0	1.8365738611900419e+18
14279.0	1.8362238884642816e+18
14280.0	1.83586786419671e+18
14281.0	1.8355261995483133e+18
14282.0	1.835176933143347e+18
14283.0	1.834827274151526e+18
14284.0	1.8344774507429885e+18
14285.0	1.8341265099718653e+18
14286.0	1.833772482192998e+18
14287.0	1.8334282472751096e+18
14288.0	1.8330773132148733e+18
14289.0	1.8316368147382246e+18
14290.0	1.8323781260935163e+18
14291.0	1.8320307957792763e+18
14292.0	1.8316829151723515e+18
14293.0	1.8313310214553597e+18
14294.0	1.830835325186867e+18
14295.0	1.8306188621905917e+18
14296.0	1.8293578295934984e+18
14297.0	1.8298339753721853e+18
14298.0	1.8287913368289275e+18
14299.0	1.8291192357715965e+18
14300.0	1.8287867583266813e+18
14301.0	1.8284414865768443e+18
14302.0	1.8280938962157565e+18
14303.0	1.827707988371046e+18
14304.0	1.8273764319952893e+18
14305.0	1.8270415184986112e+18
14306.0	1.82664677073879e+18
14307.0	1.8263042403860475e+18
14308.0	1.8259718166282235e+18
14309.0	1.825591992202035e+18
14310.0	1.8250757505548285e+18
14311.0	1.8244056031166461e+18
14312.0	1.8244101933629437e+18
14313.0	1.8240962245427197e+18
14314.0	1.8238617914703872e+18
14315.0	1.8235485658808315e+18
14316.0	1.8231543096934397e+18
14317.0	1.8227900763340797e+18
14318.0	1.8225221660049403e+18
14319.0	1.822179486334976e+18
14320.0	1.8218332666724347e+18
14321.0	1.8214845354606587e+18
14322.0	1.8210975941394427e+18
14323.0	1.8207742435000315e+18
14324.0	1.8202557973266432e+18
14325.0	1.8198196115210237e+18
14326.0	1.8194832333733888e+18
14327.0	1.8191289472253947e+18
14328.0	1.8187819558109184e+18
14329.0	1.8184420913577981e+18
14330.0	1.818095063033446e+18
14331.0	1.8177425804361723e+18
14332.0	1.8174010147733504e+18
14333.0	1.817054100534067e+18
14334.0	1.8167070688542715e+18
14335.0	1.816345456096051e+18
14336.0	1.815790136957337e+18
14337.0	1.8156628851294203e+18
14338.0	1.81531649769472e+18
14339.0	1.8149578494705661e+18
14340.0	1.814624239563571e+18
14341.0	1.8142656450265085e+18
14342.0	1.81393123484631e+18
14343.0	1.813584219943731e+18
14344.0	1.813234084478976e+18
14345.0	1.8128925423042555e+18
14346.0	1.812535029897625e+18
14347.0	1.8121178879098875e+18
14348.0	1.8118459829256187e+18
14349.0	1.811507811293593e+18
14350.0	1.810984798362009e+18
14351.0	1.8106232560680955e+18
14352.0	1.8104626914000893e+18
14353.0	1.8101257277276155e+18
14354.0	1.809758560033177e+18
14355.0	1.8093692413804541e+18
14356.0	1.808976699824537e+18
14357.0	1.8086513929617403e+18
14358.0	1.8083060188708861e+18
14359.0	1.807943954805555e+18
14360.0	1.807598678022553e+18
14361.0	1.8072620566052856e+18
14362.0	1.8069234001117184e+18
14363.0	1.8065761117405181e+18
14364.0	1.8056691589316608e+18
14365.0	1.8057688944476155e+18
14366.0	1.8054413662814205e+18
14367.0	1.805197524546355e+18
14368.0	1.8048521789767677e+18
14369.0	1.80450773434368e+18
14370.0	1.8041631773032443e+18
14371.0	1.8038189843283965e+18
14372.0	1.8034676358709243e+18
14373.0	1.8031248370827261e+18
14374.0	1.8027837982244861e+18
14375.0	1.8024373789130747e+18
14376.0	1.8020946807881728e+18
14377.0	1.801749284886937e+18
14378.0	1.8014023605813243e+18
14379.0	1.8010607076769787e+18
14380.0	1.800715155747635e+18
14381.0	1.8003585946091517e+18
14382.0	1.800025514862182e+18
14383.0	1.7996782952775675e+18
14384.0	1.799318085094604e+18
14385.0	1.7989941975842813e+18
14386.0	1.79863024608215e+18
14387.0	1.798305340194816e+18
14388.0	1.7979591859634176e+18
14389.0	1.7976168535818237e+18
14390.0	1.7972707144499195e+18
14391.0	1.796929058190131e+18
14392.0	1.7965836337676285e+18
14393.0	1.796152497904025e+18
14394.0	1.795761462942105e+18
14395.0	1.7954405768757248e+18
14396.0	1.7951146710663165e+18
14397.0	1.7947714830467064e+18
14398.0	1.7944267666227197e+18
14399.0	1.7940825484820477e+18
14400.0	1.7937159914782715e+18
14401.0	1.793386985239347e+18
14402.0	1.793046313802137e+18
14403.0	1.7916943705047022e+18
14404.0	1.7877795329802212e+18
14405.0	1.7902058724130767e+18
14406.0	1.7916682920001533e+18
14407.0	1.7898843286798339e+18
14408.0	1.7909449842753533e+18
14409.0	1.7906236636790781e+18
14410.0	1.7902605241942013e+18
14411.0	1.789957854828953e+18
14412.0	1.7896127810502653e+18
14413.0	1.7892738292776955e+18
14414.0	1.7889277320888315e+18
14415.0	1.7885856698204152e+18
14416.0	1.7882330513276925e+18
14417.0	1.7878604142608381e+18
14418.0	1.7874869316222976e+18
14419.0	1.7872103625719803e+18
14420.0	1.7868641093550077e+18
14421.0	1.786525058596864e+18
14422.0	1.786172874634035e+18
14423.0	1.7857783718215675e+18
14424.0	1.7794783846072287e+18
14425.0	1.7851210102996987e+18
14426.0	1.7848091822522365e+18
14427.0	1.7844697019973627e+18
14428.0	1.7841042808111104e+18
14429.0	1.783781998880358e+18
14430.0	1.7834393259212795e+18
14431.0	1.7821377478262784e+18
14432.0	1.7827501380206584e+18
14433.0	1.7813107300630518e+18
14434.0	1.7819595972804605e+18
14435.0	1.781517304568217e+18
14436.0	1.7812953269010427e+18
14437.0	1.780956715705958e+18
14438.0	1.7804913241227261e+18
14439.0	1.780255951526297e+18
14440.0	1.7799101731045376e+18
14441.0	1.7793049534922744e+18
14442.0	1.7789561937592312e+18
14443.0	1.7785687239557115e+18
14444.0	1.7782811507294205e+18
14445.0	1.7779422224449533e+18
14446.0	1.7757512421867525e+18
14447.0	1.77724038620119e+18
14448.0	1.776917877778022e+18
14449.0	1.7765763825795072e+18
14450.0	1.7762277386092541e+18
14451.0	1.775887073882931e+18
14452.0	1.775547006425497e+18
14453.0	1.7751886283145213e+18
14454.0	1.774860962575155e+18
14455.0	1.7745096527052797e+18
14456.0	1.7741629112713213e+18
14457.0	1.773824038351667e+18
14458.0	1.7734785652752384e+18
14459.0	1.7731253495136253e+18
14460.0	1.7727571382763517e+18
14461.0	1.7722785816117243e+18
14462.0	1.7715820654231552e+18
14463.0	1.7716778264166397e+18
14464.0	1.7714065975541755e+18
14465.0	1.7710585844072448e+18
14466.0	1.7707494977568763e+18
14467.0	1.7703831437574144e+18
14468.0	1.7700711412269056e+18
14469.0	1.7696436074315776e+18
14470.0	1.769357374704844e+18
14471.0	1.7690470364741627e+18
14472.0	1.768710883141222e+18
14473.0	1.7683749680447488e+18
14474.0	1.7680389707399165e+18
14475.0	1.76769545053143e+18
14476.0	1.7672864454934525e+18
14477.0	1.7670124098027515e+18
14478.0	1.766673931147673e+18
14479.0	1.766328338953011e+18
14480.0	1.7659739269758976e+18
14481.0	1.7656557034536957e+18
14482.0	1.7653107957694461e+18
14483.0	1.7649095921369085e+18
14484.0	1.7645349703254016e+18
14485.0	1.7641611152326653e+18
14486.0	1.7635204319412221e+18
14487.0	1.7635194890616827e+18
14488.0	1.763122931040256e+18
14489.0	1.7627506999820288e+18
14490.0	1.7624799777914872e+18
14491.0	1.76215951451095e+18
14492.0	1.7618196869677053e+18
14493.0	1.761459713343488e+18
14494.0	1.7611107136962552e+18
14495.0	1.7607955788595197e+18
14496.0	1.760301038541209e+18
14497.0	1.7601144792547325e+18
14498.0	1.7597754050084861e+18
14499.0	1.759434874499891e+18
14500.0	1.759093583983411e+18
14501.0	1.7587149826162685e+18
14502.0	1.758122627773235e+18
14503.0	1.7580372736868347e+18
14504.0	1.7577238601924605e+18
14505.0	1.7573585396695037e+18
14506.0	1.7569850704527357e+18
14507.0	1.7564245352775677e+18
14508.0	1.7563678182211581e+18
14509.0	1.7560280695308288e+18
14510.0	1.755683819513446e+18
14511.0	1.755346543784755e+18
14512.0	1.754988132119347e+18
14513.0	1.7546650130055165e+18
14514.0	1.7542861398474752e+18
14515.0	1.753980064707379e+18
14516.0	1.750851425979599e+18
14517.0	1.7532921686523904e+18
14518.0	1.7529617581604861e+18
14519.0	1.7526221503987707e+18
14520.0	1.752280740764057e+18
14521.0	1.7519404820463613e+18
14522.0	1.7515936667926525e+18
14523.0	1.751108441184665e+18
14524.0	1.750841096247705e+18
14525.0	1.7505719511154685e+18
14526.0	1.75023259165655e+18
14527.0	1.7498733629407224e+18
14528.0	1.7493977188007933e+18
14529.0	1.7492040828846077e+18
14530.0	1.7488553449619453e+18
14531.0	1.7485330512871421e+18
14532.0	1.748099439106457e+18
14533.0	1.7478536377925627e+18
14534.0	1.7475153688526843e+18
14535.0	1.7471622470434813e+18
14536.0	1.746829771276288e+18
14537.0	1.7464771628498941e+18
14538.0	1.7461534095572987e+18
14539.0	1.745555055181824e+18
14540.0	1.7451098046463997e+18
14541.0	1.7447423165071357e+18
14542.0	1.7444246566993915e+18
14543.0	1.744028910695219e+18
14544.0	1.7437427215892475e+18
14545.0	1.743385878593536e+18
14546.0	1.735804912349999e+18
14547.0	1.7360554398056394e+18
14548.0	1.7423575476600832e+18
14549.0	1.7418980784340987e+18
14550.0	1.7416876351029243e+18
14551.0	1.7413581389692923e+18
14552.0	1.7410160364355581e+18
14553.0	1.740667124029849e+18
14554.0	1.7403354367918077e+18
14555.0	1.7399939231383547e+18
14556.0	1.7396510488526848e+18
14557.0	1.739310806912204e+18
14558.0	1.7389645604061184e+18
14559.0	1.736557820116988e+18
14560.0	1.7382644656373757e+18
14561.0	1.7379360784777208e+18
14562.0	1.737557426778931e+18
14563.0	1.737250905364889e+18
14564.0	1.7368381690740733e+18
14565.0	1.736580326752256e+18
14566.0	1.7362397576560635e+18
14567.0	1.7358912361594877e+18
14568.0	1.7355024879321085e+18
14569.0	1.735208933628313e+18
14570.0	1.7342657386774523e+18
14571.0	1.734524916465664e+18
14572.0	1.7341206778347512e+18
14573.0	1.7337779998425088e+18
14574.0	1.733330905491046e+18
14575.0	1.73312956212183e+18
14576.0	1.7327859546718203e+18
14577.0	1.732475398337331e+18
14578.0	1.732135814063718e+18
14579.0	1.731800152303206e+18
14580.0	1.731456935762329e+18
14581.0	1.7311046477807608e+18
14582.0	1.7307595303813115e+18
14583.0	1.7304336648372221e+18
14584.0	1.7300433529733115e+18
14585.0	1.729749568821657e+18
14586.0	1.7294056509931515e+18
14587.0	1.7290663603208187e+18
14588.0	1.7287258063241216e+18
14589.0	1.7283895573610493e+18
14590.0	1.728053519790899e+18
14591.0	1.7277071591997435e+18
14592.0	1.727366927325593e+18
14593.0	1.7269060588797944e+18
14594.0	1.726704663501209e+18
14595.0	1.7263575647125496e+18
14596.0	1.7255191501864947e+18
14597.0	1.7250712186519542e+18
14598.0	1.7252957061906432e+18
14599.0	1.7250151475183608e+18
14600.0	1.7246646177890296e+18
14601.0	1.7243314138906621e+18
14602.0	1.7239674640662525e+18
14603.0	1.7236526731624443e+18
14604.0	1.7231947356962816e+18
14605.0	1.72279802667991e+18
14606.0	1.7224688040148987e+18
14607.0	1.7219160970887165e+18
14608.0	1.7215435120312315e+18
14609.0	1.7211856691134456e+18
14610.0	1.7207286728491003e+18
14611.0	1.720491156124467e+18
14612.0	1.720196447548211e+18
14613.0	1.7198669111492605e+18
14614.0	1.7195247331180541e+18
14615.0	1.7191902088527867e+18
14616.0	1.7188583790084093e+18
14617.0	1.7185129143205888e+18
14618.0	1.7181431763566587e+18
14619.0	1.717449300901887e+18
14620.0	1.7161545125462016e+18
14621.0	1.7171631050850304e+18
14622.0	1.7168245777760256e+18
14623.0	1.716489957880627e+18
14624.0	1.7160834258042877e+18
14625.0	1.715808299594547e+18
14626.0	1.7154668278841341e+18
14627.0	1.7151255038132221e+18
14628.0	1.7147948450185213e+18
14629.0	1.7144541651927037e+18
14630.0	1.714100231366246e+18
14631.0	1.7137717301215224e+18
14632.0	1.7129498981957632e+18
14633.0	1.7130117792792568e+18
14634.0	1.7127352857264125e+18
14635.0	1.7121466654916593e+18
14636.0	1.7113531182743547e+18
14637.0	1.7117332950220797e+18
14638.0	1.7113606227230715e+18
14639.0	1.7110095192129533e+18
14640.0	1.7107009996324861e+18
14641.0	1.7085229025984497e+18
14642.0	1.710014991014297e+18
14643.0	1.7096786615205885e+18
14644.0	1.7093185939439613e+18
14645.0	1.7089685071331328e+18
14646.0	1.7086113822801912e+18
14647.0	1.7082086083002365e+18
14648.0	1.707938815567462e+18
