# Flux units: erg / (cm m2 s)
# Wavelength units: Angstrom
wave	flux
14000.0	1.787940622775091e+18
14001.0	1.7877805161250813e+18
14002.0	1.787618968312217e+18
14003.0	1.787303051657216e+18
14004.0	1.7869818669563896e+18
14005.0	1.7866580297777147e+18
14006.0	1.7863276461293565e+18
14007.0	1.7859981701283837e+18
14008.0	1.7856166176489472e+18
14009.0	1.7853367971741693e+18
14010.0	1.7849972296777723e+18
14011.0	1.784185690574028e+18
14012.0	1.7843424568803325e+18
14013.0	1.7840617136586747e+18
14014.0	1.7837377724612605e+18
14015.0	1.783420097554022e+18
14016.0	1.78309810922455e+18
14017.0	1.7827754900717565e+18
14018.0	1.78244207813591e+18
14019.0	1.7821288793899003e+18
14020.0	1.7818049348370427e+18
14021.0	1.781481082558873e+18
14022.0	1.7811575758913533e+18
14023.0	1.780823669027635e+18
14024.0	1.7805027628285947e+18
14025.0	1.7801878947495933e+18
14026.0	1.779864087769907e+18
14027.0	1.7795401969041405e+18
14028.0	1.7792068973756413e+18
14029.0	1.778864341857075e+18
14030.0	1.778108969517056e+18
14031.0	1.7780887361945597e+18
14032.0	1.7779120452665336e+18
14033.0	1.7775653474533376e+18
14034.0	1.7772833509736443e+18
14035.0	1.7769632215597056e+18
14036.0	1.7766368862535677e+18
14037.0	1.7763191022944256e+18
14038.0	1.7759990081126397e+18
14039.0	1.7756732751085565e+18
14040.0	1.7753538184609787e+18
14041.0	1.7750323904905213e+18
14042.0	1.7747018575249403e+18
14043.0	1.774358748358246e+18
14044.0	1.7740530322505723e+18
14045.0	1.7737381658492925e+18
14046.0	1.7734217140011005e+18
14047.0	1.7730978466234368e+18
14048.0	1.7727833946193915e+18
14049.0	1.7724629145616381e+18
14050.0	1.772141610742579e+18
14051.0	1.7718158106296317e+18
14052.0	1.7714945974075387e+18
14053.0	1.7711790817279997e+18
14054.0	1.7708585479831544e+18
14055.0	1.770537883376025e+18
14056.0	1.77021723386839e+18
14057.0	1.7698966732799995e+18
14058.0	1.7695761009475581e+18
14059.0	1.7692463799992312e+18
14060.0	1.7689347952214013e+18
14061.0	1.7686088877342717e+18
14062.0	1.7682915349495805e+18
14063.0	1.7679555292561403e+18
14064.0	1.76753476674519e+18
14065.0	1.7673238049980416e+18
14066.0	1.7670113847148544e+18
14067.0	1.766694417806131e+18
14068.0	1.7663746843344893e+18
14069.0	1.7660545314324475e+18
14070.0	1.7657351972585472e+18
14071.0	1.7654135696392187e+18
14072.0	1.765096312484659e+18
14073.0	1.7647768222826493e+18
14074.0	1.7644570418348024e+18
14075.0	1.7641198197932027e+18
14076.0	1.7638098187845632e+18
14077.0	1.7633897089073152e+18
14078.0	1.7631542994010107e+18
14079.0	1.762850626758246e+18
14080.0	1.7625361562992635e+18
14081.0	1.7622218368352253e+18
14082.0	1.7619029388689405e+18
14083.0	1.7615802375077885e+18
14084.0	1.7612446814437376e+18
14085.0	1.7607524614143995e+18
14086.0	1.760584036620697e+18
14087.0	1.7602977149747197e+18
14088.0	1.7599804880191488e+18
14089.0	1.7596749178732541e+18
14090.0	1.7593572396105725e+18
14091.0	1.7590398415273981e+18
14092.0	1.7587220609236987e+18
14093.0	1.7584039581974525e+18
14094.0	1.758085397453209e+18
14095.0	1.7577653955461115e+18
14096.0	1.7574391256711163e+18
14097.0	1.757110985136537e+18
14098.0	1.7568089868599296e+18
14099.0	1.756494734504755e+18
14100.0	1.756170219526553e+18
14101.0	1.7558629129388032e+18
14102.0	1.7555437129826304e+18
14103.0	1.7552157569974272e+18
14104.0	1.7549088530628605e+18
14105.0	1.754595041948467e+18
14106.0	1.7542780012199933e+18
14107.0	1.7539530433232893e+18
14108.0	1.753632397171097e+18
14109.0	1.753323698074419e+18
14110.0	1.7530077629644795e+18
14111.0	1.7526867359694848e+18
14112.0	1.7523658683580416e+18
14113.0	1.75205469126656e+18
14114.0	1.7517205310668797e+18
14115.0	1.751399559436697e+18
14116.0	1.7509571341844475e+18
14117.0	1.7498876554510333e+18
14118.0	1.750392834202009e+18
14119.0	1.7501267660111864e+18
14120.0	1.7498270695686141e+18
14121.0	1.74950899033047e+18
14122.0	1.7492008297824256e+18
14123.0	1.7488808161312763e+18
14124.0	1.7485254763741181e+18
14125.0	1.7479375406497787e+18
14126.0	1.747911502410547e+18
14127.0	1.7476261085446141e+18
14128.0	1.7473151428460536e+18
14129.0	1.7469906966544381e+18
14130.0	1.7466644955660285e+18
14131.0	1.7463640928026621e+18
14132.0	1.7460030622138365e+18
14133.0	1.7453611139203064e+18
14134.0	1.7453690998751227e+18
14135.0	1.7450951799472125e+18
14136.0	1.7447926364110843e+18
14137.0	1.7444794997407741e+18
14138.0	1.7441644940886013e+18
14139.0	1.7438519412654077e+18
14140.0	1.7435346975326203e+18
14141.0	1.7432076273844221e+18
14142.0	1.7428837432295421e+18
14143.0	1.742589962433331e+18
14144.0	1.7422822280265723e+18
14145.0	1.741968245784576e+18
14146.0	1.741653948130918e+18
14147.0	1.7413431149723648e+18
14148.0	1.741029891060531e+18
14149.0	1.7407167409684477e+18
14150.0	1.740402837579366e+18
14151.0	1.7400880147988477e+18
14152.0	1.739774116442931e+18
14153.0	1.7394624360349693e+18
14154.0	1.739124131862937e+18
14155.0	1.7388237576208381e+18
14156.0	1.7385206587588603e+18
14157.0	1.7382073224396797e+18
14158.0	1.7378919191674877e+18
14159.0	1.7375786533126141e+18
14160.0	1.73724677481431e+18
14161.0	1.7369086434476032e+18
14162.0	1.736566559368806e+18
14163.0	1.7363047676903421e+18
14164.0	1.7359905589559293e+18
14165.0	1.7356895488573435e+18
14166.0	1.7353875723911163e+18
14167.0	1.7350639986147325e+18
14168.0	1.7347637149695997e+18
14169.0	1.7344542810308605e+18
14170.0	1.734139597501235e+18
14171.0	1.7338247042564093e+18
14172.0	1.733516407812915e+18
14173.0	1.7331947432837115e+18
14174.0	1.7328860626419707e+18
14175.0	1.7325807676424187e+18
14176.0	1.732269550285619e+18
14177.0	1.7319577843138557e+18
14178.0	1.7316454982483965e+18
14179.0	1.731331442186649e+18
14180.0	1.7310221038780416e+18
14181.0	1.730710232209817e+18
14182.0	1.7303975904673784e+18
14183.0	1.730084960468992e+18
14184.0	1.729767094301491e+18
14185.0	1.7294428242706427e+18
14186.0	1.729010332807987e+18
14187.0	1.7287809194786808e+18
14188.0	1.7285190925680637e+18
14189.0	1.7282153746268163e+18
14190.0	1.7279053216088061e+18
14191.0	1.7275932066709504e+18
14192.0	1.7272734262231037e+18
14193.0	1.7269554442928125e+18
14194.0	1.7266610293178363e+18
14195.0	1.7263539425116157e+18
14196.0	1.72604391465943e+18
14197.0	1.7257331687424e+18
14198.0	1.7254183929380861e+18
14199.0	1.7251013337546747e+18
14200.0	1.7247137397997565e+18
14201.0	1.7244557146062843e+18
14202.0	1.7241748321337344e+18
14203.0	1.7238657857486843e+18
14204.0	1.7235564474400763e+18
14205.0	1.7232397640663037e+18
14206.0	1.7228528059678723e+18
14207.0	1.7226127776940024e+18
14208.0	1.722310118395084e+18
14209.0	1.7219093744582653e+18
14210.0	1.7216136575713275e+18
14211.0	1.721377622274867e+18
14212.0	1.7210808081580027e+18
14213.0	1.7207735837786107e+18
14214.0	1.7204633462112253e+18
14215.0	1.720145612583731e+18
14216.0	1.7198469529731072e+18
14217.0	1.7195382840754176e+18
14218.0	1.7192175221604344e+18
14219.0	1.718919964812902e+18
14220.0	1.7186089521381376e+18
14221.0	1.7183010449260544e+18
14222.0	1.7179821486374912e+18
14223.0	1.7176792242585597e+18
14224.0	1.7173567980437496e+18
14225.0	1.716740089393971e+18
14226.0	1.7166890346479613e+18
14227.0	1.7164140376227837e+18
14228.0	1.7152284085452797e+18
14229.0	1.7154655276498936e+18
14230.0	1.715505771157913e+18
14231.0	1.7152088681218048e+18
14232.0	1.714906057827942e+18
14233.0	1.714598184170291e+18
14234.0	1.714291119174451e+18
14235.0	1.713981269160755e+18
14236.0	1.713673700848435e+18
14237.0	1.713361624498176e+18
14238.0	1.7130443958648827e+18
14239.0	1.7126747786969088e+18
14240.0	1.71103426225111e+18
14241.0	1.7119987776880635e+18
14242.0	1.7117829773918203e+18
14243.0	1.7114073858572285e+18
14244.0	1.7111846045614077e+18
14245.0	1.7108807893123072e+18
14246.0	1.7105778884214781e+18
14247.0	1.7102701020053504e+18
14248.0	1.7099545745817597e+18
14249.0	1.7096578862940157e+18
14250.0	1.7093537925431293e+18
14251.0	1.7090476771377152e+18
14252.0	1.7087393135853568e+18
14253.0	1.7084282572898304e+18
14254.0	1.7081119933464576e+18
14255.0	1.7077500215558141e+18
14256.0	1.7072200494350333e+18
14257.0	1.7070470864044027e+18
14258.0	1.706870777996902e+18
14259.0	1.7065599297388541e+18
14260.0	1.706258798844313e+18
14261.0	1.7059314116067325e+18
14262.0	1.705609263893708e+18
14263.0	1.7049264697901056e+18
14264.0	1.704764109959987e+18
14265.0	1.7047020476825597e+18
14266.0	1.7044361975955453e+18
14267.0	1.7041399992025088e+18
14268.0	1.7038356118503421e+18
14269.0	1.7035235841540093e+18
14270.0	1.7032231864238075e+18
14271.0	1.702909103518515e+18
14272.0	1.7025842680954875e+18
14273.0	1.70218444858327e+18
14274.0	1.7012758633512957e+18
14275.0	1.7014260697661437e+18
14276.0	1.7013320452145147e+18
14277.0	1.70106980222894e+18
14278.0	1.7007796738326525e+18
14279.0	1.7004782677917693e+18
14280.0	1.7001742596046848e+18
14281.0	1.6998669194625021e+18
14282.0	1.6995517728817147e+18
14283.0	1.6992473150652413e+18
14284.0	1.6989423841312765e+18
14285.0	1.698636725066137e+18
14286.0	1.698329574506496e+18
14287.0	1.698017488089907e+18
14288.0	1.697659678726553e+18
14289.0	1.6965126523453435e+18
14290.0	1.6970551016816637e+18
14291.0	1.6967979371593725e+18
14292.0	1.6964968129757184e+18
14293.0	1.6961870401372157e+18
14294.0	1.6957994545709053e+18
14295.0	1.695524459223449e+18
14296.0	1.694596311757619e+18
14297.0	1.694853729615872e+18
14298.0	1.6944958044897275e+18
14299.0	1.6943332466884605e+18
14300.0	1.6940608601980925e+18
14301.0	1.693765339604582e+18
14302.0	1.6934638312226808e+18
14303.0	1.6931268675502077e+18
14304.0	1.692835576492851e+18
14305.0	1.6925334708420603e+18
14306.0	1.6922278637862907e+18
14307.0	1.691922387592806e+18
14308.0	1.691619880966553e+18
14309.0	1.691312792482611e+18
14310.0	1.6910000332996605e+18
14311.0	1.6906863866019837e+18
14312.0	1.690371087348531e+18
14313.0	1.68998699312087e+18
14314.0	1.689799299694592e+18
14315.0	1.68949370102743e+18
14316.0	1.689167359010406e+18
14317.0	1.688891637209497e+18
14318.0	1.6885968296476672e+18
14319.0	1.688297222124339e+18
14320.0	1.6879954872500221e+18
14321.0	1.687689022878515e+18
14322.0	1.6873659138310136e+18
14323.0	1.6870702942519293e+18
14324.0	1.6867871837650944e+18
14325.0	1.6864778270015488e+18
14326.0	1.686186025916825e+18
14327.0	1.6858770449629181e+18
14328.0	1.6855759056797693e+18
14329.0	1.685276224336691e+18
14330.0	1.6849586165383168e+18
14331.0	1.684656762545766e+18
14332.0	1.684355237386649e+18
14333.0	1.684053467280179e+18
14334.0	1.6837510764167165e+18
14335.0	1.6834359231250432e+18
14336.0	1.6831162685063165e+18
14337.0	1.6828419526361085e+18
14338.0	1.682543559783219e+18
14339.0	1.6822340100816893e+18
14340.0	1.6819431418101757e+18
14341.0	1.6816405479423997e+18
14342.0	1.681339130157465e+18
14343.0	1.6810399017992187e+18
14344.0	1.6807312496787453e+18
14345.0	1.680435433806233e+18
14346.0	1.6801345143046141e+18
14347.0	1.6798279912128507e+18
14348.0	1.6795325528276987e+18
14349.0	1.6792316719136765e+18
14350.0	1.6789047477272576e+18
14351.0	1.678599446016819e+18
14352.0	1.6783203016638461e+18
14353.0	1.6780300977700861e+18
14354.0	1.6777287269613565e+18
14355.0	1.677423606444851e+18
14356.0	1.6771227926396923e+18
14357.0	1.6768210242109437e+18
14358.0	1.676511528196505e+18
14359.0	1.6761966785724416e+18
14360.0	1.6759096438947837e+18
14361.0	1.6756097243152381e+18
14362.0	1.675309430603776e+18
14363.0	1.6750029511327741e+18
14364.0	1.674637018241433e+18
14365.0	1.6743616454066176e+18
14366.0	1.6740890810777597e+18
14367.0	1.6738114265415677e+18
14368.0	1.6735139262365693e+18
14369.0	1.6732155568717821e+18
14370.0	1.6729166909014013e+18
14371.0	1.6726177444003837e+18
14372.0	1.6723132127641597e+18
14373.0	1.672017735791411e+18
14374.0	1.6717191047020536e+18
14375.0	1.6714172641312765e+18
14376.0	1.671122444825395e+18
14377.0	1.6708228775673853e+18
14378.0	1.6705226241212413e+18
14379.0	1.6702254090289147e+18
14380.0	1.669925833382297e+18
14381.0	1.669617048721817e+18
14382.0	1.6693280561430523e+18
14383.0	1.6690302253268987e+18
14384.0	1.6687144059797496e+18
14385.0	1.6684340956102653e+18
14386.0	1.6681175481319421e+18
14387.0	1.667836868663705e+18
14388.0	1.6675361152565243e+18
14389.0	1.6672329929064443e+18
14390.0	1.6669183731302397e+18
14391.0	1.6666214751272957e+18
14392.0	1.66632302355415e+18
14393.0	1.6660251440840704e+18
14394.0	1.665687440536371e+18
14395.0	1.6654183776124925e+18
14396.0	1.6651288750063616e+18
14397.0	1.6648311565975547e+18
14398.0	1.6645317554339837e+18
14399.0	1.6642301648437248e+18
14400.0	1.6639151877128187e+18
14401.0	1.6636155013365757e+18
14402.0	1.6632964473421821e+18
14403.0	1.662774533318246e+18
14404.0	1.6604693740388344e+18
14405.0	1.6605592428740593e+18
14406.0	1.6620331162664957e+18
14407.0	1.661646055827046e+18
14408.0	1.6615094188244987e+18
14409.0	1.6612326249594877e+18
14410.0	1.6609518079180797e+18
14411.0	1.660662436174233e+18
14412.0	1.6603667276759037e+18
14413.0	1.660074060886835e+18
14414.0	1.6597765303828475e+18
14415.0	1.659480430975385e+18
14416.0	1.6591821857619965e+18
14417.0	1.6588846804238333e+18
14418.0	1.658586940204646e+18
14419.0	1.658291006891622e+18
14420.0	1.6579908557864957e+18
14421.0	1.6576948570423293e+18
14422.0	1.6573841480351741e+18
14423.0	1.6570308232216576e+18
14424.0	1.6561020382216187e+18
14425.0	1.6564293566726141e+18
14426.0	1.656193428750336e+18
14427.0	1.655894873158451e+18
14428.0	1.655577949870489e+18
14429.0	1.6553027297083387e+18
14430.0	1.654989076299776e+18
14431.0	1.654574059985305e+18
14432.0	1.6543940337467387e+18
14433.0	1.6539755126718461e+18
14434.0	1.6538005867069437e+18
14435.0	1.6535173839454203e+18
14436.0	1.6532363437670397e+18
14437.0	1.652943054543257e+18
14438.0	1.6526342010961915e+18
14439.0	1.652344294159155e+18
14440.0	1.652058049688371e+18
14441.0	1.651752338613862e+18
14442.0	1.651450838620569e+18
14443.0	1.6511231779143677e+18
14444.0	1.6508571667660797e+18
14445.0	1.6505445904547835e+18
14446.0	1.649517246021632e+18
14447.0	1.649875595611341e+18
14448.0	1.649684338704384e+18
14449.0	1.6493998524858363e+18
14450.0	1.6491017448456192e+18
14451.0	1.648810574584217e+18
14452.0	1.6485195335073787e+18
14453.0	1.6482242897379323e+18
14454.0	1.6479288513527805e+18
14455.0	1.647627841254195e+18
14456.0	1.647337682658918e+18
14457.0	1.6470424976097277e+18
14458.0	1.646747975260569e+18
14459.0	1.64645053703127e+18
14460.0	1.6461516693831683e+18
14461.0	1.645842695140147e+18
14462.0	1.645550192767795e+18
14463.0	1.6452645187223547e+18
14464.0	1.6449749171306493e+18
14465.0	1.6446666022322176e+18
14466.0	1.644391964239462e+18
14467.0	1.6440751667806203e+18
14468.0	1.64377981395927e+18
14469.0	1.643464335189606e+18
14470.0	1.643173337733529e+18
14471.0	1.642898251789107e+18
14472.0	1.6426089505095677e+18
14473.0	1.64232075149312e+18
14474.0	1.6420309519302653e+18
14475.0	1.641735979951718e+18
14476.0	1.641437130758553e+18
14477.0	1.641150684961177e+18
14478.0	1.6408556475514877e+18
14479.0	1.6405626687062013e+18
14480.0	1.6402541038272507e+18
14481.0	1.639977831733657e+18
14482.0	1.6396793768050688e+18
14483.0	1.6393816768512e+18
14484.0	1.6390751319490552e+18
14485.0	1.6387385692520443e+18
14486.0	1.6382862773190656e+18
14487.0	1.6381967087960061e+18
14488.0	1.6379194418135037e+18
14489.0	1.6376223357730816e+18
14490.0	1.6373369268076544e+18
14491.0	1.6370501236555776e+18
14492.0	1.6367593292038141e+18
14493.0	1.636456832643891e+18
14494.0	1.6361492190330877e+18
14495.0	1.6358603740938237e+18
14496.0	1.6354943774490621e+18
14497.0	1.635284217652838e+18
14498.0	1.6350036422033403e+18
14499.0	1.6347124299988987e+18
14500.0	1.634418026767974e+18
14501.0	1.634093090681651e+18
14502.0	1.6336486035095547e+18
14503.0	1.6335230310809597e+18
14504.0	1.63324070241239e+18
14505.0	1.6329503122915325e+18
14506.0	1.6326284900564987e+18
14507.0	1.6321914083475456e+18
14508.0	1.632065312469811e+18
14509.0	1.6317888306610176e+18
14510.0	1.6314964255965181e+18
14511.0	1.6312057284526077e+18
14512.0	1.6309055320489981e+18
14513.0	1.630611296590233e+18
14514.0	1.6302916503601147e+18
14515.0	1.629933312514457e+18
14516.0	1.6274339502489603e+18
14517.0	1.6291668705673213e+18
14518.0	1.6291112339636221e+18
14519.0	1.6288401644847096e+18
14520.0	1.6285607164641275e+18
14521.0	1.6282737505730557e+18
14522.0	1.627982488036966e+18
14523.0	1.6276829560111101e+18
14524.0	1.6273935742009341e+18
14525.0	1.6271077122506747e+18
14526.0	1.6268162819424253e+18
14527.0	1.6264809808920568e+18
14528.0	1.6261356034457597e+18
14529.0	1.6259370350280701e+18
14530.0	1.6256453731942397e+18
14531.0	1.6253675542413307e+18
14532.0	1.6250729194848253e+18
14533.0	1.624789151331123e+18
14534.0	1.6245011955843067e+18
14535.0	1.624199494264422e+18
14536.0	1.6239152160833533e+18
14537.0	1.623620710511411e+18
14538.0	1.6233392626466813e+18
14539.0	1.623049986532966e+18
14540.0	1.6227593447538688e+18
14541.0	1.622446312102297e+18
14542.0	1.6221736185888765e+18
14543.0	1.6218672297148413e+18
14544.0	1.6215853406093307e+18
14545.0	1.6212588996067325e+18
14546.0	1.6197959683145723e+18
14547.0	1.6194765754204152e+18
14548.0	1.6203605484765181e+18
14549.0	1.620039110439731e+18
14550.0	1.6198298750681088e+18
14551.0	1.6195658268540923e+18
14552.0	1.6192772335730688e+18
14553.0	1.6189833202368507e+18
14554.0	1.6187016005812221e+18
14555.0	1.6184106501013504e+18
14556.0	1.6181167367651325e+18
14557.0	1.617813047345152e+18
14558.0	1.617426448279142e+18
14559.0	1.6155169645395953e+18
14560.0	1.6168395829411837e+18
14561.0	1.6166498963816443e+18
14562.0	1.6163533657997307e+18
14563.0	1.6160926512185341e+18
14564.0	1.6157991237582848e+18
14565.0	1.6155222309076992e+18
14566.0	1.6152345922502653e+18
14567.0	1.614943036112896e+18
14568.0	1.614646458554777e+18
14569.0	1.614326857623142e+18
14570.0	1.6136073700704253e+18
14571.0	1.6137599806603267e+18
14572.0	1.6134646546825216e+18
14573.0	1.6131503620620285e+18
14574.0	1.612892873739469e+18
14575.0	1.6126098337169403e+18
14576.0	1.6123167575638016e+18
14577.0	1.6120300466864125e+18
14578.0	1.6117495618338816e+18
14579.0	1.611464560554803e+18
14580.0	1.611176814523187e+18
14581.0	1.6108862465638397e+18
14582.0	1.6105963983470587e+18
14583.0	1.6103108467752952e+18
14584.0	1.6100144806100987e+18
14585.0	1.6097338128859133e+18
14586.0	1.6094468671275005e+18
14587.0	1.6091607082205181e+18
14588.0	1.6088735259033597e+18
14589.0	1.6085860785061885e+18
14590.0	1.6082981730910205e+18
14591.0	1.6080064575700987e+18
14592.0	1.6077001777479677e+18
14593.0	1.6073490792710141e+18
14594.0	1.607132624663347e+18
14595.0	1.606847668682752e+18
14596.0	1.6064748890095613e+18
14597.0	1.6061741725122557e+18
14598.0	1.605980367146188e+18
14599.0	1.6057114216628221e+18
14600.0	1.605426527757926e+18
14601.0	1.6051399259324413e+18
14602.0	1.6048500508721147e+18
14603.0	1.6045623870488576e+18
14604.0	1.604247211946803e+18
14605.0	1.6039726326743035e+18
14606.0	1.6036150514810875e+18
14607.0	1.6034142886035453e+18
14608.0	1.6031242558373888e+18
14609.0	1.6028344747294715e+18
14610.0	1.6025453512884221e+18
14611.0	1.602255972833689e+18
14612.0	1.60198910101422e+18
14613.0	1.6017042574409725e+18
14614.0	1.601407970128691e+18
14615.0	1.6011241097003005e+18
14616.0	1.600845076076953e+18
14617.0	1.6005378214985728e+18
14618.0	1.6002410241589243e+18
14619.0	1.5998516987953155e+18
14620.0	1.5995109904482304e+18
14621.0	1.5993933955858432e+18
14622.0	1.599121163445862e+18
14623.0	1.5988387408248832e+18
14624.0	1.5985211347042301e+18
14625.0	1.598263339358617e+18
14626.0	1.5979801600851965e+18
14627.0	1.597696895247974e+18
14628.0	1.5974198128148477e+18
14629.0	1.5971346135646205e+18
14630.0	1.5968421799788544e+18
14631.0	1.596554224232038e+18
14632.0	1.5962065315299325e+18
14633.0	1.5959672766857216e+18
14634.0	1.5957042166497277e+18
14635.0	1.595409897304883e+18
14636.0	1.595095180220825e+18
14637.0	1.5948510851497981e+18
14638.0	1.5945453908525053e+18
14639.0	1.594241731631513e+18
14640.0	1.5939445165391867e+18
14641.0	1.5934599100104701e+18
14642.0	1.593373235557171e+18
14643.0	1.5931091655327741e+18
14644.0	1.592813673460531e+18
14645.0	1.5925209999605757e+18
14646.0	1.592240744955904e+18
14647.0	1.5919613757882365e+18
14648.0	1.5916824646385656e+18
