# Flux units: erg / (cm m2 s)
# Wavelength units: Angstrom
wave	flux
14000.0	2.360284515244441e+18
14001.0	2.359735692243762e+18
14002.0	2.3592207122432e+18
14003.0	2.3586848915849216e+18
14004.0	2.358112823751475e+18
14005.0	2.3574962644189184e+18
14006.0	2.356957261122764e+18
14007.0	2.3564198197854203e+18
14008.0	2.3558432439140347e+18
14009.0	2.3553519902523387e+18
14010.0	2.3548104452079616e+18
14011.0	2.3540402871074816e+18
14012.0	2.3537461640560635e+18
14013.0	2.353211371841126e+18
14014.0	2.3526736570351606e+18
14015.0	2.3521405140205563e+18
14016.0	2.351606923054285e+18
14017.0	2.3510724093411323e+18
14018.0	2.3505377949646843e+18
14019.0	2.3500037543690235e+18
14020.0	2.3494692825989115e+18
14021.0	2.3489349618237435e+18
14022.0	2.348339061954969e+18
14023.0	2.3477447408222203e+18
14024.0	2.3472096348733435e+18
14025.0	2.346684528145203e+18
14026.0	2.3461504003080187e+18
14027.0	2.3456179216711675e+18
14028.0	2.345084642761113e+18
14029.0	2.3445510585057275e+18
14030.0	2.34361005801472e+18
14031.0	2.343468995182592e+18
14032.0	2.342951587518873e+18
14033.0	2.342397838727577e+18
14034.0	2.341886700709478e+18
14035.0	2.341355542439526e+18
14036.0	2.340823590607257e+18
14037.0	2.340291680718029e+18
14038.0	2.3397598597480443e+18
14039.0	2.339228166284902e+18
14040.0	2.3386923288494075e+18
14041.0	2.3381633214185467e+18
14042.0	2.3374163041320955e+18
14043.0	2.3368627650559995e+18
14044.0	2.336343392780287e+18
14045.0	2.335815081603891e+18
14046.0	2.335282847914393e+18
14047.0	2.3347503457894395e+18
14048.0	2.3342231788191744e+18
14049.0	2.3336935204323323e+18
14050.0	2.333163185923686e+18
14051.0	2.3326290127880187e+18
14052.0	2.332102793730457e+18
14053.0	2.33157277295575e+18
14054.0	2.3310430592040955e+18
14055.0	2.3305133655851003e+18
14056.0	2.329983797795225e+18
14057.0	2.329454381000294e+18
14058.0	2.32892507661271e+18
14059.0	2.3283959316086784e+18
14060.0	2.3278669023674363e+18
14061.0	2.3273354001645563e+18
14062.0	2.3268092498935803e+18
14063.0	2.3262733537378294e+18
14064.0	2.325648464517529e+18
14065.0	2.325108009992192e+18
14066.0	2.324582876420505e+18
14067.0	2.324046341052825e+18
14068.0	2.3235263966740475e+18
14069.0	2.322997169461657e+18
14070.0	2.3224700645670907e+18
14071.0	2.32194147656663e+18
14072.0	2.321414940419686e+18
14073.0	2.3208874127392763e+18
14074.0	2.320360029342924e+18
14075.0	2.319824141575782e+18
14076.0	2.319296355526246e+18
14077.0	2.318684317653401e+18
14078.0	2.318244519713177e+18
14079.0	2.317721991643136e+18
14080.0	2.317198569347481e+18
14081.0	2.3166721573519355e+18
14082.0	2.3161415376306176e+18
14083.0	2.315618977683865e+18
14084.0	2.315093369316966e+18
14085.0	2.3144117462630395e+18
14086.0	2.3140336062693376e+18
14087.0	2.3135163043020795e+18
14088.0	2.3129846427156475e+18
14089.0	2.3123950963785723e+18
14090.0	2.311828467718553e+18
14091.0	2.3112399598911483e+18
14092.0	2.310682983163494e+18
14093.0	2.310157909989785e+18
14094.0	2.3096329056026624e+18
14095.0	2.309107820684902e+18
14096.0	2.3085631366234107e+18
14097.0	2.3080457373483e+18
14098.0	2.3075249809522683e+18
14099.0	2.307009997596262e+18
14100.0	2.306481423017574e+18
14101.0	2.3059622235471867e+18
14102.0	2.3054382224375803e+18
14103.0	2.3049092972150776e+18
14104.0	2.3043910674677757e+18
14105.0	2.303867009315635e+18
14106.0	2.3033441926774781e+18
14107.0	2.3028194114273277e+18
14108.0	2.3022921588932603e+18
14109.0	2.301772645688934e+18
14110.0	2.301246679967334e+18
14111.0	2.300718857007923e+18
14112.0	2.300202885473894e+18
14113.0	2.2996843503812603e+18
14114.0	2.299155504011673e+18
14115.0	2.2986388244791296e+18
14116.0	2.2980658288656384e+18
14117.0	2.2968084386021376e+18
14118.0	2.296963537253171e+18
14119.0	2.2964304848355323e+18
14120.0	2.2959103861063675e+18
14121.0	2.2953899484774392e+18
14122.0	2.2948696584880123e+18
14123.0	2.2943399212482557e+18
14124.0	2.293818369612185e+18
14125.0	2.2931088728915958e+18
14126.0	2.2927890857328637e+18
14127.0	2.2922727216119803e+18
14128.0	2.291751594439475e+18
14129.0	2.291225929030041e+18
14130.0	2.2907007686148093e+18
14131.0	2.2901908872101885e+18
14132.0	2.2896676645634045e+18
14133.0	2.2889109819228152e+18
14134.0	2.288629953488486e+18
14135.0	2.288100149139865e+18
14136.0	2.2875620383916027e+18
14137.0	2.287069009700454e+18
14138.0	2.286543455020646e+18
14139.0	2.2860322717040637e+18
14140.0	2.2855047591231483e+18
14141.0	2.28498642871255e+18
14142.0	2.2844165435949056e+18
14143.0	2.2839485565763576e+18
14144.0	2.2834381617889277e+18
14145.0	2.282919833056051e+18
14146.0	2.2824007090831355e+18
14147.0	2.2818822025117693e+18
14148.0	2.281293003463065e+18
14149.0	2.2807368572076024e+18
14150.0	2.280222571783782e+18
14151.0	2.2796978794528765e+18
14152.0	2.2791867347238904e+18
14153.0	2.2786688891748347e+18
14154.0	2.2781390026178557e+18
14155.0	2.2776040275312637e+18
14156.0	2.2771119316533245e+18
14157.0	2.2765990907478008e+18
14158.0	2.276080050660966e+18
14159.0	2.2755649481867261e+18
14160.0	2.2750452068122621e+18
14161.0	2.274504467074252e+18
14162.0	2.273966884808294e+18
14163.0	2.273496676486348e+18
14164.0	2.2729539721363448e+18
14165.0	2.2723786008690683e+18
14166.0	2.2719465036709883e+18
14167.0	2.2714261969043456e+18
14168.0	2.2709142854565883e+18
14169.0	2.2704016962093048e+18
14170.0	2.269883392642252e+18
14171.0	2.2693695165825014e+18
14172.0	2.2688551875379195e+18
14173.0	2.2682969810403323e+18
14174.0	2.267821695932825e+18
14175.0	2.2673098281058301e+18
14176.0	2.266794963868057e+18
14177.0	2.266280151639654e+18
14178.0	2.2657641918496765e+18
14179.0	2.265242366744985e+18
14180.0	2.264736652800819e+18
14181.0	2.264222375765606e+18
14182.0	2.2637078990815227e+18
14183.0	2.263194147173171e+18
14184.0	2.2626296223760381e+18
14185.0	2.2620631044456443e+18
14186.0	2.2614093751910395e+18
14187.0	2.2610238330896376e+18
14188.0	2.2605216557826043e+18
14189.0	2.260006585185075e+18
14190.0	2.259494058013491e+18
14191.0	2.258980264162099e+18
14192.0	2.2584647556792315e+18
14193.0	2.2579330655715323e+18
14194.0	2.2574411575984123e+18
14195.0	2.2569299256279037e+18
14196.0	2.256417143442636e+18
14197.0	2.2559045692948477e+18
14198.0	2.2553900825444347e+18
14199.0	2.2548779546705915e+18
14200.0	2.2542913980334077e+18
14201.0	2.253851610159513e+18
14202.0	2.253343336012185e+18
14203.0	2.2528217256558584e+18
14204.0	2.2523183403892733e+18
14205.0	2.2518068030734333e+18
14206.0	2.2512405418344445e+18
14207.0	2.2507849967992827e+18
14208.0	2.2502739309232123e+18
14209.0	2.249705129613721e+18
14210.0	2.2492104970207227e+18
14211.0	2.2487405420347387e+18
14212.0	2.2482296590303227e+18
14213.0	2.2477179187101693e+18
14214.0	2.2472085389443064e+18
14215.0	2.2466936512184317e+18
14216.0	2.246188214098329e+18
14217.0	2.2456779753390077e+18
14218.0	2.2451620507811832e+18
14219.0	2.244657824976076e+18
14220.0	2.2441480022917117e+18
14221.0	2.2436359448821757e+18
14222.0	2.2431121014783995e+18
14223.0	2.2426186701340667e+18
14224.0	2.2420944660201472e+18
14225.0	2.2412881731518464e+18
14226.0	2.2409901208764413e+18
14227.0	2.2404820178567165e+18
14228.0	2.2395211262984187e+18
14229.0	2.2393777247223803e+18
14230.0	2.2389549221019645e+18
14231.0	2.2384336841998333e+18
14232.0	2.237937360463462e+18
14233.0	2.2374260345405432e+18
14234.0	2.2369203256295421e+18
14235.0	2.2364108921765885e+18
14236.0	2.235903441790566e+18
14237.0	2.2353949109518333e+18
14238.0	2.2348872323956733e+18
14239.0	2.2343763376472061e+18
14240.0	2.2332785893048317e+18
14241.0	2.233361109719449e+18
14242.0	2.232855095463116e+18
14243.0	2.2322799137783808e+18
14244.0	2.231841607332659e+18
14245.0	2.2313278185144317e+18
14246.0	2.2308159104221181e+18
14247.0	2.2303202913288187e+18
14248.0	2.2298077205364733e+18
14249.0	2.2293057143570427e+18
14250.0	2.2287989518368765e+18
14251.0	2.2282935331717117e+18
14252.0	2.227787049153331e+18
14253.0	2.2272803520643072e+18
14254.0	2.2266876700655613e+18
14255.0	2.226119091893043e+18
14256.0	2.225395280851763e+18
14257.0	2.2251089508171773e+18
14258.0	2.2246148936826877e+18
14259.0	2.224102210482995e+18
14260.0	2.223597617256857e+18
14261.0	2.2230885361254392e+18
14262.0	2.222608415824281e+18
14263.0	2.221765667743334e+18
14264.0	2.2215296676790267e+18
14265.0	2.2210905710264315e+18
14266.0	2.220589467461222e+18
14267.0	2.2200848473915387e+18
14268.0	2.2195803766390776e+18
14269.0	2.2190748505997304e+18
14270.0	2.218571473721753e+18
14271.0	2.2180658017206272e+18
14272.0	2.2175625540272123e+18
14273.0	2.217015403714969e+18
14274.0	2.215945398176973e+18
14275.0	2.2159048996552701e+18
14276.0	2.2154376810332155e+18
14277.0	2.2149374314283003e+18
14278.0	2.214442946474803e+18
14279.0	2.2139388800532477e+18
14280.0	2.213432578906521e+18
14281.0	2.212932300780339e+18
14282.0	2.2124290144993277e+18
14283.0	2.2119257248628733e+18
14284.0	2.2114224570367992e+18
14285.0	2.2109192026324987e+18
14286.0	2.2104157804560381e+18
14287.0	2.2099133833674747e+18
14288.0	2.209410367199641e+18
14289.0	2.2085273940656118e+18
14290.0	2.2084033349419005e+18
14291.0	2.2079024092151803e+18
14292.0	2.207400503699046e+18
14293.0	2.20689721238487e+18
14294.0	2.2063347964837883e+18
14295.0	2.205887215593062e+18
14296.0	2.2050829745782784e+18
14297.0	2.2048892363210747e+18
14298.0	2.2042711116742648e+18
14299.0	2.2038786154168317e+18
14300.0	2.2033812179386365e+18
14301.0	2.2028831544049661e+18
14302.0	2.202381107960217e+18
14303.0	2.2018638261256187e+18
14304.0	2.2013738508877821e+18
14305.0	2.2008762738933755e+18
14306.0	2.2003538028658683e+18
14307.0	2.199865475150643e+18
14308.0	2.1993712787652603e+18
14309.0	2.198865553077043e+18
14310.0	2.1982680325292027e+18
14311.0	2.197824295298662e+18
14312.0	2.197338591540019e+18
14313.0	2.196843905259929e+18
14314.0	2.1963668468006912e+18
14315.0	2.1958713602473984e+18
14316.0	2.1953493891809275e+18
14317.0	2.1948594726633472e+18
14318.0	2.1943742034345976e+18
14319.0	2.1938754151251963e+18
14320.0	2.1933759590825981e+18
14321.0	2.1928769912569853e+18
14322.0	2.1923594124656637e+18
14323.0	2.1918701620035581e+18
14324.0	2.1913798361219067e+18
14325.0	2.1908757864775675e+18
14326.0	2.1903821152190461e+18
14327.0	2.189880062063411e+18
14328.0	2.189379176602009e+18
14329.0	2.1887936148537336e+18
14330.0	2.188294910430412e+18
14331.0	2.1877960701116408e+18
14332.0	2.18729764922327e+18
14333.0	2.1867992249794555e+18
14334.0	2.1863008661667832e+18
14335.0	2.185796788001177e+18
14336.0	2.185277642217881e+18
14337.0	2.1848059742781437e+18
14338.0	2.1843072564330493e+18
14339.0	2.1838043493171195e+18
14340.0	2.1833119598379003e+18
14341.0	2.1828126464016376e+18
14342.0	2.1823165676126205e+18
14343.0	2.1818152677539837e+18
14344.0	2.181318902074572e+18
14345.0	2.180823640335974e+18
14346.0	2.180324370520473e+18
14347.0	2.1798184401502205e+18
14348.0	2.1793307248033787e+18
14349.0	2.178834575550054e+18
14350.0	2.1783191006216187e+18
14351.0	2.177818384610099e+18
14352.0	2.1773411298574333e+18
14353.0	2.1768472706940925e+18
14354.0	2.176347834784153e+18
14355.0	2.1758469073797117e+18
14356.0	2.175352075137843e+18
14357.0	2.1748610009923581e+18
14358.0	2.1743646151802875e+18
14359.0	2.173860461517209e+18
14360.0	2.173370432592281e+18
14361.0	2.1728754158010365e+18
14362.0	2.1723801221857275e+18
14363.0	2.1718839729324027e+18
14364.0	2.1713255953072128e+18
14365.0	2.170879720659353e+18
14366.0	2.1703870979768315e+18
14367.0	2.1699014328057856e+18
14368.0	2.1694056945942528e+18
14369.0	2.1689104664100864e+18
14370.0	2.1684151258185725e+18
14371.0	2.1679199144116221e+18
14372.0	2.167422231720755e+18
14373.0	2.166929399323033e+18
14374.0	2.1664344748064765e+18
14375.0	2.1659394244607995e+18
14376.0	2.1654445217546232e+18
14377.0	2.164949486508441e+18
14378.0	2.164453822116659e+18
14379.0	2.1639603052085243e+18
14380.0	2.1634652280193021e+18
14381.0	2.1629655085744125e+18
14382.0	2.1624759779327995e+18
14383.0	2.1619765470560253e+18
14384.0	2.1614781764993014e+18
14385.0	2.1609939894009848e+18
14386.0	2.1604924999598075e+18
14387.0	2.1600057274925048e+18
14388.0	2.1595108717625344e+18
14389.0	2.1590178044837883e+18
14390.0	2.1585233161748477e+18
14391.0	2.1580303260712955e+18
14392.0	2.1575275481399293e+18
14393.0	2.1569549652459517e+18
14394.0	2.1564433373331453e+18
14395.0	2.155957947308441e+18
14396.0	2.15547366122455e+18
14397.0	2.1549649777131512e+18
14398.0	2.154344693838643e+18
14399.0	2.1538518178201592e+18
14400.0	2.1533497495650301e+18
14401.0	2.1528621684359163e+18
14402.0	2.152370307439001e+18
14403.0	2.150509428971927e+18
14404.0	2.1476697425575923e+18
14405.0	2.1502752324583406e+18
14406.0	2.1503975735951352e+18
14407.0	2.1479807166447619e+18
14408.0	2.1493936384114685e+18
14409.0	2.1489131926323195e+18
14410.0	2.1484237559431165e+18
14411.0	2.147935716796006e+18
14412.0	2.1474422284091387e+18
14413.0	2.1469511693631483e+18
14414.0	2.1464575014600701e+18
14415.0	2.1459655834206205e+18
14416.0	2.1454709625716733e+18
14417.0	2.144969889205452e+18
14418.0	2.1444732618014715e+18
14419.0	2.1439957386133501e+18
14420.0	2.1435019935350781e+18
14421.0	2.143011432772403e+18
14422.0	2.1425181205463037e+18
14423.0	2.1420129736720381e+18
14424.0	2.1336717613072338e+18
14425.0	2.1410304780926973e+18
14426.0	2.1405509701599227e+18
14427.0	2.1400606006575096e+18
14428.0	2.1395582304124925e+18
14429.0	2.1390755163537405e+18
14430.0	2.1385861065080827e+18
14431.0	2.1379945200615421e+18
14432.0	2.137595217287577e+18
14433.0	2.1356676191879158e+18
14434.0	2.136612510315315e+18
14435.0	2.1361118832230395e+18
14436.0	2.1356376819236861e+18
14437.0	2.1351467956830208e+18
14438.0	2.1346067152895995e+18
14439.0	2.134151083012915e+18
14440.0	2.1336461626310653e+18
14441.0	2.133020033574502e+18
14442.0	2.132527754824908e+18
14443.0	2.1320204789219328e+18
14444.0	2.1315483714191355e+18
14445.0	2.1310589984833533e+18
14446.0	2.128878740543898e+18
14447.0	2.1300684162859008e+18
14448.0	2.1295886264958968e+18
14449.0	2.129098547239321e+18
14450.0	2.128605473249689e+18
14451.0	2.1281171723780093e+18
14452.0	2.1276247543775227e+18
14453.0	2.1271091452313595e+18
14454.0	2.126646676239155e+18
14455.0	2.1261544025227261e+18
14456.0	2.1256595417595901e+18
14457.0	2.1251661758463992e+18
14458.0	2.1246817387675645e+18
14459.0	2.1241899616567296e+18
14460.0	2.1236992096337915e+18
14461.0	2.1231900261613563e+18
14462.0	2.12267768521687e+18
14463.0	2.1222225680007168e+18
14464.0	2.1217423822684155e+18
14465.0	2.1212469091368955e+18
14466.0	2.1207666646843384e+18
14467.0	2.1202506243637243e+18
14468.0	2.1197845449146365e+18
14469.0	2.1192831544590333e+18
14470.0	2.118749493028454e+18
14471.0	2.1182295134175227e+18
14472.0	2.1177412645552125e+18
14473.0	2.1172559668051963e+18
14474.0	2.1167663103344637e+18
14475.0	2.1162740886274045e+18
14476.0	2.1156939492753408e+18
14477.0	2.1152962101379067e+18
14478.0	2.1148065972879355e+18
14479.0	2.1143163217379325e+18
14480.0	2.1138191608184827e+18
14481.0	2.1133378912780288e+18
14482.0	2.112846493332275e+18
14483.0	2.1123536257023992e+18
14484.0	2.111863996075212e+18
14485.0	2.1113610201726973e+18
14486.0	2.1107539617775616e+18
14487.0	2.1103986052431867e+18
14488.0	2.1098943962152957e+18
14489.0	2.109411987501875e+18
14490.0	2.1089298153471997e+18
14491.0	2.1084415731957755e+18
14492.0	2.1079528528936957e+18
14493.0	2.1074630118735867e+18
14494.0	2.1069636279730168e+18
14495.0	2.1064839992442877e+18
14496.0	2.1059327854903293e+18
14497.0	2.1055047768997883e+18
14498.0	2.1050156170346493e+18
14499.0	2.1045264756244477e+18
14500.0	2.1040367151349755e+18
14501.0	2.1034995036454912e+18
14502.0	2.102924338737971e+18
14503.0	2.1025584846995453e+18
14504.0	2.102076124640051e+18
14505.0	2.1015425001193467e+18
14506.0	2.10100450010071e+18
14507.0	2.100499385103155e+18
14508.0	2.1001215957532667e+18
14509.0	2.099632363746099e+18
14510.0	2.0991428733698045e+18
14511.0	2.0986532336762875e+18
14512.0	2.0981560660459517e+18
14513.0	2.0976738989244416e+18
14514.0	2.097166270699929e+18
14515.0	2.096694067567001e+18
14516.0	2.0952667006173187e+18
14517.0	2.0957140852146173e+18
14518.0	2.0952255846940667e+18
14519.0	2.0947360775405565e+18
14520.0	2.0942463925485563e+18
14521.0	2.0937562797375488e+18
14522.0	2.0932648750809083e+18
14523.0	2.0926647540645883e+18
14524.0	2.092178471491993e+18
14525.0	2.0917945869795325e+18
14526.0	2.0913075544653824e+18
14527.0	2.0908059006074875e+18
14528.0	2.090272145224499e+18
14529.0	2.0898321979670525e+18
14530.0	2.0893402983825405e+18
14531.0	2.0888562169806845e+18
14532.0	2.08822635331584e+18
14533.0	2.0878755836723197e+18
14534.0	2.0873868902137853e+18
14535.0	2.0868911033483261e+18
14536.0	2.086406110943641e+18
14537.0	2.0859099549794301e+18
14538.0	2.0854252880527355e+18
14539.0	2.0849349957255165e+18
14540.0	2.0844444399960056e+18
14541.0	2.0839433162981379e+18
14542.0	2.0834628688412667e+18
14543.0	2.0829020350316544e+18
14544.0	2.0824804990910461e+18
14545.0	2.0819854890106877e+18
14546.0	2.0733415452049362e+18
14547.0	2.0736461741490117e+18
14548.0	2.0804977576378365e+18
14549.0	2.0799445322956797e+18
14550.0	2.0795055195291643e+18
14551.0	2.0790178595471357e+18
14552.0	2.0785258039345147e+18
14553.0	2.0780325856608253e+18
14554.0	2.0775444055851005e+18
14555.0	2.0770524372140027e+18
14556.0	2.0765585478516733e+18
14557.0	2.076069307455897e+18
14558.0	2.075576510290329e+18
14559.0	2.0743896581537777e+18
14560.0	2.0745653860696061e+18
14561.0	2.0740206483210235e+18
14562.0	2.0735187092504573e+18
14563.0	2.0730380990545917e+18
14564.0	2.0725376850329597e+18
14565.0	2.072054783069388e+18
14566.0	2.0715622392397821e+18
14567.0	2.071068145195417e+18
14568.0	2.0705600270761984e+18
14569.0	2.070082597840486e+18
14570.0	2.0693902558232573e+18
14571.0	2.0690956613320701e+18
14572.0	2.0685815302586365e+18
14573.0	2.0680882700419072e+18
14574.0	2.067594969559859e+18
14575.0	2.0671190603399165e+18
14576.0	2.066625618929254e+18
14577.0	2.06613355996119e+18
14578.0	2.0656423599865853e+18
14579.0	2.065149176945049e+18
14580.0	2.0646551667867643e+18
14581.0	2.064157034466508e+18
14582.0	2.063666002264064e+18
14583.0	2.0631718713098235e+18
14584.0	2.062669469188096e+18
14585.0	2.062182255480012e+18
14586.0	2.061685908255539e+18
14587.0	2.0611906414837755e+18
14588.0	2.0606977503657981e+18
14589.0	2.0602150581174267e+18
14590.0	2.0597331577536512e+18
14591.0	2.0592499504447483e+18
14592.0	2.05876773299159e+18
14593.0	2.058232486114099e+18
14594.0	2.057803311507046e+18
14595.0	2.0573176564023293e+18
14596.0	2.0567814683230203e+18
14597.0	2.0562949156372475e+18
14598.0	2.055865078330163e+18
14599.0	2.0553871390670843e+18
14600.0	2.0549021231742973e+18
14601.0	2.0544185970982912e+18
14602.0	2.0538800300097533e+18
14603.0	2.053272678013337e+18
14604.0	2.0527672375377915e+18
14605.0	2.0522937945686016e+18
14606.0	2.051791124011417e+18
14607.0	2.0513301330919421e+18
14608.0	2.0508467328450555e+18
14609.0	2.05035232338903e+18
14610.0	2.0498646516629501e+18
14611.0	2.04938499105751e+18
14612.0	2.048903627564646e+18
14613.0	2.0484182543171576e+18
14614.0	2.0478512565583872e+18
14615.0	2.0472598781493245e+18
14616.0	2.0467740804382717e+18
14617.0	2.0462865513185277e+18
14618.0	2.045790610102681e+18
14619.0	2.0452699124269053e+18
14620.0	2.0446787236003837e+18
14621.0	2.0443346564546555e+18
14622.0	2.0438462431756288e+18
14623.0	2.0433573165137912e+18
14624.0	2.0428410044022776e+18
14625.0	2.04237868976046e+18
14626.0	2.041886343902003e+18
14627.0	2.0413929427566587e+18
14628.0	2.040909111335321e+18
14629.0	2.0404186311032827e+18
14630.0	2.0399266946088955e+18
14631.0	2.0394362244431872e+18
14632.0	2.0383344210477053e+18
14633.0	2.0383689804349435e+18
14634.0	2.0379592992751616e+18
14635.0	2.0374324493942776e+18
14636.0	2.0368805494521848e+18
14637.0	2.03648582853591e+18
14638.0	2.0359897732349947e+18
14639.0	2.0354927129788416e+18
14640.0	2.0350015465586683e+18
14641.0	2.032109473287371e+18
14642.0	2.0340117596012536e+18
14643.0	2.0335205092950016e+18
14644.0	2.0330194225070077e+18
14645.0	2.032518709850931e+18
14646.0	2.0320220891578363e+18
14647.0	2.031522520707891e+18
14648.0	2.031036739774054e+18
14649.0	2.030543019861606e+18
