# Flux units: erg / (cm m2 s)
# Wavelength units: Angstrom
wave	flux
14000.0	1.467899732138393e+18
14001.0	1.4676177356587003e+18
14002.0	1.4674195061407741e+18
14003.0	1.4671286043148285e+18
14004.0	1.4668310771662848e+18
14005.0	1.4665386637131773e+18
14006.0	1.4662380713672701e+18
14007.0	1.4659422890491904e+18
14008.0	1.4655867798421501e+18
14009.0	1.4653578245308413e+18
14010.0	1.4650559587942397e+18
14011.0	1.4643085673758723e+18
14012.0	1.4644736484704256e+18
14013.0	1.4641805135970301e+18
14014.0	1.4638812114190336e+18
14015.0	1.4635901753753597e+18
14016.0	1.4632969566158845e+18
14017.0	1.4630154902962176e+18
14018.0	1.4627210132455421e+18
14019.0	1.4624285192617981e+18
14020.0	1.4621339885240315e+18
14021.0	1.4618396658237437e+18
14022.0	1.4615321998524413e+18
14023.0	1.4611752612265984e+18
14024.0	1.460927793935155e+18
14025.0	1.460662386766643e+18
14026.0	1.4603705219284987e+18
14027.0	1.4600765783932925e+18
14028.0	1.459780366578483e+18
14029.0	1.4594886124699645e+18
14030.0	1.4554740796948506e+18
14031.0	1.4588281857507323e+18
14032.0	1.4586068154187773e+18
14033.0	1.4582475934138365e+18
14034.0	1.458023068965273e+18
14035.0	1.457732204049203e+18
14036.0	1.4574321821286397e+18
14037.0	1.4571432214265853e+18
14038.0	1.4568553394995197e+18
14039.0	1.4565600856637437e+18
14040.0	1.4562614998728701e+18
14041.0	1.4559749701894141e+18
14042.0	1.4556785738252285e+18
14043.0	1.4553602630615035e+18
14044.0	1.4550901867937787e+18
14045.0	1.4548042074030075e+18
14046.0	1.4545093948080125e+18
14047.0	1.4542013080797181e+18
14048.0	1.4539207712178173e+18
14049.0	1.4536360014643197e+18
14050.0	1.4533437440393213e+18
14051.0	1.4530430711627773e+18
14052.0	1.4527528639135741e+18
14053.0	1.452465513824256e+18
14054.0	1.452174927409971e+18
14055.0	1.451882861245235e+18
14056.0	1.451591692661555e+18
14057.0	1.4513002136993792e+18
14058.0	1.451008726348595e+18
14059.0	1.450712439036313e+18
14060.0	1.4504260335042557e+18
14061.0	1.4501296757276667e+18
14062.0	1.4498435000434685e+18
14063.0	1.449539503600435e+18
14064.0	1.4485077903802373e+18
14065.0	1.4489612281970688e+18
14066.0	1.4486749669490685e+18
14067.0	1.448325641823846e+18
14068.0	1.4480929821032445e+18
14069.0	1.4477845061435387e+18
14070.0	1.447493518753792e+18
14071.0	1.4472017814224893e+18
14072.0	1.4469152735494141e+18
14073.0	1.4466253431242747e+18
14074.0	1.4463339329486848e+18
14075.0	1.4460250895679485e+18
14076.0	1.4456802859024381e+18
14077.0	1.4445745297948672e+18
14078.0	1.4451061880258557e+18
14079.0	1.444873919214387e+18
14080.0	1.4445924461838336e+18
14081.0	1.444302889890611e+18
14082.0	1.444007790405222e+18
14083.0	1.4437193967730685e+18
14084.0	1.4434305300234237e+18
14085.0	1.4425125394841595e+18
14086.0	1.4427852883623936e+18
14087.0	1.4425610642259963e+18
14088.0	1.4422545562337275e+18
14089.0	1.4419313968545792e+18
14090.0	1.4416739185983485e+18
14091.0	1.4413374632755197e+18
14092.0	1.4410464641417213e+18
14093.0	1.440754741909913e+18
14094.0	1.4404664942395392e+18
14095.0	1.4401790954962941e+18
14096.0	1.439727202861056e+18
14097.0	1.4395625479077888e+18
14098.0	1.439240440460083e+18
14099.0	1.4390268312682493e+18
14100.0	1.438725866468147e+18
14101.0	1.4384498242224125e+18
14102.0	1.4381599424512e+18
14103.0	1.437861613351731e+18
14104.0	1.4375828800405504e+18
14105.0	1.437295615515033e+18
14106.0	1.437005119697715e+18
14107.0	1.4367141776064507e+18
14108.0	1.436413794975744e+18
14109.0	1.436137351754547e+18
14110.0	1.435844022265446e+18
14111.0	1.4355481023741947e+18
14112.0	1.4352657049190397e+18
14113.0	1.4349510062899197e+18
14114.0	1.434688404271923e+18
14115.0	1.4344023426727936e+18
14116.0	1.433958211177676e+18
14117.0	1.427655128566993e+18
14118.0	1.4335456778911744e+18
14119.0	1.4331782635716603e+18
14120.0	1.4328869943246845e+18
14121.0	1.4326787806855165e+18
14122.0	1.4322389055700987e+18
14123.0	1.4320135925923837e+18
14124.0	1.4316718407024637e+18
14125.0	1.4312245450244099e+18
14126.0	1.4312290379628541e+18
14127.0	1.430965858808627e+18
14128.0	1.4306806142599165e+18
14129.0	1.4303880498118653e+18
14130.0	1.4301092510695421e+18
14131.0	1.429767386772275e+18
14132.0	1.4294652911878141e+18
14133.0	1.4288244015366126e+18
14134.0	1.428895214809907e+18
14135.0	1.428585681885593e+18
14136.0	1.4280370165907456e+18
14137.0	1.428029882918502e+18
14138.0	1.4276644734763008e+18
14139.0	1.4273496221745147e+18
14140.0	1.4267536216424448e+18
14141.0	1.4264677043273725e+18
14142.0	1.4257978303578117e+18
14143.0	1.425897834309222e+18
14144.0	1.4256211629178875e+18
14145.0	1.425333848060723e+18
14146.0	1.4250358947708925e+18
14147.0	1.4247602786664445e+18
14148.0	1.424459778595225e+18
14149.0	1.4241658350600192e+18
14150.0	1.423908962461286e+18
14151.0	1.4235848182595581e+18
14152.0	1.4233385438281725e+18
14153.0	1.4230754116501504e+18
14154.0	1.4229837845626875e+18
14155.0	1.4205914005372943e+18
14156.0	1.4223811989733368e+18
14157.0	1.42214466371584e+18
14158.0	1.421850168210227e+18
14159.0	1.4215714164441085e+18
14160.0	1.4212829657694208e+18
14161.0	1.420954709472051e+18
14162.0	1.4206434686271485e+18
14163.0	1.4204284165947392e+18
14164.0	1.419957181507174e+18
14165.0	1.4197510213992448e+18
14166.0	1.4195777161134077e+18
14167.0	1.4192869468274685e+18
14168.0	1.4189829134745597e+18
14169.0	1.4187240880078848e+18
14170.0	1.4184257974960125e+18
14171.0	1.4181515034361853e+18
14172.0	1.4178761389899776e+18
14173.0	1.4175341773848573e+18
14174.0	1.4172994691661821e+18
14175.0	1.4170215713603581e+18
14176.0	1.416732303635251e+18
14177.0	1.416456355341926e+18
14178.0	1.4161738807115773e+18
14179.0	1.4158802660098045e+18
14180.0	1.4156095102648317e+18
14181.0	1.4153262085177341e+18
14182.0	1.4150424084873213e+18
14183.0	1.4147598348713981e+18
14184.0	1.4144733555195901e+18
14185.0	1.4141936055091197e+18
14186.0	1.4128365048954885e+18
14187.0	1.4136071914782717e+18
14188.0	1.413338254383513e+18
14189.0	1.4130472065957885e+18
14190.0	1.412764315890483e+18
14191.0	1.4124764037644285e+18
14192.0	1.4122018161033213e+18
14193.0	1.4117429542125565e+18
14194.0	1.4116347260698621e+18
14195.0	1.4113629032939517e+18
14196.0	1.4111025578115072e+18
14197.0	1.4108287469355008e+18
14198.0	1.410543967115673e+18
14199.0	1.4102623833554941e+18
14200.0	1.409258362608026e+18
14201.0	1.409682114818867e+18
14202.0	1.4094152731983867e+18
14203.0	1.4091228597452797e+18
14204.0	1.4088480304922621e+18
14205.0	1.408571211461427e+18
14206.0	1.4082061509853181e+18
14207.0	1.4080090572849147e+18
14208.0	1.407728084215398e+18
14209.0	1.407345057018675e+18
14210.0	1.4071132109930488e+18
14211.0	1.4068791277256701e+18
14212.0	1.4066017500135421e+18
14213.0	1.406305515549491e+18
14214.0	1.406039110136627e+18
14215.0	1.4057472318767101e+18
14216.0	1.4054787695771645e+18
14217.0	1.4051989096759293e+18
14218.0	1.4049108532658173e+18
14219.0	1.4046338052259837e+18
14220.0	1.4043458545123325e+18
14221.0	1.4040583567835133e+18
14222.0	1.4036795591229437e+18
14223.0	1.4035059291979773e+18
14224.0	1.4032311343382525e+18
14225.0	1.4007296052953103e+18
14226.0	1.4026489943031803e+18
14227.0	1.4023867337015293e+18
14228.0	1.395704158853534e+18
14229.0	1.401158939285909e+18
14230.0	1.401546561762099e+18
14231.0	1.4011622200705021e+18
14232.0	1.4009866431496187e+18
14233.0	1.4007014287998973e+18
14234.0	1.4004268637880317e+18
14235.0	1.4001451382603773e+18
14236.0	1.3998669258817533e+18
14237.0	1.399583505855283e+18
14238.0	1.3993053974953981e+18
14239.0	1.3990099633045501e+18
14240.0	1.3975742438178826e+18
14241.0	1.3984509942824957e+18
14242.0	1.3981842868797437e+18
14243.0	1.3978047199838208e+18
14244.0	1.3976304382640125e+18
14245.0	1.3973386615062525e+18
14246.0	1.3970493954588672e+18
14247.0	1.3967899408465917e+18
14248.0	1.3965014566174717e+18
14249.0	1.396231680661913e+18
14250.0	1.3959543851581437e+18
14251.0	1.3956749119717373e+18
14252.0	1.395398538375987e+18
14253.0	1.3951195802501117e+18
14254.0	1.3948390886866941e+18
14255.0	1.3945372070117376e+18
14256.0	1.392205338404456e+18
14257.0	1.3939358620975101e+18
14258.0	1.3937253264916477e+18
14259.0	1.3934336218759165e+18
14260.0	1.3931028573847552e+18
14261.0	1.3928807505330173e+18
14262.0	1.3926256076652544e+18
14263.0	1.389307102861724e+18
14264.0	1.3915812427464707e+18
14265.0	1.3917762485223421e+18
14266.0	1.3915104848379901e+18
14267.0	1.3912321793458173e+18
14268.0	1.3909508422107133e+18
14269.0	1.3906705217748987e+18
14270.0	1.3903989900836861e+18
14271.0	1.3901185454964736e+18
14272.0	1.389843413414707e+18
14273.0	1.3895655852343293e+18
14274.0	1.3848351803965476e+18
14275.0	1.388599404658688e+18
14276.0	1.3887185145036797e+18
14277.0	1.3884422818365437e+18
14278.0	1.3881798584958973e+18
14279.0	1.3879027945177085e+18
14280.0	1.3876204373278717e+18
14281.0	1.3873493451997181e+18
14282.0	1.3870726931021821e+18
14283.0	1.3867946694672381e+18
14284.0	1.3865178521141245e+18
14285.0	1.3862407940079613e+18
14286.0	1.3859542425141245e+18
14287.0	1.3856876022202365e+18
14288.0	1.3854110105206781e+18
14289.0	1.3843843011051487e+18
14290.0	1.384854787928883e+18
14291.0	1.384580086182707e+18
14292.0	1.3843028561100797e+18
14293.0	1.3840266066657277e+18
14294.0	1.3836557219790845e+18
14295.0	1.3834649449005053e+18
14296.0	1.3825965276790784e+18
14297.0	1.3829149105848317e+18
14298.0	1.3819752195555323e+18
14299.0	1.3823417505546237e+18
14300.0	1.3820881352523773e+18
14301.0	1.381817797260083e+18
14302.0	1.3815416325406717e+18
14303.0	1.3812449190871037e+18
14304.0	1.3809830619774973e+18
14305.0	1.3807183368028155e+18
14306.0	1.3803832999935997e+18
14307.0	1.3801425041620987e+18
14308.0	1.379888277330329e+18
14309.0	1.3796094148345853e+18
14310.0	1.379180296431206e+18
14311.0	1.3779574403891197e+18
14312.0	1.3786816893157373e+18
14313.0	1.3783996819308541e+18
14314.0	1.3782142475567101e+18
14315.0	1.3779604938424317e+18
14316.0	1.3776555016716285e+18
14317.0	1.3773239427792893e+18
14318.0	1.3771407196422144e+18
14319.0	1.3768666042597373e+18
14320.0	1.376591149216563e+18
14321.0	1.376311590466355e+18
14322.0	1.376005695681331e+18
14323.0	1.375757871035187e+18
14324.0	1.3754864458792957e+18
14325.0	1.3752106368368637e+18
14326.0	1.374942213124915e+18
14327.0	1.3746639176990717e+18
14328.0	1.3743880792965117e+18
14329.0	1.3741200313942013e+18
14330.0	1.3738460175138813e+18
14331.0	1.3735619968630784e+18
14332.0	1.373298042601472e+18
14333.0	1.3730247635632125e+18
14334.0	1.3727512831983613e+18
14335.0	1.3724619718524923e+18
14336.0	1.371975208612659e+18
14337.0	1.3719731584368637e+18
14338.0	1.3717044209909757e+18
14339.0	1.3714204758376445e+18
14340.0	1.3711595347640317e+18
14341.0	1.3708685591183357e+18
14342.0	1.3706113618804733e+18
14343.0	1.3703361987608573e+18
14344.0	1.3700614341001213e+18
14345.0	1.369790999638835e+18
14346.0	1.369514540479283e+18
14347.0	1.3691293188227072e+18
14348.0	1.3689708647284733e+18
14349.0	1.3686984455225341e+18
14350.0	1.368252339349094e+18
14351.0	1.3679680511016955e+18
14352.0	1.3678737799249917e+18
14353.0	1.3675586115338237e+18
14354.0	1.3672308249985021e+18
14355.0	1.3669130225844221e+18
14356.0	1.3666676826439675e+18
14357.0	1.3664347611987965e+18
14358.0	1.3661622690119677e+18
14359.0	1.3658821465473021e+18
14360.0	1.3656027572469757e+18
14361.0	1.3653447412809725e+18
14362.0	1.3650763955830781e+18
14363.0	1.364804151699046e+18
14364.0	1.3639568175661056e+18
14365.0	1.364206073308774e+18
14366.0	1.3638826220060672e+18
14367.0	1.3637170921209853e+18
14368.0	1.3634456275386368e+18
14369.0	1.3631753214230525e+18
14370.0	1.3628991239880704e+18
14371.0	1.3626268448718845e+18
14372.0	1.3623468708855805e+18
14373.0	1.362078169510707e+18
14374.0	1.3618121029976061e+18
14375.0	1.361537837459046e+18
14376.0	1.3612696050073597e+18
14377.0	1.3609982838702077e+18
14378.0	1.3607258353041405e+18
14379.0	1.360456668361523e+18
14380.0	1.3601850972438525e+18
14381.0	1.3599067917516797e+18
14382.0	1.3596430245560317e+18
14383.0	1.3593650437029885e+18
14384.0	1.3590905164398587e+18
14385.0	1.3588311582965757e+18
14386.0	1.358548537704448e+18
14387.0	1.3582878130569213e+18
14388.0	1.358016057389875e+18
14389.0	1.357716907045683e+18
14390.0	1.3574030237892605e+18
14391.0	1.3571314971312125e+18
14392.0	1.3568602640744445e+18
14393.0	1.3565942462152701e+18
14394.0	1.3562989697302525e+18
14395.0	1.3560217295912957e+18
14396.0	1.355781843923763e+18
14397.0	1.3555075104374781e+18
14398.0	1.355236428375654e+18
14399.0	1.3549661952409597e+18
14400.0	1.3546710345187325e+18
14401.0	1.3544202184949757e+18
14402.0	1.354153577362227e+18
14403.0	1.351997462675451e+18
14404.0	1.3466993327865836e+18
14405.0	1.3523425213546427e+18
14406.0	1.3530789018861565e+18
14407.0	1.3496144562749458e+18
14408.0	1.352465051235123e+18
14409.0	1.3522577016225792e+18
14410.0	1.3519604705918973e+18
14411.0	1.3517292168019965e+18
14412.0	1.3514622543855616e+18
14413.0	1.3511960528158717e+18
14414.0	1.350925318042419e+18
14415.0	1.350657251685171e+18
14416.0	1.3503728350920701e+18
14417.0	1.3500393921183741e+18
14418.0	1.3497676892995581e+18
14419.0	1.349581790196531e+18
14420.0	1.3493102585053181e+18
14421.0	1.349045079506944e+18
14422.0	1.3487742642028541e+18
14423.0	1.3484981640757245e+18
14424.0	1.3355850915643284e+18
14425.0	1.3479674973782016e+18
14426.0	1.3477049003933693e+18
14427.0	1.3474355740671997e+18
14428.0	1.3471509368537085e+18
14429.0	1.3468993524334592e+18
14430.0	1.346630703067955e+18
14431.0	1.345386859567514e+18
14432.0	1.3460870264782845e+18
14433.0	1.3434240821624812e+18
14434.0	1.345551269573427e+18
14435.0	1.3451667567542267e+18
14436.0	1.3450223401566208e+18
14437.0	1.3447550933663741e+18
14438.0	1.3443391702433792e+18
14439.0	1.3442006902636541e+18
14440.0	1.343952001590886e+18
14441.0	1.3436791025565693e+18
14442.0	1.343403660096307e+18
14443.0	1.3431096746180605e+18
14444.0	1.3428794744373245e+18
14445.0	1.3426164404060155e+18
14446.0	1.3394641038606351e+18
14447.0	1.3420718117093373e+18
14448.0	1.3418154986307581e+18
14449.0	1.3415470371700736e+18
14450.0	1.3412775086784512e+18
14451.0	1.3410125536559101e+18
14452.0	1.3407471649423357e+18
14453.0	1.3404417793458173e+18
14454.0	1.3402093763166203e+18
14455.0	1.3399418493468667e+18
14456.0	1.339664723292979e+18
14457.0	1.3393851150499835e+18
14458.0	1.3386422182477821e+18
14459.0	1.3383788327337981e+18
14460.0	1.3381118761893885e+18
14461.0	1.3377946811105277e+18
14462.0	1.336826432743015e+18
14463.0	1.3373016532582397e+18
14464.0	1.337048027050803e+18
14465.0	1.3367636733722621e+18
14466.0	1.3365148689367037e+18
14467.0	1.336213251502899e+18
14468.0	1.3359817477324797e+18
14469.0	1.3356346699153408e+18
14470.0	1.3354298805059581e+18
14471.0	1.3351804813180925e+18
14472.0	1.3349183406735357e+18
14473.0	1.3346560372899837e+18
14474.0	1.334394118943539e+18
14475.0	1.3341253806587901e+18
14476.0	1.3337019270823936e+18
14477.0	1.333592159630131e+18
14478.0	1.3333294032617472e+18
14479.0	1.3330554002866173e+18
14480.0	1.3327997046095872e+18
14481.0	1.3325710345109501e+18
14482.0	1.3323035192852477e+18
14483.0	1.332033136833331e+18
14484.0	1.3317744455843837e+18
14485.0	1.3314795222597632e+18
14486.0	1.3310318801321984e+18
14487.0	1.3309811701579773e+18
14488.0	1.330593240658739e+18
14489.0	1.3303575853662203e+18
14490.0	1.330166243734323e+18
14491.0	1.3299229959127037e+18
14492.0	1.3296517309792253e+18
14493.0	1.3293774058815485e+18
14494.0	1.329109648225075e+18
14495.0	1.3288648988426237e+18
14496.0	1.3285050242039808e+18
14497.0	1.3283362571550717e+18
14498.0	1.3280719941926907e+18
14499.0	1.3278086875316221e+18
14500.0	1.3275444212137981e+18
14501.0	1.3272172025872381e+18
14502.0	1.3267405669138435e+18
14503.0	1.326719163380531e+18
14504.0	1.326486332532326e+18
14505.0	1.3261759490031613e+18
14506.0	1.3258271716540413e+18
14507.0	1.325521963057152e+18
14508.0	1.3254343717289981e+18
14509.0	1.3251702522118144e+18
14510.0	1.3249048593039355e+18
14511.0	1.324643716903731e+18
14512.0	1.3243692777209853e+18
14513.0	1.3241140090241021e+18
14514.0	1.3238180060856317e+18
14515.0	1.3235855980232701e+18
14516.0	1.3214389649801226e+18
14517.0	1.3230563221569533e+18
14518.0	1.3227972903305216e+18
14519.0	1.322533235405619e+18
14520.0	1.3222701317488637e+18
14521.0	1.3220049133240317e+18
14522.0	1.3217370029948925e+18
14523.0	1.3212514602975227e+18
14524.0	1.321072354289254e+18
14525.0	1.3209520239017981e+18
14526.0	1.3206885939281917e+18
14527.0	1.320421227180851e+18
14528.0	1.3200260683792381e+18
14529.0	1.319897899676467e+18
14530.0	1.3196274459213821e+18
14531.0	1.319378233799475e+18
14532.0	1.3188977418829821e+18
14533.0	1.3188528250814461e+18
14534.0	1.3185911416160253e+18
14535.0	1.318321235637043e+18
14536.0	1.3180640258162685e+18
14537.0	1.3177964661309437e+18
14538.0	1.3175502898462717e+18
14539.0	1.317287335506739e+18
14540.0	1.3170260412727293e+18
14541.0	1.3167489538064381e+18
14542.0	1.3164996838031357e+18
14543.0	1.3161426076041216e+18
14544.0	1.3159737122095101e+18
14545.0	1.3157016730075133e+18
14546.0	1.2984427277713272e+18
14547.0	1.3002576551214935e+18
14548.0	1.3149197532397565e+18
14549.0	1.3145805405814781e+18
14550.0	1.3144004094853117e+18
14551.0	1.3141445376475133e+18
14552.0	1.3138821067571197e+18
14553.0	1.3136133886050301e+18
14554.0	1.313359378199347e+18
14555.0	1.3130982223773693e+18
14556.0	1.31283336298496e+18
14557.0	1.3128178776145917e+18
14558.0	1.312612980831027e+18
14559.0	1.3108049044570045e+18
14560.0	1.3120130535915512e+18
14561.0	1.3118241983430653e+18
14562.0	1.3115317832122365e+18
14563.0	1.311304118907699e+18
14564.0	1.3109541470207995e+18
14565.0	1.3107579903279101e+18
14566.0	1.310482092366233e+18
14567.0	1.3102169175621632e+18
14568.0	1.3098050025160704e+18
14569.0	1.3096951394336765e+18
14570.0	1.3089463806722053e+18
14571.0	1.3091754743955453e+18
14572.0	1.3088148724645885e+18
14573.0	1.3086054919700475e+18
14574.0	1.3081658618019837e+18
14575.0	1.308116095546163e+18
14576.0	1.3078482674253824e+18
14577.0	1.3076089387614205e+18
14578.0	1.307346504515584e+18
14579.0	1.307093155132211e+18
14580.0	1.3068308500709373e+18
14581.0	1.3065587781533693e+18
14582.0	1.3063002118946813e+18
14583.0	1.3060526305181693e+18
14584.0	1.3057487095726077e+18
14585.0	1.3055320175673341e+18
14586.0	1.3052702099505147e+18
14587.0	1.3050096195207165e+18
14588.0	1.3047524835196925e+18
14589.0	1.3045012841365501e+18
14590.0	1.304250515927859e+18
14591.0	1.3039850844323837e+18
14592.0	1.3037438289051645e+18
14593.0	1.303413214570086e+18
14594.0	1.303247049667379e+18
14595.0	1.3029909723086845e+18
14596.0	1.3022186155540465e+18
14597.0	1.3018481888854e+18
14598.0	1.3021950771199995e+18
14599.0	1.3019923773128701e+18
14600.0	1.3017251867262973e+18
14601.0	1.3014872765759485e+18
14602.0	1.3011719387348992e+18
14603.0	1.3009474369355773e+18
14604.0	1.3005764004151293e+18
14605.0	1.3002502135873533e+18
14606.0	1.3000593442340861e+18
14607.0	1.2998944770490365e+18
14608.0	1.2996430159413245e+18
14609.0	1.2993807201075195e+18
14610.0	1.298870411722752e+18
14611.0	1.298880267498291e+18
14612.0	1.2986432406683645e+18
14613.0	1.2983950217576445e+18
14614.0	1.2981410021244928e+18
14615.0	1.2978764287836157e+18
14616.0	1.2976447119425533e+18
14617.0	1.2973917987667965e+18
14618.0	1.2970848277233664e+18
14619.0	1.296673768315288e+18
14620.0	1.2952635124482053e+18
14621.0	1.296393643334041e+18
14622.0	1.296141521204019e+18
14623.0	1.295893553951539e+18
14624.0	1.2956018921177085e+18
14625.0	1.2953910671048701e+18
14626.0	1.2951379022708733e+18
14627.0	1.2948827577253885e+18
14628.0	1.2946433518862333e+18
14629.0	1.2943932203728893e+18
14630.0	1.2941299355222013e+18
14631.0	1.293891585808793e+18
14632.0	1.2925196071600136e+18
14633.0	1.293272002383052e+18
14634.0	1.2931204252696573e+18
14635.0	1.2915011898834775e+18
14636.0	1.285282994952603e+18
14637.0	1.2923895451484157e+18
14638.0	1.2921100937723901e+18
14639.0	1.29185777451008e+18
14640.0	1.291639289020416e+18
14641.0	1.2872807075545042e+18
14642.0	1.291138001744691e+18
14643.0	1.2908864953384957e+18
14644.0	1.2906217072492541e+18
14645.0	1.2903721881042944e+18
14646.0	1.2900475229700093e+18
