# Flux units: erg / (cm m2 s)
# Wavelength units: Angstrom
wave	flux
14000.0	2.037398616460492e+18
14001.0	2.036948129755955e+18
14002.0	2.036634486413721e+18
14003.0	2.0362363580448763e+18
14004.0	2.035837644151193e+18
14005.0	2.0354388027506683e+18
14006.0	2.035033069269811e+18
14007.0	2.0346322850676733e+18
14008.0	2.034149648184115e+18
14009.0	2.0338406252871677e+18
14010.0	2.0334310984777725e+18
14011.0	2.032469253973606e+18
14012.0	2.032646416341401e+18
14013.0	2.032251113255731e+18
14014.0	2.031847730262835e+18
14015.0	2.031453331469107e+18
14016.0	2.031057719682662e+18
14017.0	2.0306601164406781e+18
14018.0	2.030262402469068e+18
14019.0	2.029864938477977e+18
14020.0	2.02946674467799e+18
14021.0	2.0290686783848445e+18
14022.0	2.0286708956266493e+18
14023.0	2.0282629978849275e+18
14024.0	2.0278641430626301e+18
14025.0	2.0274809346719744e+18
14026.0	2.027082656985907e+18
14027.0	2.026687587103539e+18
14028.0	2.0262844742238205e+18
14029.0	2.025889644255641e+18
14030.0	2.0249917259776003e+18
14031.0	2.0250670607106043e+18
14032.0	2.024702599181107e+18
14033.0	2.0242662992904187e+18
14034.0	2.023911233001881e+18
14035.0	2.0235164399435773e+18
14036.0	2.0231207274938363e+18
14037.0	2.0227249596792827e+18
14038.0	2.022329238840934e+18
14039.0	2.0219293589307387e+18
14040.0	2.0215324737535997e+18
14041.0	2.0211402056663035e+18
14042.0	2.0207366431571965e+18
14043.0	2.02031456363479e+18
14044.0	2.0199456645316605e+18
14045.0	2.0195577383878653e+18
14046.0	2.0191615008112635e+18
14047.0	2.0187636660436987e+18
14048.0	2.0183753607348221e+18
14049.0	2.017981797446451e+18
14050.0	2.0175871688048637e+18
14051.0	2.0171843210051576e+18
14052.0	2.0167938145255421e+18
14053.0	2.016403571448217e+18
14054.0	2.0160094981324797e+18
14055.0	2.01561526543319e+18
14056.0	2.015221148496691e+18
14057.0	2.014827143967539e+18
14058.0	2.0144332216467456e+18
14059.0	2.014039368112537e+18
14060.0	2.0136455984644093e+18
14061.0	2.0132456615116797e+18
14062.0	2.012858193385881e+18
14063.0	2.012449589323366e+18
14064.0	2.011984992980172e+18
14065.0	2.011670086313574e+18
14066.0	2.0112849820975096e+18
14067.0	2.0108881724178427e+18
14068.0	2.0104988873195515e+18
14069.0	2.0101044616822781e+18
14070.0	2.0097127539539965e+18
14071.0	2.0093176941379581e+18
14072.0	2.0089277060743163e+18
14073.0	2.0085351427080187e+18
14074.0	2.0081426917490683e+18
14075.0	2.0077329434804221e+18
14076.0	2.007353238172467e+18
14077.0	2.0068531227852792e+18
14078.0	2.0065646301675517e+18
14079.0	2.0061716255604728e+18
14080.0	2.005789710693171e+18
14081.0	2.0053979358560253e+18
14082.0	2.0050039615258621e+18
14083.0	2.0046128879763453e+18
14084.0	2.0042212926554107e+18
14085.0	2.0035634278170621e+18
14086.0	2.0034276397416443e+18
14087.0	2.0030483521863675e+18
14088.0	2.0026458852294653e+18
14089.0	2.0022630358712315e+18
14090.0	2.001874059473715e+18
14091.0	2.0014846904893437e+18
14092.0	2.0010939877163003e+18
14093.0	2.0007032396447744e+18
14094.0	2.0003124680851448e+18
14095.0	1.999921352592588e+18
14096.0	1.999508866282291e+18
14097.0	1.999123458398617e+18
14098.0	1.998740650983424e+18
14099.0	1.9983601705680893e+18
14100.0	1.997959237048729e+18
14101.0	1.99758068098007e+18
14102.0	1.997190557020979e+18
14103.0	1.9967873099235325e+18
14104.0	1.9964083881115645e+18
14105.0	1.996021389747814e+18
14106.0	1.995631946943692e+18
14107.0	1.9952418397618173e+18
14108.0	1.994841515255398e+18
14109.0	1.9944590349959165e+18
14110.0	1.9940712380366843e+18
14111.0	1.9936741968314365e+18
14112.0	1.9932880792715261e+18
14113.0	1.9929070888288253e+18
14114.0	1.9925049339281403e+18
14115.0	1.992126825811148e+18
14116.0	1.9917164131647483e+18
14117.0	1.9904679701905408e+18
14118.0	1.990958507465113e+18
14119.0	1.990555196614246e+18
14120.0	1.9901744645406715e+18
14121.0	1.9897846778036221e+18
14122.0	1.9893988119019512e+18
14123.0	1.989011219624755e+18
14124.0	1.98861985415168e+18
14125.0	1.987800647860223e+18
14126.0	1.9878560697155581e+18
14127.0	1.9874710644850688e+18
14128.0	1.9870827088445437e+18
14129.0	1.9866848891764733e+18
14130.0	1.9862879469567997e+18
14131.0	1.9859215627583483e+18
14132.0	1.9855256204607483e+18
14133.0	1.9846262543089649e+18
14134.0	1.9847563901403136e+18
14135.0	1.9843584698089464e+18
14136.0	1.9839739762835456e+18
14137.0	1.98359682950103e+18
14138.0	1.9832041436610555e+18
14139.0	1.9828258073739261e+18
14140.0	1.9824349418618877e+18
14141.0	1.982041600032768e+18
14142.0	1.9816056172314621e+18
14143.0	1.981276334168473e+18
14144.0	1.980895144076902e+18
14145.0	1.9805093670944763e+18
14146.0	1.9801219476226043e+18
14147.0	1.9797363904217083e+18
14148.0	1.9793500111372283e+18
14149.0	1.978964643518873e+18
14150.0	1.978580891546419e+18
14151.0	1.9781904236543992e+18
14152.0	1.9778100338360317e+18
14153.0	1.977424553810329e+18
14154.0	1.977014090832281e+18
14155.0	1.9766324578222075e+18
14156.0	1.976265919273369e+18
14157.0	1.975884024538726e+18
14158.0	1.9754952159133693e+18
14159.0	1.9751142338592765e+18
14160.0	1.9747219456393208e+18
14161.0	1.9742874409107453e+18
14162.0	1.9738575901818877e+18
14163.0	1.9735721023635453e+18
14164.0	1.9731555794550781e+18
14165.0	1.972755342190182e+18
14166.0	1.9724200059076603e+18
14167.0	1.972024442775142e+18
14168.0	1.9716530807767037e+18
14169.0	1.9712711508099064e+18
14170.0	1.9708842396876797e+18
14171.0	1.970500868558029e+18
14172.0	1.9701197623525373e+18
14173.0	1.9697009711644664e+18
14174.0	1.9693473342947325e+18
14175.0	1.9689694946131963e+18
14176.0	1.9685863164215293e+18
14177.0	1.968203131518976e+18
14178.0	1.9678191345991677e+18
14179.0	1.9674300961259517e+18
14180.0	1.9670540197298173e+18
14181.0	1.9666711569498107e+18
14182.0	1.966287599593062e+18
14183.0	1.9659055505080315e+18
14184.0	1.965517802202726e+18
14185.0	1.9651387361067e+18
14186.0	1.9645796823597053e+18
14187.0	1.964347723926732e+18
14188.0	1.9639889582620664e+18
14189.0	1.9636093016080381e+18
14190.0	1.963227536057958e+18
14191.0	1.9628450138554363e+18
14192.0	1.9624565206417405e+18
14193.0	1.9620562699550715e+18
14194.0	1.961699437025689e+18
14195.0	1.9613200655843325e+18
14196.0	1.9609383252000765e+18
14197.0	1.9605568649953277e+18
14198.0	1.9601706803265536e+18
14199.0	1.959792065537638e+18
14200.0	1.9593142017720317e+18
14201.0	1.9590254776287227e+18
14202.0	1.9586507333435387e+18
14203.0	1.9582625505083387e+18
14204.0	1.957886063070412e+18
14205.0	1.957504983708467e+18
14206.0	1.9570057659023355e+18
14207.0	1.956745344922419e+18
14208.0	1.9562698350002173e+18
14209.0	1.9557520683040765e+18
14210.0	1.955410182196428e+18
14211.0	1.9551157521219584e+18
14212.0	1.9547398065881083e+18
14213.0	1.9543598697545725e+18
14214.0	1.9539792383442941e+18
14215.0	1.9535886261682173e+18
14216.0	1.953219977045606e+18
14217.0	1.952839922771558e+18
14218.0	1.9524479264751616e+18
14219.0	1.9520798729437181e+18
14220.0	1.9517001894461435e+18
14221.0	1.9513189926436861e+18
14222.0	1.9509262900264955e+18
14223.0	1.950560704423526e+18
14224.0	1.9501807441018875e+18
14225.0	1.9495053537837056e+18
14226.0	1.94932325220352e+18
14227.0	1.9489377872773115e+18
14228.0	1.9478315664408579e+18
14229.0	1.9480489521840118e+18
14230.0	1.947800203113267e+18
14231.0	1.9474154562519035e+18
14232.0	1.947042426598195e+18
14233.0	1.9466599664713725e+18
14234.0	1.9462844286238715e+18
14235.0	1.9459030892150784e+18
14236.0	1.94552652627968e+18
14237.0	1.945146383086387e+18
14238.0	1.9447679796903933e+18
14239.0	1.944381702746931e+18
14240.0	1.9425248457785347e+18
14241.0	1.9436223122636797e+18
14242.0	1.9432503999725563e+18
14243.0	1.942726563279667e+18
14244.0	1.9424979284131835e+18
14245.0	1.942099414168371e+18
14246.0	1.9415511381049341e+18
14247.0	1.9411828899577853e+18
14248.0	1.9407946098147325e+18
14249.0	1.9404294486753275e+18
14250.0	1.9400512801603581e+18
14251.0	1.939675702047539e+18
14252.0	1.9392976862052347e+18
14253.0	1.9389189640421373e+18
14254.0	1.9385392771891192e+18
14255.0	1.938130960016998e+18
14256.0	1.9374678925639677e+18
14257.0	1.9373785756991483e+18
14258.0	1.9370307252912125e+18
14259.0	1.9366344944254973e+18
14260.0	1.9362640920838144e+18
14261.0	1.9358788335173627e+18
14262.0	1.9355450373832704e+18
14263.0	1.934702633235251e+18
14264.0	1.9346757276139517e+18
14265.0	1.934410473118105e+18
14266.0	1.9340405489270781e+18
14267.0	1.9336644389765115e+18
14268.0	1.9332679027654656e+18
14269.0	1.9327963858206715e+18
14270.0	1.932428552070758e+18
14271.0	1.932050876805939e+18
14272.0	1.931673758544691e+18
14273.0	1.931290176022118e+18
14274.0	1.9301938872975355e+18
14275.0	1.9304643494412283e+18
14276.0	1.9301521925603325e+18
14277.0	1.9297803289231355e+18
14278.0	1.9294165384822781e+18
14279.0	1.9290396953673728e+18
14280.0	1.928658020414259e+18
14281.0	1.92828910117847e+18
14282.0	1.9279135784304637e+18
14283.0	1.927537797313331e+18
14284.0	1.9271620262625277e+18
14285.0	1.9267861277048832e+18
14286.0	1.9264098952806392e+18
14287.0	1.9260346460012541e+18
14288.0	1.9256560865771515e+18
14289.0	1.924329159786494e+18
14290.0	1.9249048598872061e+18
14291.0	1.924532377170739e+18
14292.0	1.9241584985899005e+18
14293.0	1.9237808132587515e+18
14294.0	1.9231696612229115e+18
14295.0	1.922910312307097e+18
14296.0	1.921781435518157e+18
14297.0	1.922168110081638e+18
14298.0	1.921602092112281e+18
14299.0	1.92141200457728e+18
14300.0	1.921043784951398e+18
14301.0	1.9206725320048637e+18
14302.0	1.9202998680944637e+18
14303.0	1.9198916868177917e+18
14304.0	1.91953529512919e+18
14305.0	1.9191754993434621e+18
14306.0	1.918787803047526e+18
14307.0	1.9184182093676541e+18
14308.0	1.9180496827187192e+18
14309.0	1.91766980460544e+18
14310.0	1.9172350381522941e+18
14311.0	1.916867967765708e+18
14312.0	1.9165133175521275e+18
14313.0	1.9160898723643387e+18
14314.0	1.9158025675735037e+18
14315.0	1.9154328296095736e+18
14316.0	1.9150106125139965e+18
14317.0	1.9146766033092605e+18
14318.0	1.9143149939064827e+18
14319.0	1.9139428098244605e+18
14320.0	1.9135691459919872e+18
14321.0	1.9131695814934525e+18
14322.0	1.9126801414488061e+18
14323.0	1.912326355261849e+18
14324.0	1.9119723677483005e+18
14325.0	1.9115890167513083e+18
14326.0	1.911225843712e+18
14327.0	1.9108457676275707e+18
14328.0	1.9104729292341243e+18
14329.0	1.9101061373493243e+18
14330.0	1.909733018776371e+18
14331.0	1.909359680421888e+18
14332.0	1.908986917525913e+18
14333.0	1.9086140304785405e+18
14334.0	1.9082411333648384e+18
14335.0	1.90785663312855e+18
14336.0	1.9074620346859517e+18
14337.0	1.90711969391575e+18
14338.0	1.9067472464314363e+18
14339.0	1.9063659758092288e+18
14340.0	1.90600484791255e+18
14341.0	1.9056309827534843e+18
14342.0	1.905258090672947e+18
14343.0	1.9048852640235515e+18
14344.0	1.9045108636712955e+18
14345.0	1.9041437077209083e+18
14346.0	1.9037683460341755e+18
14347.0	1.9033838424424443e+18
14348.0	1.9030263904337917e+18
14349.0	1.9026558991728637e+18
14350.0	1.9022590207066107e+18
14351.0	1.901880709585305e+18
14352.0	1.9015319464968187e+18
14353.0	1.9011487011962877e+18
14354.0	1.9006920018886653e+18
14355.0	1.9003146554572797e+18
14356.0	1.8999450668105725e+18
14357.0	1.8995809290813435e+18
14358.0	1.8992093607231483e+18
14359.0	1.898822023459635e+18
14360.0	1.898463786277273e+18
14361.0	1.8980938134323197e+18
14362.0	1.897723441289625e+18
14363.0	1.897351525643059e+18
14364.0	1.8969001950445563e+18
14365.0	1.8965905446797307e+18
14366.0	1.8962244205281277e+18
14367.0	1.895867700006092e+18
14368.0	1.895496297742336e+18
14369.0	1.8951259289550843e+18
14370.0	1.8947551524814845e+18
14371.0	1.8943844800266237e+18
14372.0	1.894008344910233e+18
14373.0	1.893642673743462e+18
14374.0	1.893272009677209e+18
14375.0	1.892900152750899e+18
14376.0	1.892531146273587e+18
14377.0	1.8921599939903483e+18
14378.0	1.8917875146293245e+18
14379.0	1.8914197127561208e+18
14380.0	1.8910484463878141e+18
14381.0	1.8906668855197696e+18
14382.0	1.8903072138854392e+18
14383.0	1.8899347882115064e+18
14384.0	1.8895494172377083e+18
14385.0	1.8891984513007613e+18
14386.0	1.8888099731865597e+18
14387.0	1.8884581516115965e+18
14388.0	1.8880865765425147e+18
14389.0	1.8877182226989053e+18
14390.0	1.8872975675621373e+18
14391.0	1.8868785062608893e+18
14392.0	1.8865073489444861e+18
14393.0	1.8861386645897213e+18
14394.0	1.8857301309915133e+18
14395.0	1.8853876140605437e+18
14396.0	1.8850288836280315e+18
14397.0	1.8846591607635965e+18
14398.0	1.8842888322416637e+18
14399.0	1.8839192234622973e+18
14400.0	1.8835309886177275e+18
14401.0	1.8831722078535675e+18
14402.0	1.8828037718015992e+18
14403.0	1.8815687254343662e+18
14404.0	1.878141297911396e+18
14405.0	1.8801368856788948e+18
14406.0	1.881321685961932e+18
14407.0	1.879751415719527e+18
14408.0	1.8805715967672315e+18
14409.0	1.8802051253272573e+18
14410.0	1.87984988120023e+18
14411.0	1.879486766881177e+18
14412.0	1.8791156867399675e+18
14413.0	1.878750557477273e+18
14414.0	1.878379193801113e+18
14415.0	1.878011509368422e+18
14416.0	1.8776427193171963e+18
14417.0	1.8772684062064635e+18
14418.0	1.8768930092875773e+18
14419.0	1.8765354247389181e+18
14420.0	1.8761629873209341e+18
14421.0	1.8757981231382525e+18
14422.0	1.875422479594291e+18
14423.0	1.875025807487795e+18
14424.0	1.8697586626002913e+18
14425.0	1.8742898044436477e+18
14426.0	1.873953971555532e+18
14427.0	1.8735895955898363e+18
14428.0	1.8731991159537656e+18
14429.0	1.872850545803264e+18
14430.0	1.8724857386631168e+18
14431.0	1.8719236130078715e+18
14432.0	1.8716436046282747e+18
14433.0	1.8703623236091894e+18
14434.0	1.8708953575718912e+18
14435.0	1.8705229352534013e+18
14436.0	1.8701796247601147e+18
14437.0	1.8698122976821245e+18
14438.0	1.8694106444201981e+18
14439.0	1.8690674178129915e+18
14440.0	1.8687080062255104e+18
14441.0	1.8683334196461563e+18
14442.0	1.86796011987927e+18
14443.0	1.8675523177676797e+18
14444.0	1.867231597795737e+18
14445.0	1.8668656112173053e+18
14446.0	1.8649133489324035e+18
14447.0	1.8661106784403456e+18
14448.0	1.8657662036082688e+18
14449.0	1.865399836187033e+18
14450.0	1.8650264927993853e+18
14451.0	1.8646607209693181e+18
14452.0	1.8642951370440704e+18
14453.0	1.86391530087383e+18
14454.0	1.8635617764114427e+18
14455.0	1.8631854970109947e+18
14456.0	1.8628233255714813e+18
14457.0	1.8624541848764413e+18
14458.0	1.8620893626368e+18
14459.0	1.8617189703614461e+18
14460.0	1.861348828066611e+18
14461.0	1.86095307367383e+18
14462.0	1.8605641610297344e+18
14463.0	1.860238464935526e+18
14464.0	1.8598837056700413e+18
14465.0	1.8594972055896061e+18
14466.0	1.8591510496804861e+18
14467.0	1.8587586758967293e+18
14468.0	1.858415734502195e+18
14469.0	1.858027070160896e+18
14470.0	1.8576572030124027e+18
14471.0	1.857311763490406e+18
14472.0	1.8569492397293563e+18
14473.0	1.8565874021564413e+18
14474.0	1.856223311403417e+18
14475.0	1.855754993873715e+18
14476.0	1.855332786844467e+18
14477.0	1.8550239015206907e+18
14478.0	1.8546551836114936e+18
14479.0	1.8542910693703677e+18
14480.0	1.8538926289453053e+18
14481.0	1.8534634325278715e+18
14482.0	1.8530926677983227e+18
14483.0	1.8527191230840832e+18
14484.0	1.8523508078280704e+18
14485.0	1.8519546826588155e+18
14486.0	1.8513203176669184e+18
14487.0	1.8512616460648445e+18
14488.0	1.8508893982294013e+18
14489.0	1.8505183700975616e+18
14490.0	1.850158755505766e+18
14491.0	1.849796589099417e+18
14492.0	1.8494320487170043e+18
14493.0	1.8490582355673088e+18
14494.0	1.8486770505089021e+18
14495.0	1.8483308258131965e+18
14496.0	1.8478268516663293e+18
14497.0	1.84759857750999e+18
14498.0	1.847234156245811e+18
14499.0	1.8468680958476283e+18
14500.0	1.846501255308902e+18
14501.0	1.8461014844506107e+18
14502.0	1.8455377951588352e+18
14503.0	1.8453835169136635e+18
14504.0	1.845030156867993e+18
14505.0	1.8446423146102781e+18
14506.0	1.8442485801943037e+18
14507.0	1.843683473227776e+18
14508.0	1.8435716799266813e+18
14509.0	1.8432069633835003e+18
14510.0	1.842837852887449e+18
14511.0	1.8424745775071224e+18
14512.0	1.8420927112937472e+18
14513.0	1.8417419718492155e+18
14514.0	1.8413420265078784e+18
14515.0	1.8410048497647613e+18
14516.0	1.8382118727974927e+18
14517.0	1.840262924363366e+18
14518.0	1.8399120624451581e+18
14519.0	1.8395476294369277e+18
14520.0	1.839182112620544e+18
14521.0	1.838815817341337e+18
14522.0	1.838448723466649e+18
14523.0	1.8380144519413755e+18
14524.0	1.837654204848537e+18
14525.0	1.8372780093341693e+18
14526.0	1.8368903868579837e+18
14527.0	1.8365047893917693e+18
14528.0	1.8360259139600381e+18
14529.0	1.8357835284873213e+18
14530.0	1.8354104065589243e+18
14531.0	1.835060865007616e+18
14532.0	1.8346171294547968e+18
14533.0	1.8343304940748792e+18
14534.0	1.833967178429235e+18
14535.0	1.83358964409303e+18
14536.0	1.8332312122949627e+18
14537.0	1.8327687584022525e+18
14538.0	1.8324108651528187e+18
14539.0	1.8320449138065403e+18
14540.0	1.831678724223795e+18
14541.0	1.8312877999915005e+18
14542.0	1.830943180875366e+18
14543.0	1.8305292232032253e+18
14544.0	1.8302101171994621e+18
14545.0	1.8298313631596544e+18
14546.0	1.8234991334916063e+18
14547.0	1.8236037897650127e+18
14548.0	1.8287232834076664e+18
14549.0	1.828254175671091e+18
14550.0	1.8280054853206013e+18
14551.0	1.8276509022158843e+18
14552.0	1.827284164018176e+18
14553.0	1.826911637680947e+18
14554.0	1.8265533686218747e+18
14555.0	1.826186809940377e+18
14556.0	1.825819159062118e+18
14557.0	1.825453580170035e+18
14558.0	1.825081391054848e+18
14559.0	1.8229279011635164e+18
14560.0	1.8243459500474365e+18
14561.0	1.823981152973619e+18
14562.0	1.823595990037299e+18
14563.0	1.8232545149714427e+18
14564.0	1.8228799401361405e+18
14565.0	1.8225243235549181e+18
14566.0	1.8221581406830587e+18
14567.0	1.821790538458726e+18
14568.0	1.821413608102297e+18
14569.0	1.8210555185594365e+18
14570.0	1.820191057405542e+18
14571.0	1.8203203946414077e+18
14572.0	1.8199182464516093e+18
14573.0	1.8195412405977085e+18
14574.0	1.8192034581970944e+18
14575.0	1.8188538394705915e+18
14576.0	1.8184857658064893e+18
14577.0	1.8181193363095547e+18
14578.0	1.8177583795404797e+18
14579.0	1.8173941445033981e+18
14580.0	1.8170277401722877e+18
14581.0	1.8166568965898237e+18
14582.0	1.8162938275692541e+18
14583.0	1.8159277386498045e+18
14584.0	1.81554693275648e+18
14585.0	1.8151939501981693e+18
14586.0	1.8148240847273981e+18
14587.0	1.8144597104394235e+18
14588.0	1.8140940157845504e+18
14589.0	1.8137322000220155e+18
14590.0	1.8133703658045435e+18
14591.0	1.8130070501588987e+18
14592.0	1.812638697993011e+18
14593.0	1.8121608577155072e+18
14594.0	1.8119202187509755e+18
14595.0	1.8115498684186621e+18
14596.0	1.8111212910804987e+18
14597.0	1.8107462045401085e+18
14598.0	1.8104619112595453e+18
14599.0	1.8101087961612285e+18
14600.0	1.809745010753536e+18
14601.0	1.8093748265156605e+18
14602.0	1.8089289233465341e+18
14603.0	1.8085677451182077e+18
14604.0	1.8081594883440637e+18
14605.0	1.807828980544307e+18
14606.0	1.8074067701596155e+18
14607.0	1.8071081826910203e+18
14608.0	1.806749826390425e+18
14609.0	1.8063832928747517e+18
14610.0	1.806011462791987e+18
14611.0	1.8056552439087096e+18
14612.0	1.8052991542099965e+18
14613.0	1.8049371840970747e+18
14614.0	1.8045702747717627e+18
14615.0	1.8042102659153915e+18
14616.0	1.8038469804687355e+18
14617.0	1.8034827336876027e+18
14618.0	1.8031145341943803e+18
14619.0	1.8026934998925307e+18
14620.0	1.8021961695232e+18
14621.0	1.8020260636524541e+18
14622.0	1.8016593506205693e+18
14623.0	1.8012981455486976e+18
14624.0	1.8008727424598013e+18
14625.0	1.8005652009910272e+18
14626.0	1.8002033751621624e+18
14627.0	1.7998353132421117e+18
14628.0	1.7994759754743808e+18
14629.0	1.7991110961922043e+18
14630.0	1.7987445710651387e+18
14631.0	1.7983801430900733e+18
14632.0	1.7976144410181632e+18
14633.0	1.797593645658931e+18
14634.0	1.797281656550195e+18
14635.0	1.7968934082838525e+18
14636.0	1.7964787040255997e+18
14637.0	1.7961894564331515e+18
14638.0	1.7958191295889403e+18
14639.0	1.7954437276368893e+18
14640.0	1.7950805361426432e+18
14641.0	1.7931712285638643e+18
14642.0	1.7943462359859195e+18
14643.0	1.7939912468725755e+18
14644.0	1.793613237741158e+18
14645.0	1.7932357772247035e+18
14646.0	1.792881824943308e+18
14647.0	1.7925085318873088e+18
14648.0	1.7921544822980608e+18
14649.0	1.7917919115608061e+18
