# Flux units: erg / (cm m2 s)
# Wavelength units: Angstrom
wave	flux
14000.0	1.5323395558211581e+18
14001.0	1.5319577432948733e+18
14002.0	1.5316849843503096e+18
14003.0	1.5313569713225725e+18
14004.0	1.531029159621427e+18
14005.0	1.530701181825843e+18
14006.0	1.530369642227302e+18
14007.0	1.5300412248686587e+18
14008.0	1.529672199936409e+18
14009.0	1.5293900440731648e+18
14010.0	1.5290566170378237e+18
14011.0	1.5284387910254595e+18
14012.0	1.5284074998398976e+18
14013.0	1.5280802417868797e+18
14014.0	1.5277504570851325e+18
14015.0	1.5274246670385147e+18
14016.0	1.5270987746508797e+18
14017.0	1.5267717598674941e+18
14018.0	1.5264445387243515e+18
14019.0	1.526118015513395e+18
14020.0	1.5257908866449403e+18
14021.0	1.5254639825911803e+18
14022.0	1.525137024850329e+18
14023.0	1.524802206983782e+18
14024.0	1.5244773833048064e+18
14025.0	1.524158537347891e+18
14026.0	1.5238315510857725e+18
14027.0	1.523506292876902e+18
14028.0	1.5231774611210237e+18
14029.0	1.5228524361154557e+18
14030.0	1.5222636095209472e+18
14031.0	1.522194192112025e+18
14032.0	1.521876492038963e+18
14033.0	1.5215302673432573e+18
14034.0	1.5212252156133373e+18
14035.0	1.5208998282199037e+18
14036.0	1.5205743821062141e+18
14037.0	1.5202479444590587e+18
14038.0	1.5199237549588477e+18
14039.0	1.5195967150096381e+18
14040.0	1.5192673832927232e+18
14041.0	1.5189465458802685e+18
14042.0	1.5186189724155904e+18
14043.0	1.5182780912631803e+18
14044.0	1.517967979524915e+18
14045.0	1.5176574114463741e+18
14046.0	1.517333505481113e+18
14047.0	1.517006235684045e+18
14048.0	1.5166853949161467e+18
14049.0	1.5163618647605248e+18
14050.0	1.5160375745970173e+18
14051.0	1.515708351932006e+18
14052.0	1.5153874826428413e+18
14053.0	1.515064694040166e+18
14054.0	1.514741142074163e+18
14055.0	1.5144166958825472e+18
14056.0	1.5140934022856704e+18
14057.0	1.513769677514342e+18
14058.0	1.513446014818713e+18
14059.0	1.5131224460754944e+18
14060.0	1.5127989461188605e+18
14061.0	1.5124721678942205e+18
14062.0	1.512152199541555e+18
14063.0	1.5118218460921853e+18
14064.0	1.5114560222527485e+18
14065.0	1.5111753075523581e+18
14066.0	1.510855361010073e+18
14067.0	1.510528480444416e+18
14068.0	1.510210527035392e+18
14069.0	1.5098868089749501e+18
14070.0	1.5095649699627005e+18
14071.0	1.509241058964275e+18
14072.0	1.508919857486233e+18
14073.0	1.5085974128164864e+18
14074.0	1.508275080554086e+18
14075.0	1.5079449888292856e+18
14076.0	1.5076245691695104e+18
14077.0	1.5072302425178104e+18
14078.0	1.5069073633181696e+18
14079.0	1.5065850880983037e+18
14080.0	1.5062677772566525e+18
14081.0	1.5059459147563005e+18
14082.0	1.5056187758215165e+18
14083.0	1.5053015203446781e+18
14084.0	1.504977850938163e+18
14085.0	1.5045159574044672e+18
14086.0	1.5043305205137405e+18
14087.0	1.504013736476672e+18
14088.0	1.5036871327350784e+18
14089.0	1.503366473161113e+18
14090.0	1.5030483368804347e+18
14091.0	1.5027293550280701e+18
14092.0	1.5024084437958653e+18
14093.0	1.5020875543740413e+18
14094.0	1.5017669082218493e+18
14095.0	1.5014462620696576e+18
14096.0	1.5011134893457405e+18
14097.0	1.5007957137752064e+18
14098.0	1.500479214950809e+18
14099.0	1.500164392170291e+18
14100.0	1.499838469583667e+18
14101.0	1.4995240175796227e+18
14102.0	1.4992029838737403e+18
14103.0	1.4988767643303928e+18
14104.0	1.4985626730364925e+18
14105.0	1.498243380805632e+18
14106.0	1.497922452796211e+18
14107.0	1.4975990316924925e+18
14108.0	1.497276647420723e+18
14109.0	1.496959907004416e+18
14110.0	1.496636553009561e+18
14111.0	1.4963084678397947e+18
14112.0	1.496000584115814e+18
14113.0	1.4956828672655357e+18
14114.0	1.4953597615734781e+18
14115.0	1.4950458497957885e+18
14116.0	1.4947013330206715e+18
14117.0	1.4939712154238976e+18
14118.0	1.494089374000742e+18
14119.0	1.4937628793110525e+18
14120.0	1.4934461556719613e+18
14121.0	1.4931267644555256e+18
14122.0	1.492803677218406e+18
14123.0	1.492487268990976e+18
14124.0	1.4921661262331904e+18
14125.0	1.4916465928962048e+18
14126.0	1.4915396800872448e+18
14127.0	1.4912239328821245e+18
14128.0	1.4909052513419264e+18
14129.0	1.4905829761220605e+18
14130.0	1.4902598553305085e+18
14131.0	1.4899502200651776e+18
14132.0	1.4896289330233341e+18
14133.0	1.4890647823581176e+18
14134.0	1.4889958934315003e+18
14135.0	1.488672158593843e+18
14136.0	1.4883372216090621e+18
14137.0	1.4880435330875387e+18
14138.0	1.4877206555656187e+18
14139.0	1.4874091513184253e+18
14140.0	1.4870816701284355e+18
14141.0	1.486774907122483e+18
14142.0	1.4864197015830523e+18
14143.0	1.4861314740453373e+18
14144.0	1.4858247060062203e+18
14145.0	1.485507227392409e+18
14146.0	1.4851899098398715e+18
14147.0	1.4848741844451325e+18
14148.0	1.4845566320115707e+18
14149.0	1.4842395040415741e+18
14150.0	1.4839256006524925e+18
14151.0	1.4836049343676413e+18
14152.0	1.483292450331033e+18
14153.0	1.4829771477221376e+18
14154.0	1.4826501329387515e+18
14155.0	1.4821823002705915e+18
14156.0	1.4820246615490557e+18
14157.0	1.4817136069312507e+18
14158.0	1.4813950092771325e+18
14159.0	1.4810785674952701e+18
14160.0	1.4807631810002941e+18
14161.0	1.480417801876275e+18
14162.0	1.480084626499174e+18
14163.0	1.479816732947251e+18
14164.0	1.479484591046656e+18
14165.0	1.4790770389155837e+18
14166.0	1.4788714425221115e+18
14167.0	1.4785508634787837e+18
14168.0	1.478238607612313e+18
14169.0	1.4779273583788032e+18
14170.0	1.4776100743806973e+18
14171.0	1.4772961105936384e+18
14172.0	1.476983312823091e+18
14173.0	1.4766152978792445e+18
14174.0	1.4763527310934016e+18
14175.0	1.4760399886876672e+18
14176.0	1.4757248353959936e+18
14177.0	1.4754112440631293e+18
14178.0	1.4750962518327293e+18
14179.0	1.474771861005926e+18
14180.0	1.4744693342470144e+18
14181.0	1.4741554392465403e+18
14182.0	1.4738412321898493e+18
14183.0	1.473527860638515e+18
14184.0	1.4732118768746493e+18
14185.0	1.4729005940867072e+18
14186.0	1.4725029220581373e+18
14187.0	1.472262621993369e+18
14188.0	1.4719584812662784e+18
14189.0	1.4716451835346941e+18
14190.0	1.4713314663727101e+18
14191.0	1.4710165362180093e+18
14192.0	1.4706998528442365e+18
14193.0	1.470378570835558e+18
14194.0	1.4700774130974715e+18
14195.0	1.469765724300902e+18
14196.0	1.4694528074121213e+18
14197.0	1.4691393804959741e+18
14198.0	1.4688249201033213e+18
14199.0	1.468512266616832e+18
14200.0	1.4681527090675707e+18
14201.0	1.4678898704908285e+18
14202.0	1.4675771012415485e+18
14203.0	1.4672530509922301e+18
14204.0	1.466952294229606e+18
14205.0	1.4666403252535293e+18
14206.0	1.4662725267357693e+18
14207.0	1.4660176086827003e+18
14208.0	1.4657059584737277e+18
14209.0	1.4653283033415677e+18
14210.0	1.4650455216881656e+18
14211.0	1.464767724545638e+18
14212.0	1.4644589432406013e+18
14213.0	1.4641467779710973e+18
14214.0	1.4638361394282493e+18
14215.0	1.4635187598000125e+18
14216.0	1.4632134698336253e+18
14217.0	1.4629029386649597e+18
14218.0	1.4625867888066557e+18
14219.0	1.4622809082822653e+18
14220.0	1.4619696137502715e+18
14221.0	1.4616578477785085e+18
14222.0	1.4613367134093307e+18
14223.0	1.461037381032345e+18
14224.0	1.4607272072183805e+18
14225.0	1.4602674863341565e+18
14226.0	1.4601055140577275e+18
14227.0	1.4597927783628797e+18
14228.0	1.4590626943205376e+18
14229.0	1.4591312393142262e+18
14230.0	1.4588620706938875e+18
14231.0	1.4585437834182653e+18
14232.0	1.458242011634073e+18
14233.0	1.4579282407849981e+18
14234.0	1.4576222059102203e+18
14235.0	1.4573112100126715e+18
14236.0	1.457002593124352e+18
14237.0	1.4566925317177341e+18
14238.0	1.4563834182238208e+18
14239.0	1.4560708939218941e+18
14240.0	1.455016058342605e+18
14241.0	1.4554541852721147e+18
14242.0	1.4551456438812672e+18
14243.0	1.4547663546482685e+18
14244.0	1.454527747404595e+18
14245.0	1.4542094651621373e+18
14246.0	1.4538941424205821e+18
14247.0	1.4535987426230272e+18
14248.0	1.4532843409506304e+18
14249.0	1.4529813259747328e+18
14250.0	1.4526736905535488e+18
14251.0	1.452366271558451e+18
14252.0	1.4520577419116541e+18
14253.0	1.4517490562367488e+18
14254.0	1.451439870600806e+18
14255.0	1.4511173386895357e+18
14256.0	1.4506833490214912e+18
14257.0	1.450512719701606e+18
14258.0	1.4502084816666621e+18
14259.0	1.4498919945863165e+18
14260.0	1.449586488193843e+18
14261.0	1.4492760660770816e+18
14262.0	1.4489856776339453e+18
14263.0	1.4484679226818557e+18
14264.0	1.4483395400695808e+18
14265.0	1.4480595987988477e+18
14266.0	1.4477544581496832e+18
14267.0	1.4474456181243904e+18
14268.0	1.4471370498899965e+18
14269.0	1.4468265321431035e+18
14270.0	1.4465234349588477e+18
14271.0	1.4462139641102336e+18
14272.0	1.4459093250998272e+18
14273.0	1.4456022533931003e+18
14274.0	1.4449899655397376e+18
14275.0	1.4449617697505277e+18
14276.0	1.444668774128025e+18
14277.0	1.4443644085862397e+18
14278.0	1.444068906447667e+18
14279.0	1.4437623581900797e+18
14280.0	1.4434523169161213e+18
14281.0	1.4431496878161915e+18
14282.0	1.4428436378419197e+18
14283.0	1.44253745364992e+18
14284.0	1.4422313382445053e+18
14285.0	1.4419252916256763e+18
14286.0	1.4416186074726397e+18
14287.0	1.441313520510566e+18
14288.0	1.4410076617965563e+18
14289.0	1.4402254559772654e+18
14290.0	1.440394050220851e+18
14291.0	1.4400903037583357e+18
14292.0	1.4397842604949501e+18
14293.0	1.4394788094672893e+18
14294.0	1.4391114840670208e+18
14295.0	1.4388625923899392e+18
14296.0	1.4381794560311299e+18
14297.0	1.4382589162815485e+18
14298.0	1.437855179289395e+18
14299.0	1.4376411238236157e+18
14300.0	1.4373394577358845e+18
14301.0	1.437036405850112e+18
14302.0	1.4367320335974397e+18
14303.0	1.436414112065126e+18
14304.0	1.4361168399302653e+18
14305.0	1.4358189554270208e+18
14306.0	1.4354887714275325e+18
14307.0	1.4352050334728187e+18
14308.0	1.4349072865427453e+18
14309.0	1.4346019529555965e+18
14310.0	1.4341861095243773e+18
14311.0	1.4339131408646141e+18
14312.0	1.4336724146585597e+18
14313.0	1.4333299665141757e+18
14314.0	1.4330810077282304e+18
14315.0	1.432778645386035e+18
14316.0	1.4324490301341693e+18
14317.0	1.4321567945195515e+18
14318.0	1.4318651981168637e+18
14319.0	1.4315618962505725e+18
14320.0	1.4312582118637565e+18
14321.0	1.430953779213107e+18
14322.0	1.4306301685268477e+18
14323.0	1.4303429090344957e+18
14324.0	1.4300450715074557e+18
14325.0	1.429738311856947e+18
14326.0	1.4294394358202365e+18
14327.0	1.429133577106227e+18
14328.0	1.4288297215918077e+18
14329.0	1.4285308807872507e+18
14330.0	1.4282281745121277e+18
14331.0	1.427925344085606e+18
14332.0	1.4276229498667003e+18
14333.0	1.4273204868612093e+18
14334.0	1.4270180859314173e+18
14335.0	1.4267044593663997e+18
14336.0	1.4263936194969595e+18
14337.0	1.4261098513432576e+18
14338.0	1.425807920175513e+18
14339.0	1.425502113470873e+18
14340.0	1.4252050963496957e+18
14341.0	1.4249012911669245e+18
14342.0	1.4246001955045373e+18
14343.0	1.4242945062404093e+18
14344.0	1.4239937964539901e+18
14345.0	1.4236964605657085e+18
14346.0	1.4233937425465341e+18
14347.0	1.4230824765358077e+18
14348.0	1.422791952197222e+18
14349.0	1.4224907340611581e+18
14350.0	1.422177961456435e+18
14351.0	1.4218737066442747e+18
14352.0	1.4215825984585725e+18
14353.0	1.421285338067763e+18
14354.0	1.420983297848115e+18
14355.0	1.4206799959818235e+18
14356.0	1.4203808062111741e+18
14357.0	1.4200827589689341e+18
14358.0	1.419782082736947e+18
14359.0	1.419475022774272e+18
14360.0	1.4191796867301376e+18
14361.0	1.418880248656691e+18
14362.0	1.4185447529906176e+18
14363.0	1.4181840747233277e+18
14364.0	1.417844591113011e+18
14365.0	1.4175799942840317e+18
14366.0	1.4172761505136637e+18
14367.0	1.416983819268915e+18
14368.0	1.416683644675686e+18
14369.0	1.416384032119193e+18
14370.0	1.4160842618568701e+18
14371.0	1.4157834765729787e+18
14372.0	1.4154791764623357e+18
14373.0	1.415181937881907e+18
14374.0	1.414805222273843e+18
14375.0	1.4145000598142973e+18
14376.0	1.4142022373867517e+18
14377.0	1.4139029603745792e+18
14378.0	1.413602841146163e+18
14379.0	1.413304961676083e+18
14380.0	1.4130058356588541e+18
14381.0	1.4127013962973181e+18
14382.0	1.4124073671983101e+18
14383.0	1.412101557138227e+18
14384.0	1.411801827141222e+18
14385.0	1.411511759142912e+18
14386.0	1.4112054306668541e+18
14387.0	1.4109144449548285e+18
14388.0	1.410614189830963e+18
14389.0	1.4103176206614525e+18
14390.0	1.4100181926543357e+18
14391.0	1.4097209104531453e+18
14392.0	1.409419138668953e+18
14393.0	1.4091247958360064e+18
14394.0	1.4088098438709245e+18
14395.0	1.4085215626461181e+18
14396.0	1.408230684308275e+18
14397.0	1.4079330195865597e+18
14398.0	1.4076337861951485e+18
14399.0	1.4073375248875517e+18
14400.0	1.4070294062825472e+18
14401.0	1.4067396503404544e+18
14402.0	1.4064436692123643e+18
14403.0	1.404271000446562e+18
14404.0	1.400047703739595e+18
14405.0	1.4048973962608602e+18
14406.0	1.4052548080041981e+18
14407.0	1.4019736081793037e+18
14408.0	1.4046529690009597e+18
14409.0	1.4043549486022656e+18
14410.0	1.4040641197572093e+18
14411.0	1.403769807123251e+18
14412.0	1.4034720635486205e+18
14413.0	1.4031769690963965e+18
14414.0	1.4028793228296192e+18
14415.0	1.4025832796258301e+18
14416.0	1.4022852860706813e+18
14417.0	1.4019816067170301e+18
14418.0	1.4016773787484157e+18
14419.0	1.401397370368819e+18
14420.0	1.401099448955699e+18
14421.0	1.4008053661695997e+18
14422.0	1.4005079044521981e+18
14423.0	1.4002103722704893e+18
14424.0	1.3881616904486817e+18
14425.0	1.3996198805372925e+18
14426.0	1.3993257851682816e+18
14427.0	1.3990298434666493e+18
14428.0	1.3987227054899197e+18
14429.0	1.3984381144137728e+18
14430.0	1.3981435576713213e+18
14431.0	1.3977827812573181e+18
14432.0	1.3975443786956797e+18
14433.0	1.3950174976016364e+18
14434.0	1.3969552039739387e+18
14435.0	1.3966531939532797e+18
14436.0	1.3963686741803008e+18
14437.0	1.3960737206566912e+18
14438.0	1.3957192742862845e+18
14439.0	1.3954710721527803e+18
14440.0	1.3951885161529341e+18
14441.0	1.3948902105415677e+18
14442.0	1.3945914091634685e+18
14443.0	1.3942784218103808e+18
14444.0	1.394007808671744e+18
14445.0	1.393715530275225e+18
14446.0	1.3908745201385485e+18
14447.0	1.3931230923849723e+18
14448.0	1.3928325588189181e+18
14449.0	1.3925383359430653e+18
14450.0	1.3922413657980923e+18
14451.0	1.3919484960047101e+18
14452.0	1.3916551556104187e+18
14453.0	1.3913248675921917e+18
14454.0	1.3910677005533181e+18
14455.0	1.3907700383481853e+18
14456.0	1.390472189077094e+18
14457.0	1.3901735621820413e+18
14458.0	1.3898910078599165e+18
14459.0	1.389595726341734e+18
14460.0	1.3893050518470653e+18
14461.0	1.3890030317600765e+18
14462.0	1.3886507731386368e+18
14463.0	1.3884236314443773e+18
14464.0	1.388132468732723e+18
14465.0	1.3878277047320573e+18
14466.0	1.3875447595007997e+18
14467.0	1.3872203862900733e+18
14468.0	1.386956675298099e+18
14469.0	1.3866552910675965e+18
14470.0	1.3863586858270717e+18
14471.0	1.3860740452581373e+18
14472.0	1.3857846919692285e+18
14473.0	1.3854951675527165e+18
14474.0	1.3852036189650944e+18
14475.0	1.3849086193041408e+18
14476.0	1.384471790092288e+18
14477.0	1.3843264322928637e+18
14478.0	1.3840325919375355e+18
14479.0	1.3837384747581437e+18
14480.0	1.3834418217025533e+18
14481.0	1.3831580183166973e+18
14482.0	1.3828645017616381e+18
14483.0	1.3825687613865981e+18
14484.0	1.382280072475443e+18
14485.0	1.3819693869563901e+18
14486.0	1.3815562983440381e+18
14487.0	1.3814065767907328e+18
14488.0	1.3811045592203264e+18
14489.0	1.3808172116475901e+18
14490.0	1.3805284849876992e+18
14491.0	1.380240189502259e+18
14492.0	1.3799488682459133e+18
14493.0	1.379654604265881e+18
14494.0	1.379356999103283e+18
14495.0	1.3790757089443837e+18
14496.0	1.3787201628274685e+18
14497.0	1.3784925211721723e+18
14498.0	1.3782014951948285e+18
14499.0	1.3779115085660157e+18
14500.0	1.377620623517286e+18
14501.0	1.3772693044199421e+18
14502.0	1.3768742060163072e+18
14503.0	1.3767370212376573e+18
14504.0	1.3764550499237885e+18
14505.0	1.3761153918304253e+18
14506.0	1.3757480370700285e+18
14507.0	1.3754697642934272e+18
14508.0	1.3752960009895933e+18
14509.0	1.3750054657458173e+18
14510.0	1.3747140983521275e+18
14511.0	1.3744255939903485e+18
14512.0	1.3741280198655997e+18
14513.0	1.3738441040723965e+18
14514.0	1.373528338412339e+18
14515.0	1.3732613013372925e+18
14516.0	1.37178046707794e+18
14517.0	1.3726829235929085e+18
14518.0	1.3723932389539837e+18
14519.0	1.3721036272959488e+18
14520.0	1.3718135123214333e+18
14521.0	1.3715221004681213e+18
14522.0	1.3712342277685245e+18
14523.0	1.3708106206806013e+18
14524.0	1.370515984246374e+18
14525.0	1.370364227616768e+18
14526.0	1.3700764899737597e+18
14527.0	1.369781767975731e+18
14528.0	1.3694253184057341e+18
14529.0	1.3692055108714493e+18
14530.0	1.368911831577395e+18
14531.0	1.368631312331571e+18
14532.0	1.3681323134681085e+18
14533.0	1.3680544168542205e+18
14534.0	1.367766077748019e+18
14535.0	1.3674720125779965e+18
14536.0	1.3671869550952445e+18
14537.0	1.366893155005235e+18
14538.0	1.3666115376906237e+18
14539.0	1.3663232480772093e+18
14540.0	1.3660348510896125e+18
14541.0	1.3657363164692477e+18
14542.0	1.365457339888435e+18
14543.0	1.365081458946867e+18
14544.0	1.364881742967603e+18
14545.0	1.364589782499328e+18
14546.0	1.3487968907952015e+18
14547.0	1.3503351249436534e+18
14548.0	1.3637234850791421e+18
14549.0	1.3633845249179645e+18
14550.0	1.363150253745766e+18
14551.0	1.3628665694781437e+18
14552.0	1.362578096993075e+18
14553.0	1.3622861809844221e+18
14554.0	1.362003741586227e+18
14555.0	1.3617158999244797e+18
14556.0	1.3614251147001853e+18
14557.0	1.361141392683827e+18
14558.0	1.3608539696136187e+18
14559.0	1.3596845943029727e+18
14560.0	1.3602708674052093e+18
14561.0	1.359988922934886e+18
14562.0	1.3596932152754173e+18
14563.0	1.3594175203180541e+18
14564.0	1.359125039756083e+18
14565.0	1.3588443535769597e+18
14566.0	1.358557471571968e+18
14567.0	1.3582697381232637e+18
14568.0	1.3579685308923901e+18
14569.0	1.3576971040587773e+18
14570.0	1.3571607003922432e+18
14571.0	1.3571222243639293e+18
14572.0	1.3568143070855165e+18
14573.0	1.356527083664179e+18
14574.0	1.356247500587008e+18
14575.0	1.3559766425010173e+18
14576.0	1.3556889216352253e+18
14577.0	1.355401458299699e+18
14578.0	1.3551176456863741e+18
14579.0	1.3548329363308544e+18
14580.0	1.3545468923478013e+18
14581.0	1.3542571145953277e+18
14582.0	1.3539746122825725e+18
14583.0	1.353688814924595e+18
14584.0	1.3533965415612413e+18
14585.0	1.3531169777778685e+18
14586.0	1.3528294808879101e+18
14587.0	1.3525425938497533e+18
14588.0	1.3522596553293821e+18
14589.0	1.3519843730915325e+18
14590.0	1.3517096201748477e+18
14591.0	1.3513716314144765e+18
14592.0	1.3510654103126013e+18
14593.0	1.3507385230360573e+18
14594.0	1.3505188639801341e+18
14595.0	1.350240900743168e+18
14596.0	1.3499273018605565e+18
14597.0	1.3496542124048381e+18
14598.0	1.3494179506159616e+18
14599.0	1.3491470749138941e+18
14600.0	1.3488717087899645e+18
14601.0	1.3485983676760061e+18
14602.0	1.3483173870567421e+18
14603.0	1.3480496000401408e+18
14604.0	1.347751207187251e+18
14605.0	1.347488509539123e+18
14606.0	1.34718511120384e+18
14607.0	1.3469490566135805e+18
14608.0	1.3466745813598208e+18
14609.0	1.3463916478726141e+18
14610.0	1.3461093183651837e+18
14611.0	1.3458521957859325e+18
14612.0	1.3455802840907773e+18
14613.0	1.3453065923330045e+18
14614.0	1.3450307245703165e+18
14615.0	1.3447564598706173e+18
14616.0	1.3444850749800445e+18
14617.0	1.344211164279603e+18
14618.0	1.34393135890432e+18
14619.0	1.343648359985971e+18
14620.0	1.3432965560270845e+18
14621.0	1.343116576764723e+18
14622.0	1.3428416107773947e+18
14623.0	1.342569429807923e+18
14624.0	1.3422682427097085e+18
14625.0	1.342020777095987e+18
14626.0	1.3417447432388608e+18
14627.0	1.3414667649023997e+18
14628.0	1.341201910543155e+18
14629.0	1.3409284847042557e+18
14630.0	1.3406542132936701e+18
14631.0	1.3403808252035072e+18
14632.0	1.339085132555879e+18
14633.0	1.3397491990921213e+18
14634.0	1.3395584404684795e+18
14635.0	1.3391518798708723e+18
14636.0	1.3384531918716925e+18
14637.0	1.3387419428585472e+18
14638.0	1.3384663049437181e+18
14639.0	1.3381894448087037e+18
14640.0	1.3379204557045757e+18
14641.0	1.3338275565535194e+18
14642.0	1.3373735251738621e+18
14643.0	1.337102464922419e+18
14644.0	1.3368240159850493e+18
14645.0	1.3365444723343357e+18
14646.0	1.3362733424574461e+18
14647.0	1.3359998193106941e+18
