# Flux units: erg / (cm m2 s)
# Wavelength units: Angstrom
wave	flux
14000.0	1.74046107968471e+18
14001.0	1.7401237351694333e+18
14002.0	1.739816730571571e+18
14003.0	1.7394946113798141e+18
14004.0	1.739172312671846e+18
14005.0	1.7388500844281853e+18
14006.0	1.7385270156460032e+18
14007.0	1.7382053058183165e+18
14008.0	1.7378727579090941e+18
14009.0	1.737561741878886e+18
14010.0	1.737229898612736e+18
14011.0	1.7367160410079232e+18
14012.0	1.7364524390678525e+18
14013.0	1.7361307997044733e+18
14014.0	1.7358091653742587e+18
14015.0	1.7354873548832765e+18
14016.0	1.7351661181730816e+18
14017.0	1.7348447086575613e+18
14018.0	1.734523346118246e+18
14019.0	1.73420208759767e+18
14020.0	1.7338807972003837e+18
14021.0	1.7335595957223424e+18
14022.0	1.7332385267843072e+18
14023.0	1.7329173957705725e+18
14024.0	1.7325956389666808e+18
14025.0	1.7322759088504824e+18
14026.0	1.731954943931187e+18
14027.0	1.7316344705843197e+18
14028.0	1.731313844564787e+18
14029.0	1.7309932554551293e+18
14030.0	1.7306345065676797e+18
14031.0	1.730351637672755e+18
14032.0	1.7300319998312443e+18
14033.0	1.729707092266189e+18
14034.0	1.729391506122342e+18
14035.0	1.7290714505281533e+18
14036.0	1.7287514066780157e+18
14037.0	1.7284314316144637e+18
14038.0	1.7281115102380027e+18
14039.0	1.72779168113623e+18
14040.0	1.727471904043827e+18
14041.0	1.7271522091597824e+18
14042.0	1.7268311989420032e+18
14043.0	1.7265082308231163e+18
14044.0	1.7261920406994941e+18
14045.0	1.7258741258780672e+18
14046.0	1.7255547396947963e+18
14047.0	1.725235328345702e+18
14048.0	1.7249162273751037e+18
14049.0	1.7245971482148856e+18
14050.0	1.724278100931379e+18
14051.0	1.723958095668838e+18
14052.0	1.7236401674256381e+18
14053.0	1.7233214019993597e+18
14054.0	1.7230026348953597e+18
14055.0	1.72268386779136e+18
14056.0	1.7223652298719232e+18
14057.0	1.722046706037555e+18
14058.0	1.7217281872363515e+18
14059.0	1.721409759032115e+18
14060.0	1.721091402969907e+18
14061.0	1.720772323809689e+18
14062.0	1.720454925726515e+18
14063.0	1.720135022804992e+18
14064.0	1.7198111571050493e+18
14065.0	1.7194997048672256e+18
14066.0	1.719182816811417e+18
14067.0	1.7188649657434107e+18
14068.0	1.718547186817433e+18
14069.0	1.7182293172944893e+18
14070.0	1.7179118151925757e+18
14071.0	1.717593923859251e+18
14072.0	1.717276757301657e+18
14073.0	1.716959308886835e+18
14074.0	1.716641961135309e+18
14075.0	1.7163246402273275e+18
14076.0	1.716007453537075e+18
14077.0	1.7156821030535165e+18
14078.0	1.7153725902618621e+18
14079.0	1.715055507590348e+18
14080.0	1.7147392973340667e+18
14081.0	1.71442243108864e+18
14082.0	1.7141052947300347e+18
14083.0	1.713788742218547e+18
14084.0	1.7134722299723768e+18
14085.0	1.713126542147584e+18
14086.0	1.7128384135954432e+18
14087.0	1.7125227100110848e+18
14088.0	1.712206238030233e+18
14089.0	1.711890029451673e+18
14090.0	1.711573666522726e+18
14091.0	1.7112576458489853e+18
14092.0	1.7109415580663805e+18
14093.0	1.7106255239708672e+18
14094.0	1.7103095754391547e+18
14095.0	1.7099936873054205e+18
14096.0	1.7096761835257856e+18
14097.0	1.7093620335116288e+18
14098.0	1.709045663871795e+18
14099.0	1.7087308494798848e+18
14100.0	1.708413855727616e+18
14101.0	1.7080998701301752e+18
14102.0	1.7077844433698816e+18
14103.0	1.707467291911782e+18
14104.0	1.707153888483737e+18
14105.0	1.7068386714386435e+18
14106.0	1.7065235668008952e+18
14107.0	1.7062084353196024e+18
14108.0	1.7058935588519928e+18
14109.0	1.7055780817600507e+18
14110.0	1.7052633797754875e+18
14111.0	1.7049479832141821e+18
14112.0	1.7046341100240893e+18
14113.0	1.7043196999630843e+18
14114.0	1.70400516407296e+18
14115.0	1.7036904570552315e+18
14116.0	1.7033747434045435e+18
14117.0	1.7029938603360253e+18
14118.0	1.702747508729446e+18
14119.0	1.7024323722149885e+18
14120.0	1.7021183413190646e+18
14121.0	1.701804813739622e+18
14122.0	1.7014895966945277e+18
14123.0	1.7011763476168704e+18
14124.0	1.7008622865219581e+18
14125.0	1.7004957630726141e+18
14126.0	1.7002357464236032e+18
14127.0	1.6999221399912448e+18
14128.0	1.699608395985715e+18
14129.0	1.699293688967987e+18
14130.0	1.698979936573849e+18
14131.0	1.6986681940901885e+18
14132.0	1.6983547973730296e+18
14133.0	1.6979786823892987e+18
14134.0	1.6977283545825275e+18
14135.0	1.6974137952043005e+18
14136.0	1.6971009840119803e+18
14137.0	1.6967891911966715e+18
14138.0	1.6964756652949496e+18
14139.0	1.696163516802662e+18
14140.0	1.6958501637062653e+18
14141.0	1.6955377417453563e+18
14142.0	1.6952202715201533e+18
14143.0	1.6949124314169341e+18
14144.0	1.6946004590854141e+18
14145.0	1.6942880237027325e+18
14146.0	1.6939754742349821e+18
14147.0	1.69366325863383e+18
14148.0	1.693351081620275e+18
14149.0	1.6930390337912832e+18
14150.0	1.6927269406638077e+18
14151.0	1.6924146394988541e+18
14152.0	1.6921029976784893e+18
14153.0	1.6917910991667197e+18
14154.0	1.6914792996405248e+18
14155.0	1.6911632252796923e+18
14156.0	1.690855247603302e+18
14157.0	1.6905442835824637e+18
14158.0	1.6902322877628413e+18
14159.0	1.6899212901875707e+18
14160.0	1.689609091363635e+18
14161.0	1.6892917134131195e+18
14162.0	1.6889750568828925e+18
14163.0	1.6886758788562944e+18
14164.0	1.688362918346752e+18
14165.0	1.6880465252188152e+18
14166.0	1.6877427317800957e+18
14167.0	1.687431992573952e+18
14168.0	1.6871209262120957e+18
14169.0	1.6868103514226685e+18
14170.0	1.686499259894988e+18
14171.0	1.6861886247075837e+18
14172.0	1.6858783988842493e+18
14173.0	1.6855630929199104e+18
14174.0	1.6852569070501885e+18
14175.0	1.6849470436147197e+18
14176.0	1.6846367171280893e+18
14177.0	1.6843265030488061e+18
14178.0	1.684016218505216e+18
14179.0	1.6837052578398205e+18
14180.0	1.6833961711894528e+18
14181.0	1.6830861970243581e+18
14182.0	1.682776207759769e+18
14183.0	1.682466446665318e+18
14184.0	1.6821560832688125e+18
14185.0	1.6818469462867965e+18
14186.0	1.6815231997050877e+18
14187.0	1.6812249377144832e+18
14188.0	1.6809181210214397e+18
14189.0	1.6806086384287744e+18
14190.0	1.680299326963712e+18
14191.0	1.67998999536599e+18
14192.0	1.6796799423479803e+18
14193.0	1.6793697484013568e+18
14194.0	1.6790624384581624e+18
14195.0	1.6787536135323648e+18
14196.0	1.6784446158012413e+18
14197.0	1.6781357204111357e+18
14198.0	1.6778262831169533e+18
14199.0	1.6775178692329472e+18
14200.0	1.6772018619809787e+18
14201.0	1.6769004274188285e+18
14202.0	1.6765922500935677e+18
14203.0	1.6762827037474808e+18
14204.0	1.6759749676630013e+18
14205.0	1.6756666057883643e+18
14206.0	1.6753446778568704e+18
14207.0	1.675050376966963e+18
14208.0	1.6747422617174013e+18
14209.0	1.674419156025344e+18
14210.0	1.674115221658009e+18
14211.0	1.6738180887740408e+18
14212.0	1.6735101714956285e+18
14213.0	1.6732005999837181e+18
14214.0	1.6728583934312443e+18
14215.0	1.6725491440418816e+18
14216.0	1.6722428877078525e+18
14217.0	1.6719351650451453e+18
14218.0	1.671627497747251e+18
14219.0	1.6713199042691067e+18
14220.0	1.6710124131319803e+18
14221.0	1.6707049001844739e+18
14222.0	1.670397529843302e+18
14223.0	1.670090213189222e+18
14224.0	1.6697829703548928e+18
14225.0	1.669451962594099e+18
14226.0	1.669168540051046e+18
14227.0	1.668861585784832e+18
14228.0	1.6684916162953216e+18
14229.0	1.668235114473062e+18
14230.0	1.66794080854999e+18
14231.0	1.6676336613457915e+18
14232.0	1.6672917936930813e+18
14233.0	1.6669849837109243e+18
14234.0	1.6666782441930744e+18
14235.0	1.6663712513392635e+18
14236.0	1.666064934607257e+18
14237.0	1.665758231999283e+18
14238.0	1.665451846480691e+18
14239.0	1.6651447999397888e+18
14240.0	1.6646417820942333e+18
14241.0	1.6645326328823805e+18
14242.0	1.664226522510131e+18
14243.0	1.6639023262990333e+18
14244.0	1.6636143168651261e+18
14245.0	1.6633070270545915e+18
14246.0	1.6630001751293947e+18
14247.0	1.662696426989158e+18
14248.0	1.6623885063553021e+18
14249.0	1.6620845518553088e+18
14250.0	1.6617787988377597e+18
14251.0	1.6614682173374461e+18
14252.0	1.66113295990784e+18
14253.0	1.6608272119234557e+18
14254.0	1.6605214186405885e+18
14255.0	1.6602121004646397e+18
14256.0	1.659886562076262e+18
14257.0	1.6596042334076925e+18
14258.0	1.6592999366524925e+18
14259.0	1.6589946668187643e+18
14260.0	1.6586887258963965e+18
14261.0	1.6583850851303421e+18
14262.0	1.658101281744486e+18
14263.0	1.6577606472171515e+18
14264.0	1.6574837476556797e+18
14265.0	1.6571863631134715e+18
14266.0	1.6568815345205248e+18
14267.0	1.6565767713587195e+18
14268.0	1.6562720333627387e+18
14269.0	1.6559670554525693e+18
14270.0	1.6556627670859779e+18
14271.0	1.6553581163315197e+18
14272.0	1.6550537222684672e+18
14273.0	1.6547491050684413e+18
14274.0	1.6542722378694653e+18
14275.0	1.6537255690633213e+18
14276.0	1.653425693104537e+18
14277.0	1.653121478557696e+18
14278.0	1.6528178327584765e+18
14279.0	1.6525136014344192e+18
14280.0	1.652208858405273e+18
14281.0	1.651905717600256e+18
14282.0	1.6516018369200123e+18
14283.0	1.6512979730169853e+18
14284.0	1.6509941728673787e+18
14285.0	1.6506904163385341e+18
14286.0	1.6503866547765243e+18
14287.0	1.6500831197069312e+18
14288.0	1.6497794873294848e+18
14289.0	1.6493498110836728e+18
14290.0	1.649172427256627e+18
14291.0	1.648869137134387e+18
14292.0	1.6485659459977213e+18
14293.0	1.6482624226721787e+18
14294.0	1.6479433183461376e+18
14295.0	1.647656293734809e+18
14296.0	1.6472514276360187e+18
14297.0	1.6470500322574333e+18
14298.0	1.6467268896555003e+18
14299.0	1.646441707182489e+18
14300.0	1.6461078976266237e+18
14301.0	1.6458049615036413e+18
14302.0	1.645501765333811e+18
14303.0	1.6451952791519224e+18
14304.0	1.644894916653875e+18
14305.0	1.644593648186163e+18
14306.0	1.6442894470610941e+18
14307.0	1.6439878782812157e+18
14308.0	1.6436861283074043e+18
14309.0	1.6433834119659515e+18
14310.0	1.6430730217259005e+18
14311.0	1.642770600663449e+18
14312.0	1.6424731607564285e+18
14313.0	1.642159406684569e+18
14314.0	1.6418722595995643e+18
14315.0	1.6415704911708157e+18
14316.0	1.6412624094756861e+18
14317.0	1.640965563482112e+18
14318.0	1.640664717800243e+18
14319.0	1.6403629544046592e+18
14320.0	1.6400611138338816e+18
14321.0	1.639759467878809e+18
14322.0	1.639453171279462e+18
14323.0	1.6391539815088125e+18
14324.0	1.638854681008537e+18
14325.0	1.63855320785879e+18
14326.0	1.638251785040691e+18
14327.0	1.6379408579297277e+18
14328.0	1.6376152809537533e+18
14329.0	1.6373147020296187e+18
14330.0	1.6370133832302592e+18
14331.0	1.6367120795303933e+18
14332.0	1.6364109134036987e+18
14333.0	1.6361097724428285e+18
14334.0	1.6358086734249981e+18
14335.0	1.6355059939934203e+18
14336.0	1.6352042222092288e+18
14337.0	1.6349056615841787e+18
14338.0	1.634604611220275e+18
14339.0	1.6343038209032192e+18
14340.0	1.634003248689971e+18
14341.0	1.6337023811977213e+18
14342.0	1.6334018794487805e+18
14343.0	1.633100986790707e+18
14344.0	1.6328005387288576e+18
14345.0	1.6325002131406843e+18
14346.0	1.632199409401856e+18
14347.0	1.6318974648123384e+18
14348.0	1.6315989629075453e+18
14349.0	1.6312987279163392e+18
14350.0	1.6309966222655485e+18
14351.0	1.6306963302318075e+18
14352.0	1.630398209169817e+18
14353.0	1.6300981469839357e+18
14354.0	1.6297977828081661e+18
14355.0	1.6294974672863232e+18
14356.0	1.629197742322483e+18
14357.0	1.6288984300781565e+18
14358.0	1.6285986413608957e+18
14359.0	1.628290755959193e+18
14360.0	1.6279666100797437e+18
14361.0	1.6276670042341368e+18
14362.0	1.6273673749004285e+18
14363.0	1.6270676952350715e+18
14364.0	1.6267622291079163e+18
14365.0	1.6264674299346941e+18
14366.0	1.6261680086384635e+18
14367.0	1.6258697164488696e+18
14368.0	1.6255702783754237e+18
14369.0	1.625271016462745e+18
14370.0	1.624971749516902e+18
14371.0	1.6246725463244795e+18
14372.0	1.624373369975603e+18
14373.0	1.6240742406029307e+18
14374.0	1.6237752219598848e+18
14375.0	1.6234762200940541e+18
14376.0	1.6231772685598715e+18
14377.0	1.6228782901821435e+18
14378.0	1.6225791910084605e+18
14379.0	1.6222807209803776e+18
14380.0	1.6219819506401272e+18
14381.0	1.6216829504520184e+18
14382.0	1.6213844686798848e+18
14383.0	1.621085500368486e+18
14384.0	1.6207874497708032e+18
14385.0	1.620489058595635e+18
14386.0	1.620190632188313e+18
14387.0	1.6198922074587133e+18
14388.0	1.6195936468336637e+18
14389.0	1.6192955878473728e+18
14390.0	1.6189971463405563e+18
14391.0	1.6186992148611067e+18
14392.0	1.6184008891170816e+18
14393.0	1.6181029962252285e+18
14394.0	1.6178005986508797e+18
14395.0	1.6175056333832192e+18
14396.0	1.617192141035929e+18
14397.0	1.616879230858035e+18
14398.0	1.616581153416806e+18
14399.0	1.6162832504586237e+18
14400.0	1.615982978557542e+18
14401.0	1.6156866744680443e+18
14402.0	1.6153894191103997e+18
14403.0	1.614956367288729e+18
14404.0	1.6142269912449016e+18
14405.0	1.614283210017996e+18
14406.0	1.614198600839987e+18
14407.0	1.6137106472566781e+18
14408.0	1.6136025063555072e+18
14409.0	1.6132826571210747e+18
14410.0	1.6127730944835581e+18
14411.0	1.6124760203198461e+18
14412.0	1.612178254934835e+18
14413.0	1.6118813569318907e+18
14414.0	1.611583710665113e+18
14415.0	1.6112865559707648e+18
14416.0	1.6109894801293307e+18
14417.0	1.6106920066678781e+18
14418.0	1.610393595360051e+18
14419.0	1.610097752643993e+18
14420.0	1.609800225495449e+18
14421.0	1.6095037687332861e+18
14422.0	1.6092067398680576e+18
14423.0	1.608908560085811e+18
14424.0	1.60782706886574e+18
14425.0	1.6083149536624637e+18
14426.0	1.6080193810595835e+18
14427.0	1.6077227498143741e+18
14428.0	1.6074235516551163e+18
14429.0	1.607128812879872e+18
14430.0	1.6068328208465915e+18
14431.0	1.6065256233107453e+18
14432.0	1.6062390835609597e+18
14433.0	1.605799362795929e+18
14434.0	1.6056450241527803e+18
14435.0	1.6053480120647675e+18
14436.0	1.6050541222166525e+18
14437.0	1.6044565345599485e+18
14438.0	1.6039633800396797e+18
14439.0	1.6036704045498363e+18
14440.0	1.6033751976902653e+18
14441.0	1.6030779322662907e+18
14442.0	1.602781138282086e+18
14443.0	1.602480051008307e+18
14444.0	1.602190451094323e+18
14445.0	1.6018950395527165e+18
14446.0	1.6013675622039547e+18
14447.0	1.6013017133088763e+18
14448.0	1.6010074510065661e+18
14449.0	1.6007116435226621e+18
14450.0	1.600415807517491e+18
14451.0	1.600120028554854e+18
14452.0	1.5998241808056315e+18
14453.0	1.5995263248236544e+18
14454.0	1.599232971846451e+18
14455.0	1.5989366895673341e+18
14456.0	1.5986413082247165e+18
14457.0	1.598345539328409e+18
14458.0	1.598050597548851e+18
14459.0	1.597754890728243e+18
14460.0	1.5974594775089147e+18
14461.0	1.597161376579584e+18
14462.0	1.5968611197779963e+18
14463.0	1.596572813387366e+18
14464.0	1.5962783413698557e+18
14465.0	1.5959800558911485e+18
14466.0	1.5956880870342653e+18
14467.0	1.595390309905203e+18
14468.0	1.5950975525191675e+18
14469.0	1.594799542186803e+18
14470.0	1.5945038873755643e+18
14471.0	1.5942111937429501e+18
14472.0	1.593917639439155e+18
14473.0	1.593622778190233e+18
14474.0	1.5933278951309307e+18
14475.0	1.5930327771906048e+18
14476.0	1.5927289619415035e+18
14477.0	1.5924432811851776e+18
14478.0	1.5921485424099325e+18
14479.0	1.5918537784688637e+18
14480.0	1.5915579525300221e+18
14481.0	1.591264448557875e+18
14482.0	1.5909693490724856e+18
14483.0	1.5906738922323965e+18
14484.0	1.5903793178738685e+18
14485.0	1.5900814098825213e+18
14486.0	1.5897493082472448e+18
14487.0	1.5894664108310525e+18
14488.0	1.5891718884818941e+18
14489.0	1.5888764064759803e+18
14490.0	1.5885824948174848e+18
14491.0	1.5882882425815037e+18
14492.0	1.587994040677171e+18
14493.0	1.587699598858649e+18
14494.0	1.5874027310546941e+18
14495.0	1.5871108947378176e+18
14496.0	1.5867997092577277e+18
14497.0	1.5865221956501501e+18
14498.0	1.5862281111863293e+18
14499.0	1.5859338908270592e+18
14500.0	1.5856395983257595e+18
14501.0	1.585341670201753e+18
14502.0	1.5850207707136e+18
14503.0	1.5847552377159675e+18
14504.0	1.5844621783400443e+18
14505.0	1.5841649682808832e+18
14506.0	1.5838667213897725e+18
14507.0	1.5835496320073725e+18
14508.0	1.5832866374025213e+18
14509.0	1.5829926552797181e+18
14510.0	1.5826986664460288e+18
14511.0	1.5824046960672763e+18
14512.0	1.5821088265076733e+18
14513.0	1.5818168509399037e+18
14514.0	1.581518669479936e+18
14515.0	1.581228879983411e+18
14516.0	1.5806090423828483e+18
14517.0	1.5806409711026176e+18
14518.0	1.580347488940851e+18
14519.0	1.5800537635094525e+18
14520.0	1.5797599944572925e+18
14521.0	1.5794662388269053e+18
14522.0	1.5791724731301885e+18
14523.0	1.578869503452774e+18
14524.0	1.5785758568742907e+18
14525.0	1.5782906458800128e+18
14526.0	1.57799766032384e+18
14527.0	1.5777008462069757e+18
14528.0	1.5773931839422464e+18
14529.0	1.5771152408379392e+18
14530.0	1.576821153018675e+18
14531.0	1.576529261336985e+18
14532.0	1.5762231744528381e+18
14533.0	1.575942092331417e+18
14534.0	1.5756486823116797e+18
14535.0	1.575355045799526e+18
14536.0	1.5750615770595325e+18
14537.0	1.5747665161617403e+18
14538.0	1.5744745473048576e+18
14539.0	1.574181011456e+18
14540.0	1.573887539360563e+18
14541.0	1.573593406242816e+18
14542.0	1.5733005314162685e+18
14543.0	1.5729740098830333e+18
14544.0	1.5726837288140797e+18
14545.0	1.5723899178188797e+18
14546.0	1.5709987040919544e+18
14547.0	1.570800729587711e+18
14548.0	1.5715082247864315e+18
14549.0	1.571201557410611e+18
14550.0	1.5709226680713213e+18
14551.0	1.5706292966391805e+18
14552.0	1.570335650060697e+18
14553.0	1.5700412317302781e+18
14554.0	1.569748939073126e+18
14555.0	1.5694553562480637e+18
14556.0	1.5691616962478075e+18
14557.0	1.5688684472893435e+18
14558.0	1.5685747151470587e+18
14559.0	1.5679362447704056e+18
14560.0	1.5674346429218813e+18
14561.0	1.5671409191682043e+18
14562.0	1.5668456150007805e+18
14563.0	1.5665551846146048e+18
14564.0	1.5662611051839485e+18
14565.0	1.5659687554842624e+18
14566.0	1.5656754763268093e+18
14567.0	1.5653820914728957e+18
14568.0	1.5650882267906043e+18
14569.0	1.564795477793177e+18
14570.0	1.5644360108408824e+18
14571.0	1.5642084698488824e+18
14572.0	1.5639105920565243e+18
14573.0	1.5636178581585915e+18
14574.0	1.5633266895749115e+18
14575.0	1.563035135115264e+18
14576.0	1.5627417032851453e+18
14577.0	1.5624484778147837e+18
14578.0	1.562154708762624e+18
14579.0	1.5618615067803643e+18
14580.0	1.5615680682393597e+18
14581.0	1.5612740827611133e+18
14582.0	1.5609809797644285e+18
14583.0	1.5606874321715197e+18
14584.0	1.560392470259302e+18
14585.0	1.5601003705401341e+18
14586.0	1.5598063666069504e+18
14587.0	1.5595129985302525e+18
14588.0	1.5592201320923133e+18
14589.0	1.5589314532474875e+18
14590.0	1.558643517633331e+18
14591.0	1.5583554159247357e+18
14592.0	1.5580673226047488e+18
14593.0	1.5577645794197501e+18
14594.0	1.5574913003814907e+18
14595.0	1.5572024973852667e+18
14596.0	1.5569088726171648e+18
14597.0	1.5566200645877757e+18
14598.0	1.5563379657670653e+18
14599.0	1.5560504915263485e+18
14600.0	1.5555041364541435e+18
14601.0	1.5551296941588477e+18
14602.0	1.554840609305395e+18
14603.0	1.5545524237107197e+18
14604.0	1.5542583040147453e+18
14605.0	1.5539737674645501e+18
14606.0	1.5536772620484603e+18
14607.0	1.5533952320143357e+18
14608.0	1.5530797901545472e+18
14609.0	1.552790149975244e+18
14610.0	1.552499699456409e+18
14611.0	1.5522121899835387e+18
14612.0	1.5519237007212544e+18
14613.0	1.5516345571475453e+18
14614.0	1.5513447726841853e+18
14615.0	1.5510558589583357e+18
14616.0	1.550766480503603e+18
14617.0	1.5504769611202557e+18
14618.0	1.5501874081824765e+18
14619.0	1.5498938522009597e+18
14620.0	1.549593929265971e+18
14621.0	1.5493186050850813e+18
14622.0	1.5490289028300797e+18
14623.0	1.5487391401771003e+18
14624.0	1.548441987160473e+18
14625.0	1.5481594454212603e+18
14626.0	1.5478693187026941e+18
14627.0	1.5475789118046203e+18
14628.0	1.5472896910557181e+18
14629.0	1.546999626412851e+18
14630.0	1.5467092195147773e+18
14631.0	1.5464188965027837e+18
14632.0	1.5460651975573504e+18
14633.0	1.5458296135679997e+18
14634.0	1.5455467044077565e+18
14635.0	1.5452498785468413e+18
14636.0	1.5449500562751488e+18
14637.0	1.544674361317785e+18
14638.0	1.5443829595308032e+18
14639.0	1.5440906198974464e+18
14640.0	1.5438002549424128e+18
14641.0	1.543262781728358e+18
14642.0	1.543217285274009e+18
14643.0	1.542926470689587e+18
14644.0	1.5426348306661373e+18
14645.0	1.542340356970905e+18
14646.0	1.5420507100807165e+18
14647.0	1.5417585080205307e+18
14648.0	1.5414673159487488e+18
