# Flux units: erg / (cm m2 s)
# Wavelength units: Angstrom
wave	flux
14000.0	1.5738697974546432e+18
14001.0	1.5734311269433341e+18
14002.0	1.5732605848649725e+18
14003.0	1.572954105393971e+18
14004.0	1.5726477970505725e+18
14005.0	1.5723413410676733e+18
14006.0	1.572027746379366e+18
14007.0	1.5717208105680893e+18
14008.0	1.5713367599611901e+18
14009.0	1.571116124471296e+18
14010.0	1.570799276680806e+18
14011.0	1.5699170333556739e+18
14012.0	1.5701979594489853e+18
14013.0	1.5698921628106747e+18
14014.0	1.5695815796326397e+18
14015.0	1.5692784606380032e+18
14016.0	1.5689748970471421e+18
14017.0	1.5686692715364347e+18
14018.0	1.5683634967085053e+18
14019.0	1.5680582386188285e+18
14020.0	1.5677521467015165e+18
14021.0	1.567446338319155e+18
14022.0	1.5671403151884285e+18
14023.0	1.5668227761766395e+18
14024.0	1.566518304938393e+18
14025.0	1.5662264266784763e+18
14026.0	1.5659200881360893e+18
14027.0	1.565616878544486e+18
14028.0	1.5653070067204093e+18
14029.0	1.5650044229189632e+18
14030.0	1.5642124728926213e+18
14031.0	1.5643828455211003e+18
14032.0	1.5640930241478653e+18
14033.0	1.5637509618794493e+18
14034.0	1.5634840363728893e+18
14035.0	1.5631799795318781e+18
14036.0	1.562875691165286e+18
14037.0	1.5625701394743296e+18
14038.0	1.5622673224695803e+18
14039.0	1.5619598615314432e+18
14040.0	1.561649558532915e+18
14041.0	1.5613522712985597e+18
14042.0	1.5610428776251387e+18
14043.0	1.5607071554666493e+18
14044.0	1.5604318312857597e+18
14045.0	1.5601368173641723e+18
14046.0	1.5598328762859515e+18
14047.0	1.5595247073492992e+18
14048.0	1.5592279167205373e+18
14049.0	1.5589259620646907e+18
14050.0	1.5586226367102973e+18
14051.0	1.5583100134227965e+18
14052.0	1.5580131741401085e+18
14053.0	1.5577123234250747e+18
14054.0	1.5574100164476928e+18
14055.0	1.557106590430003e+18
14056.0	1.5568040720596987e+18
14057.0	1.556501263443558e+18
14058.0	1.5561984833486843e+18
14059.0	1.5558957854621693e+18
14060.0	1.5555931345518587e+18
14061.0	1.5552840361574397e+18
14062.0	1.5549880558682107e+18
14063.0	1.5546723422175224e+18
14064.0	1.554287128949555e+18
14065.0	1.5540730130857981e+18
14066.0	1.5537770881613821e+18
14067.0	1.5534705784913915e+18
14068.0	1.5531744522403837e+18
14069.0	1.5528707728867323e+18
14070.0	1.5525703617347581e+18
14071.0	1.5522617096142843e+18
14072.0	1.5519612951068667e+18
14073.0	1.5516595417776125e+18
14074.0	1.551357910922035e+18
14075.0	1.5510418583715837e+18
14076.0	1.5507472387145725e+18
14077.0	1.5503410170167293e+18
14078.0	1.5501442706046976e+18
14079.0	1.5498420005371901e+18
14080.0	1.5495491827531773e+18
14081.0	1.5492478740201472e+18
14082.0	1.5489416428519421e+18
14083.0	1.5486444512477181e+18
14084.0	1.5483446709190653e+18
14085.0	1.547788663914496e+18
14086.0	1.5477333393670144e+18
14087.0	1.5474420868972541e+18
14088.0	1.5471312671604733e+18
14089.0	1.5468300758679547e+18
14090.0	1.5465312367411195e+18
14091.0	1.5462341374115837e+18
14092.0	1.545933660828467e+18
14093.0	1.5456331691458557e+18
14094.0	1.5453328972447741e+18
14095.0	1.5450326219882493e+18
14096.0	1.544710543061811e+18
14097.0	1.5444159653478395e+18
14098.0	1.5441225301622781e+18
14099.0	1.543832146752307e+18
14100.0	1.5435208706752507e+18
14101.0	1.5432323914792957e+18
14102.0	1.542930874708787e+18
14103.0	1.5426182296109053e+18
14104.0	1.5423307822137341e+18
14105.0	1.542033020184166e+18
14106.0	1.541733910944153e+18
14107.0	1.5414327716610043e+18
14108.0	1.541124637956505e+18
14109.0	1.5408261964496893e+18
14110.0	1.5405250789769213e+18
14111.0	1.540214207230771e+18
14112.0	1.5399262682611712e+18
14113.0	1.5396309926150141e+18
14114.0	1.5393239628513275e+18
14115.0	1.5390344015249405e+18
14116.0	1.538705952289587e+18
14117.0	1.53761457593385e+18
14118.0	1.5381388740001795e+18
14119.0	1.537825801083289e+18
14120.0	1.5375307720622077e+18
14121.0	1.5372329949331453e+18
14122.0	1.536923309336166e+18
14123.0	1.5366341187862525e+18
14124.0	1.5363311390425085e+18
14125.0	1.5356432681533437e+18
14126.0	1.5357489042161656e+18
14127.0	1.5354537342664701e+18
14128.0	1.5351544069226493e+18
14129.0	1.5348484324458493e+18
14130.0	1.5345408356122621e+18
14131.0	1.5342586411614203e+18
14132.0	1.533954359505715e+18
14133.0	1.533186575381297e+18
14134.0	1.5333630733713405e+18
14135.0	1.5330540689293307e+18
14136.0	1.532738095231795e+18
14137.0	1.5324701245046781e+18
14138.0	1.5321625159270397e+18
14139.0	1.5318754409840637e+18
14140.0	1.5315682803580925e+18
14141.0	1.531280530971033e+18
14142.0	1.530917686765158e+18
14143.0	1.5306790711328763e+18
14144.0	1.5303901641179133e+18
14145.0	1.5300915296731133e+18
14146.0	1.529793492497203e+18
14147.0	1.5294983493910525e+18
14148.0	1.5292002467839997e+18
14149.0	1.5289030568574979e+18
14150.0	1.5286094622883837e+18
14151.0	1.5283055446982653e+18
14152.0	1.5280149129854973e+18
14153.0	1.5277199393292285e+18
14154.0	1.5274030797946875e+18
14155.0	1.5269419160698883e+18
14156.0	1.5268221955342336e+18
14157.0	1.5265297166499835e+18
14158.0	1.5262296930516992e+18
14159.0	1.5259369792864253e+18
14160.0	1.525640797670605e+18
14161.0	1.5252876943163387e+18
14162.0	1.5249578391502843e+18
14163.0	1.5247525195808765e+18
14164.0	1.5244261356208125e+18
14165.0	1.5240524399116288e+18
14166.0	1.5238649880772603e+18
14167.0	1.523560067209625e+18
14168.0	1.523270921958195e+18
14169.0	1.5229808791257085e+18
14170.0	1.5226815333269501e+18
14171.0	1.5223856151134205e+18
14172.0	1.522095119296102e+18
14173.0	1.5217396822310907e+18
14174.0	1.521502224226713e+18
14175.0	1.5212099684794365e+18
14176.0	1.520914343867187e+18
14177.0	1.5206200329109504e+18
14178.0	1.5203243730665472e+18
14179.0	1.5200181066661888e+18
14180.0	1.5197360732766205e+18
14181.0	1.519441478785433e+18
14182.0	1.5191461981061115e+18
14183.0	1.5188517093113853e+18
14184.0	1.5185484762316797e+18
14185.0	1.518258534062489e+18
14186.0	1.5178080372916221e+18
14187.0	1.5176488668102653e+18
14188.0	1.5173724839870464e+18
14189.0	1.517079449776947e+18
14190.0	1.516786447443558e+18
14191.0	1.516492084477952e+18
14192.0	1.51619123544064e+18
14193.0	1.5158823048183805e+18
14194.0	1.5156102723272701e+18
14195.0	1.5153186507587581e+18
14196.0	1.5150247206453243e+18
14197.0	1.514729909728051e+18
14198.0	1.5144324513660928e+18
14199.0	1.5141403600355323e+18
14200.0	1.5137557775908864e+18
14201.0	1.5135568904060923e+18
14202.0	1.5132626616582144e+18
14203.0	1.5129571938533373e+18
14204.0	1.512675564794675e+18
14205.0	1.512382651380531e+18
14206.0	1.511982435926016e+18
14207.0	1.5117989535809536e+18
14208.0	1.5115061878063104e+18
14209.0	1.5110859554553853e+18
14210.0	1.510849995656396e+18
14211.0	1.510622208039321e+18
14212.0	1.5103347589644285e+18
14213.0	1.5100416475791357e+18
14214.0	1.5097497256984576e+18
14215.0	1.5094432932036605e+18
14216.0	1.509159620680089e+18
14217.0	1.508868532627046e+18
14218.0	1.5085667390324739e+18
14219.0	1.5082840748195835e+18
14220.0	1.5079912050262013e+18
14221.0	1.5076982060482557e+18
14222.0	1.5073912702369784e+18
14223.0	1.5071160332976125e+18
14224.0	1.506824364752896e+18
14225.0	1.5062406417874941e+18
14226.0	1.5062407776829435e+18
14227.0	1.505948270277427e+18
14228.0	1.504789545143501e+18
14229.0	1.5052853756297206e+18
14230.0	1.5050747242610685e+18
14231.0	1.5047729726095357e+18
14232.0	1.5044920112840704e+18
14233.0	1.5041944086380541e+18
14234.0	1.5039094979559427e+18
14235.0	1.5036160392822781e+18
14236.0	1.5033272195088384e+18
14237.0	1.5030351298559997e+18
14238.0	1.502745016559206e+18
14239.0	1.5024482628403197e+18
14240.0	1.5006508861358088e+18
14241.0	1.5018705142415357e+18
14242.0	1.501581575349862e+18
14243.0	1.5011558199394304e+18
14244.0	1.5010010803208192e+18
14245.0	1.5006949800148987e+18
14246.0	1.5003943960575997e+18
14247.0	1.5001257978626048e+18
14248.0	1.4998232325160957e+18
14249.0	1.4995453179330557e+18
14250.0	1.4992569024905213e+18
14251.0	1.4989686229434368e+18
14252.0	1.498673778471731e+18
14253.0	1.4983832222564347e+18
14254.0	1.4980915973324797e+18
14255.0	1.4977728319062013e+18
14256.0	1.4972299262296064e+18
14257.0	1.4972165346557947e+18
14258.0	1.4968302845558781e+18
14259.0	1.4963126638215165e+18
14260.0	1.4960258573139965e+18
14261.0	1.4957333650079741e+18
14262.0	1.4954747442233341e+18
14263.0	1.4947882624876541e+18
14264.0	1.494833906581504e+18
14265.0	1.4946019531816957e+18
14266.0	1.4943159100375037e+18
14267.0	1.4940285935026173e+18
14268.0	1.4937382721683453e+18
14269.0	1.4934430300766203e+18
14270.0	1.493161724818227e+18
14271.0	1.492869868368691e+18
14272.0	1.4925840047407101e+18
14273.0	1.4922948678778877e+18
14274.0	1.4913937032085504e+18
14275.0	1.4916633214582781e+18
14276.0	1.4914126144864256e+18
14277.0	1.491123351794483e+18
14278.0	1.4908524333105147e+18
14279.0	1.4905639239155707e+18
14280.0	1.4902685576724475e+18
14281.0	1.4899874638069757e+18
14282.0	1.4896996003348477e+18
14283.0	1.489411491915366e+18
14284.0	1.4891234338275325e+18
14285.0	1.4888353925169147e+18
14286.0	1.488546133180416e+18
14287.0	1.4882596672503805e+18
14288.0	1.487971776934707e+18
14289.0	1.486717326039446e+18
14290.0	1.4873941826863104e+18
14291.0	1.4871079315046395e+18
14292.0	1.4868165381062653e+18
14293.0	1.4865266563350525e+18
14294.0	1.4861198826668032e+18
14295.0	1.4859416364908541e+18
14296.0	1.4848858647429123e+18
14297.0	1.4853792742768637e+18
14298.0	1.4849005414514685e+18
14299.0	1.4847913771401216e+18
14300.0	1.4845096876834813e+18
14301.0	1.4842269848829947e+18
14302.0	1.4839396180164605e+18
14303.0	1.483628133901926e+18
14304.0	1.4833539639934976e+18
14305.0	1.483081322489446e+18
14306.0	1.4827678385307645e+18
14307.0	1.4825014884827128e+18
14308.0	1.4822232266113021e+18
14309.0	1.4819349453864952e+18
14310.0	1.4815342551367672e+18
14311.0	1.4812218851852288e+18
14312.0	1.4810447127511037e+18
14313.0	1.4806536794669053e+18
14314.0	1.4805016393023485e+18
14315.0	1.4802179802005496e+18
14316.0	1.479887440524083e+18
14317.0	1.4796320594198525e+18
14318.0	1.479361147646771e+18
14319.0	1.479075664861593e+18
14320.0	1.4787893767700475e+18
14321.0	1.4785015770513403e+18
14322.0	1.4781767483391997e+18
14323.0	1.4779218906841083e+18
14324.0	1.477646808095129e+18
14325.0	1.4773541194956797e+18
14326.0	1.4770761931685885e+18
14327.0	1.4767853601292288e+18
14328.0	1.4764977701257213e+18
14329.0	1.4762201709543421e+18
14330.0	1.4759348475527165e+18
14331.0	1.4756494452981757e+18
14332.0	1.4753637628641272e+18
14333.0	1.475079301811404e+18
14334.0	1.4747945505128448e+18
14335.0	1.474492673032192e+18
14336.0	1.474190941513318e+18
14337.0	1.4739372918177787e+18
14338.0	1.4736528274096128e+18
14339.0	1.4733611974524925e+18
14340.0	1.473085863205273e+18
14341.0	1.4727946526785536e+18
14342.0	1.4725093544427515e+18
14343.0	1.4722219657658365e+18
14344.0	1.4719371926568952e+18
14345.0	1.4716585868525565e+18
14346.0	1.4713719179182077e+18
14347.0	1.4710691831218176e+18
14348.0	1.4708056986222592e+18
14349.0	1.4705218247720952e+18
14350.0	1.4702154224762872e+18
14351.0	1.4699255256055803e+18
14352.0	1.469660603298611e+18
14353.0	1.469384223830835e+18
14354.0	1.4690984206008315e+18
14355.0	1.4688109497155581e+18
14356.0	1.4685342246371325e+18
14357.0	1.4682564895703037e+18
14358.0	1.4679729126768637e+18
14359.0	1.467677517912473e+18
14360.0	1.4674033949802493e+18
14361.0	1.4671220779778045e+18
14362.0	1.4668392610922493e+18
14363.0	1.466555722786406e+18
14364.0	1.4661973027323901e+18
14365.0	1.4659824604151803e+18
14366.0	1.4656914512150525e+18
14367.0	1.4654235861843965e+18
14368.0	1.4651390680891392e+18
14369.0	1.4648576957218816e+18
14370.0	1.4645748872249341e+18
14371.0	1.4642921777135613e+18
14372.0	1.4640044652363773e+18
14373.0	1.4637258057449467e+18
14374.0	1.4634438444974075e+18
14375.0	1.4631573416574973e+18
14376.0	1.4628784523182077e+18
14377.0	1.4625959793655803e+18
14378.0	1.4623117682933757e+18
14379.0	1.4620318689656832e+18
14380.0	1.4617494413115387e+18
14381.0	1.461456855053107e+18
14382.0	1.4611839585353725e+18
14383.0	1.4608949995110397e+18
14384.0	1.4606056478998525e+18
14385.0	1.460339079747993e+18
14386.0	1.4600426783506424e+18
14387.0	1.4597749777367037e+18
14388.0	1.459489869083443e+18
14389.0	1.459211590434816e+18
14390.0	1.4589276394094592e+18
14391.0	1.4586482115215357e+18
14392.0	1.4583631515222013e+18
14393.0	1.4580852721713147e+18
14394.0	1.4577714140807165e+18
14395.0	1.4575120718757885e+18
14396.0	1.4572409436766203e+18
14397.0	1.456955116958515e+18
14398.0	1.456672471200563e+18
14399.0	1.4563923604799488e+18
14400.0	1.4560918687973376e+18
14401.0	1.4558249080586237e+18
14402.0	1.4555468894568445e+18
14403.0	1.4533549344423895e+18
14404.0	1.4478716704915428e+18
14405.0	1.4533743993683896e+18
14406.0	1.4544239937454075e+18
14407.0	1.4510939562835986e+18
14408.0	1.4538537277849597e+18
14409.0	1.4535644969697277e+18
14410.0	1.4532968231993341e+18
14411.0	1.4530212507156483e+18
14412.0	1.4527384556404736e+18
14413.0	1.4524617708273664e+18
14414.0	1.452179155268403e+18
14415.0	1.451899906896691e+18
14416.0	1.4516177678106621e+18
14417.0	1.4513288255635453e+18
14418.0	1.451038932048281e+18
14419.0	1.4507786905845757e+18
14420.0	1.450494261408563e+18
14421.0	1.450219564695552e+18
14422.0	1.449937048122163e+18
14423.0	1.4496537195315197e+18
14424.0	1.4373465947635612e+18
14425.0	1.449097116935782e+18
14426.0	1.4488212273627136e+18
14427.0	1.4485407928418301e+18
14428.0	1.4482407591772157e+18
14429.0	1.4479812642996221e+18
14430.0	1.4477036231852032e+18
14431.0	1.4472966951665664e+18
14432.0	1.4471365046304765e+18
14433.0	1.444564896317438e+18
14434.0	1.4465735468253181e+18
14435.0	1.4462824218623997e+18
14436.0	1.446027758823014e+18
14437.0	1.4457490003460093e+18
14438.0	1.4454046614093821e+18
14439.0	1.4451770868629501e+18
14440.0	1.4449113928040445e+18
14441.0	1.4446249302294523e+18
14442.0	1.4443364795547645e+18
14443.0	1.4440214034382848e+18
14444.0	1.4437924279943165e+18
14445.0	1.443518318483865e+18
14446.0	1.4402848959758351e+18
14447.0	1.4429551224422395e+18
14448.0	1.4426831235055613e+18
14449.0	1.4424047794257915e+18
14450.0	1.4421211404566523e+18
14451.0	1.4418452861157373e+18
14452.0	1.4415681432846336e+18
14453.0	1.4412546459041787e+18
14454.0	1.4410127603924987e+18
14455.0	1.440727198754406e+18
14456.0	1.440448591272345e+18
14457.0	1.4401655629938685e+18
14458.0	1.439899566945075e+18
14459.0	1.4396193454948347e+18
14460.0	1.4393435230306301e+18
14461.0	1.4390442057531387e+18
14462.0	1.4386628176904187e+18
14463.0	1.4385024174391293e+18
14464.0	1.4382281770663936e+18
14465.0	1.4379274622468093e+18
14466.0	1.4376721750949885e+18
14467.0	1.4373556074840064e+18
14468.0	1.437114980263526e+18
14469.0	1.4368172886982653e+18
14470.0	1.4365333158625275e+18
14471.0	1.4362752302710781e+18
14472.0	1.4360040769060864e+18
14473.0	1.435731234075443e+18
14474.0	1.4354562840264701e+18
14475.0	1.435175849505587e+18
14476.0	1.4347514815709181e+18
14477.0	1.4346254108590077e+18
14478.0	1.434346191008563e+18
14479.0	1.4340671557074941e+18
14480.0	1.4337792402259965e+18
14481.0	1.4335189870182397e+18
14482.0	1.4332394349789181e+18
14483.0	1.432955405100646e+18
14484.0	1.4326851593830397e+18
14485.0	1.4323718851395581e+18
14486.0	1.4318546804801536e+18
14487.0	1.4318594586312701e+18
14488.0	1.4315700701102077e+18
14489.0	1.4312949321564157e+18
14490.0	1.4310246663061504e+18
14491.0	1.430753563272806e+18
14492.0	1.4304779706564603e+18
14493.0	1.4301964221284347e+18
14494.0	1.4299073154646013e+18
14495.0	1.4296503673683965e+18
14496.0	1.4292477242507264e+18
14497.0	1.4290966017998845e+18
14498.0	1.428821185344307e+18
14499.0	1.4285466362707965e+18
14500.0	1.4282708909817853e+18
14501.0	1.427931758015283e+18
14502.0	1.4274483326025728e+18
14503.0	1.4274241818001408e+18
14504.0	1.4271630008123387e+18
14505.0	1.426840923563622e+18
14506.0	1.4264881607868413e+18
14507.0	1.4261112992169981e+18
14508.0	1.4260663715102715e+18
14509.0	1.4257905926668285e+18
14510.0	1.4255127837802493e+18
14511.0	1.425241036501811e+18
14512.0	1.4249513594126336e+18
14513.0	1.4246907052294141e+18
14514.0	1.4243785668034557e+18
14515.0	1.4241389730594813e+18
14516.0	1.4214069661728786e+18
14517.0	1.423590175224627e+18
14518.0	1.4233155674308608e+18
14519.0	1.4230396577251325e+18
14520.0	1.422764786529075e+18
14521.0	1.4224885731557373e+18
14522.0	1.4222151129235453e+18
14523.0	1.421800942180761e+18
14524.0	1.421525470360371e+18
14525.0	1.4213872881762301e+18
14526.0	1.4211156986036221e+18
14527.0	1.4208340376682493e+18
14528.0	1.4204206571323387e+18
14529.0	1.4202852515774464e+18
14530.0	1.4200016428072957e+18
14531.0	1.4197438273290237e+18
14532.0	1.4192633664503808e+18
14533.0	1.4191967139266557e+18
14534.0	1.4189232855711741e+18
14535.0	1.418639247304294e+18
14536.0	1.4182539535056893e+18
14537.0	1.4177078333145085e+18
14538.0	1.4174471522877437e+18
14539.0	1.417168325024153e+18
14540.0	1.416894556091187e+18
14541.0	1.4166013423648765e+18
14542.0	1.4163453237264381e+18
14543.0	1.4159790955560957e+18
14544.0	1.415797769083289e+18
14545.0	1.4155190156394493e+18
14546.0	1.39875808696073e+18
14547.0	1.4003651462823785e+18
14548.0	1.4146922461790203e+18
14549.0	1.4143172284252157e+18
14550.0	1.4141497901318141e+18
14551.0	1.4138840021204987e+18
14552.0	1.4136097734918144e+18
14553.0	1.4133266646827008e+18
14554.0	1.413063814361907e+18
14555.0	1.4127901326704637e+18
14556.0	1.4125134830895101e+18
14557.0	1.4122438749061117e+18
14558.0	1.411970384474931e+18
14559.0	1.4098852416061376e+18
14560.0	1.411416590385152e+18
14561.0	1.4111440327671803e+18
14562.0	1.4108548304732157e+18
14563.0	1.4106036268957693e+18
14564.0	1.4103195735293947e+18
14565.0	1.4100591424831485e+18
14566.0	1.409786200666931e+18
14567.0	1.4095115626741757e+18
14568.0	1.4092204796542976e+18
14569.0	1.408967442327142e+18
14570.0	1.4081832450523136e+18
14571.0	1.4084187434778621e+18
14572.0	1.4081074908889085e+18
14573.0	1.4078304151666685e+18
14574.0	1.4075746548973565e+18
14575.0	1.4073292814024701e+18
14576.0	1.407053255095091e+18
14577.0	1.406778586903347e+18
14578.0	1.4065102118453245e+18
14579.0	1.4062409031352317e+18
14580.0	1.405968485607014e+18
14581.0	1.4056912328851456e+18
14582.0	1.405421787440742e+18
14583.0	1.4051510862217213e+18
14584.0	1.4048660203503613e+18
14585.0	1.4046064348758013e+18
14586.0	1.4043308053495805e+18
14587.0	1.404058756081254e+18
14588.0	1.40378923597824e+18
14589.0	1.4035252540342267e+18
14590.0	1.4032613702369277e+18
14591.0	1.4029933760217085e+18
14592.0	1.402726578860851e+18
14593.0	1.402359551256166e+18
14594.0	1.402204069245747e+18
14595.0	1.401933545026355e+18
14596.0	1.4015990719315963e+18
14597.0	1.4013294427766781e+18
14598.0	1.401141324886835e+18
14599.0	1.400886139237171e+18
14600.0	1.4006205433249792e+18
14601.0	1.4003585016659965e+18
14602.0	1.4000841019097085e+18
14603.0	1.399830874161152e+18
14604.0	1.399524398045593e+18
14605.0	1.3992851591397373e+18
14606.0	1.3989594387185661e+18
14607.0	1.3987737174540285e+18
14608.0	1.3985092112220155e+18
14609.0	1.3982385175527421e+18
14610.0	1.3979514132496381e+18
14611.0	1.397717271262003e+18
14612.0	1.397456964367155e+18
14613.0	1.397194904253235e+18
14614.0	1.3969272170610685e+18
14615.0	1.3966649338101757e+18
14616.0	1.3964041462480893e+18
14617.0	1.396139541869363e+18
14618.0	1.395869164450611e+18
14619.0	1.3955839559729147e+18
14620.0	1.3951681595179008e+18
14621.0	1.3950863705899003e+18
14622.0	1.3948201253994493e+18
14623.0	1.394559291700019e+18
14624.0	1.3942414330822653e+18
14625.0	1.3940292700864512e+18
14626.0	1.3937637211504637e+18
14627.0	1.3934953662251005e+18
14628.0	1.3932415957336061e+18
14629.0	1.392977816793907e+18
14630.0	1.3927083252121595e+18
14631.0	1.3924457005449213e+18
14632.0	1.3911183115419653e+18
14633.0	1.3918309598625784e+18
14634.0	1.3916502642130941e+18
14635.0	1.3912356883005425e+18
14636.0	1.3904664755961853e+18
14637.0	1.390864754959974e+18
14638.0	1.3905961760587773e+18
14639.0	1.3903249119641595e+18
14640.0	1.3900702782849021e+18
14641.0	1.3858556251996122e+18
14642.0	1.3895414679863293e+18
14643.0	1.3892817440997373e+18
14644.0	1.3890077671292923e+18
14645.0	1.388731486647091e+18
14646.0	1.3884765291675645e+18
