# Flux units: erg / (cm m2 s)
# Wavelength units: Angstrom
wave	flux
14000.0	2.3762148106698747e+18
14001.0	2.375668121731071e+18
14002.0	2.3751661977599995e+18
14003.0	2.3746388697284603e+18
14004.0	2.3741112833277947e+18
14005.0	2.373583710348902e+18
14006.0	2.373052733272882e+18
14007.0	2.372523615112397e+18
14008.0	2.371947799248895e+18
14009.0	2.3714731734859776e+18
14010.0	2.3709394466242555e+18
14011.0	2.3701282715860987e+18
14012.0	2.3698936657084406e+18
14013.0	2.3693679046688763e+18
14014.0	2.368838258026086e+18
14015.0	2.3683141344428027e+18
14016.0	2.367789344804045e+18
14017.0	2.3672634696794107e+18
14018.0	2.3667374905360384e+18
14019.0	2.36621201974231e+18
14020.0	2.365686069120205e+18
14021.0	2.3651602627821563e+18
14022.0	2.364635145987686e+18
14023.0	2.3641057476476923e+18
14024.0	2.3635772603105275e+18
14025.0	2.363060714995712e+18
14026.0	2.362535074752102e+18
14027.0	2.3620115903807483e+18
14028.0	2.3614871899734016e+18
14029.0	2.360962504353382e+18
14030.0	2.360246441030451e+18
14031.0	2.3598988020154363e+18
14032.0	2.359389350107545e+18
14033.0	2.358842434676326e+18
14034.0	2.358342987022336e+18
14035.0	2.3578200328110075e+18
14036.0	2.3572968101642235e+18
14037.0	2.3567736797921275e+18
14038.0	2.356250665182822e+18
14039.0	2.355727768014029e+18
14040.0	2.3552004248829947e+18
14041.0	2.354680306021171e+18
14042.0	2.3541536608223227e+18
14043.0	2.3536182126182395e+18
14044.0	2.3531101850959867e+18
14045.0	2.352591403378278e+18
14046.0	2.352067965983129e+18
14047.0	2.3515454161027067e+18
14048.0	2.351027006839193e+18
14049.0	2.3505061816565755e+18
14050.0	2.3499847961149435e+18
14051.0	2.349458803549798e+18
14052.0	2.348942283400806e+18
14053.0	2.3484213390999547e+18
14054.0	2.3479005659267067e+18
14055.0	2.34737984644055e+18
14056.0	2.3468592292954107e+18
14057.0	2.346338811799142e+18
14058.0	2.345818478188953e+18
14059.0	2.3452982653747195e+18
14060.0	2.344778257242521e+18
14061.0	2.3442551805575163e+18
14062.0	2.343738527868518e+18
14063.0	2.343210146227814e+18
14064.0	2.342672649525657e+18
14065.0	2.34217588958167e+18
14066.0	2.3416607904628736e+18
14067.0	2.3411417470205947e+18
14068.0	2.340622779075788e+18
14069.0	2.3401032373501947e+18
14070.0	2.3395850948444155e+18
14071.0	2.3390653417259003e+18
14072.0	2.3385482444406784e+18
14073.0	2.3380299677171707e+18
14074.0	2.3375118419886075e+18
14075.0	2.3369835576557563e+18
14076.0	2.3364722636095483e+18
14077.0	2.335913860818534e+18
14078.0	2.3354371462922235e+18
14079.0	2.334919394695577e+18
14080.0	2.3344057602277366e+18
14081.0	2.333888562279219e+18
14082.0	2.3333678092386304e+18
14083.0	2.332853666421145e+18
14084.0	2.3323372737789947e+18
14085.0	2.331675561925017e+18
14086.0	2.3312998546276347e+18
14087.0	2.330788063975833e+18
14088.0	2.330265473830093e+18
14089.0	2.329755672956109e+18
14090.0	2.32923922998231e+18
14091.0	2.3287239882571776e+18
14092.0	2.328208315357593e+18
14093.0	2.3276927196332027e+18
14094.0	2.327177211150336e+18
14095.0	2.326661679179366e+18
14096.0	2.326136736867942e+18
14097.0	2.325622347425382e+18
14098.0	2.3251123250921467e+18
14099.0	2.324601759177113e+18
14100.0	2.3240815832727547e+18
14101.0	2.3235728947281915e+18
14102.0	2.323058376101069e+18
14103.0	2.3225377807663104e+18
14104.0	2.322030194484838e+18
14105.0	2.321515758066073e+18
14106.0	2.3210022980812795e+18
14107.0	2.320487349957427e+18
14108.0	2.3199679609044987e+18
14109.0	2.3194588546072576e+18
14110.0	2.3189434702757883e+18
14111.0	2.3184253848125435e+18
14112.0	2.317917056978125e+18
14113.0	2.317408960669286e+18
14114.0	2.316888313325158e+18
14115.0	2.3163824936845307e+18
14116.0	2.3158563400581115e+18
14117.0	2.315031610707149e+18
14118.0	2.314845120207257e+18
14119.0	2.314325202672025e+18
14120.0	2.313817222125977e+18
14121.0	2.3133013462220795e+18
14122.0	2.312795045075353e+18
14123.0	2.3122799442788347e+18
14124.0	2.3116880860413947e+18
14125.0	2.3109464475303926e+18
14126.0	2.3106664844492795e+18
14127.0	2.3101563564195835e+18
14128.0	2.30960863903744e+18
14129.0	2.308885507473408e+18
14130.0	2.308368638358323e+18
14131.0	2.3078702543798267e+18
14132.0	2.3073551468724224e+18
14133.0	2.3065577375399926e+18
14134.0	2.306336644032102e+18
14135.0	2.3058184461615101e+18
14136.0	2.305306747784396e+18
14137.0	2.30480547980247e+18
14138.0	2.3042930063179773e+18
14139.0	2.303786227020595e+18
14140.0	2.30326935790551e+18
14141.0	2.3027620534812667e+18
14142.0	2.302230566377881e+18
14143.0	2.3017413914132477e+18
14144.0	2.301238722533785e+18
14145.0	2.3007296548241405e+18
14146.0	2.3001736578859005e+18
14147.0	2.2994914207858683e+18
14148.0	2.2989822859673595e+18
14149.0	2.2984735756124155e+18
14150.0	2.2979644290498552e+18
14151.0	2.2974542087454717e+18
14152.0	2.2969467029946365e+18
14153.0	2.2964378819100672e+18
14154.0	2.2959142566100987e+18
14155.0	2.2954115810197501e+18
14156.0	2.2949107156910075e+18
14157.0	2.2944041310093304e+18
14158.0	2.2938937060229117e+18
14159.0	2.2933879736238075e+18
14160.0	2.292875745086668e+18
14161.0	2.292340410967654e+18
14162.0	2.2918067596034043e+18
14163.0	2.2913555783221245e+18
14164.0	2.290832983143219e+18
14165.0	2.2902671312683008e+18
14166.0	2.2897270391308283e+18
14167.0	2.2890966352396285e+18
14168.0	2.2885965030752256e+18
14169.0	2.288090560960921e+18
14170.0	2.2875816023031798e+18
14171.0	2.287074952190361e+18
14172.0	2.286569194625433e+18
14173.0	2.2860229234393083e+18
14174.0	2.2855519886639101e+18
14175.0	2.2850491805335547e+18
14176.0	2.2845427787235323e+18
14177.0	2.284036422211993e+18
14178.0	2.2835289164611581e+18
14179.0	2.283016325536153e+18
14180.0	2.2825182099931133e+18
14181.0	2.2820123869970427e+18
14182.0	2.2815062771105787e+18
14183.0	2.2810010329284603e+18
14184.0	2.2804927084494845e+18
14185.0	2.2799897241583613e+18
14186.0	2.2794106937802747e+18
14187.0	2.2789655120314365e+18
14188.0	2.2784742030049277e+18
14189.0	2.2778011396866045e+18
14190.0	2.2772406179332096e+18
14191.0	2.2767352646991867e+18
14192.0	2.276226185245491e+18
14193.0	2.275715235132211e+18
14194.0	2.2752200606351352e+18
14195.0	2.274716323047014e+18
14196.0	2.27421156540416e+18
14197.0	2.2737070510309373e+18
14198.0	2.2732002650226683e+18
14199.0	2.272696644875059e+18
14200.0	2.2721581046300667e+18
14201.0	2.2716879600615421e+18
14202.0	2.2711862005071867e+18
14203.0	2.2706737018568701e+18
14204.0	2.270177141561753e+18
14205.0	2.2696736002670587e+18
14206.0	2.2691037688365048e+18
14207.0	2.26866802762711e+18
14208.0	2.268165209430425e+18
14209.0	2.2675928110858237e+18
14210.0	2.2671080703393787e+18
14211.0	2.2666559763775483e+18
14212.0	2.2661532135456765e+18
14213.0	2.265650682239385e+18
14214.0	2.2649995232542715e+18
14215.0	2.2644180618575867e+18
14216.0	2.2639210418667515e+18
14217.0	2.2634182538690555e+18
14218.0	2.2629084815163387e+18
14219.0	2.2624129882521595e+18
14220.0	2.2619106196848637e+18
14221.0	2.2614080313360381e+18
14222.0	2.2608974436106237e+18
14223.0	2.2604036649779195e+18
14224.0	2.2599016923529213e+18
14225.0	2.2592976723116027e+18
14226.0	2.258897065947955e+18
14227.0	2.2583963180597245e+18
14228.0	2.2576790585212928e+18
14229.0	2.257348753725849e+18
14230.0	2.2568920258969595e+18
14231.0	2.2563860015742973e+18
14232.0	2.255889647638937e+18
14233.0	2.2553856919470077e+18
14234.0	2.25488780960727e+18
14235.0	2.2543857447075837e+18
14236.0	2.2538861410254843e+18
14237.0	2.2533850139721723e+18
14238.0	2.2528849220730875e+18
14239.0	2.252381441176371e+18
14240.0	2.2511606151774205e+18
14241.0	2.2513673557770237e+18
14242.0	2.2506634643243003e+18
14243.0	2.2500802262204413e+18
14244.0	2.2496634180993021e+18
14245.0	2.2491560767651832e+18
14246.0	2.2486509231800315e+18
14247.0	2.2481600906264573e+18
14248.0	2.2476561349345275e+18
14249.0	2.2471621012881398e+18
14250.0	2.246662240914636e+18
14251.0	2.2461639693434875e+18
14252.0	2.2456643774054392e+18
14253.0	2.2451644952215547e+18
14254.0	2.2446642858819576e+18
14255.0	2.2441502571495424e+18
14256.0	2.2435551609094144e+18
14257.0	2.2431595558338555e+18
14258.0	2.2426692198858747e+18
14259.0	2.2421616470261755e+18
14260.0	2.2416687877849083e+18
14261.0	2.2411609481674747e+18
14262.0	2.2406936020385787e+18
14263.0	2.24003113353216e+18
14264.0	2.239656172820889e+18
14265.0	2.2391964385148928e+18
14266.0	2.2387018327654395e+18
14267.0	2.238204005790515e+18
14268.0	2.2377062895452155e+18
14269.0	2.23720730829783e+18
14270.0	2.2367109392629755e+18
14271.0	2.2362122902044667e+18
14272.0	2.2357156191797243e+18
14273.0	2.2351292168929277e+18
14274.0	2.2340515710107645e+18
14275.0	2.233781959471923e+18
14276.0	2.233297758951833e+18
14277.0	2.2328036766515195e+18
14278.0	2.232316211285196e+18
14279.0	2.2318184983953405e+18
14280.0	2.231318320932454e+18
14281.0	2.2308251630567421e+18
14282.0	2.2303284349894653e+18
14283.0	2.229831648201932e+18
14284.0	2.2293349436227576e+18
14285.0	2.2288382793089021e+18
14286.0	2.2283415764074493e+18
14287.0	2.227845349978931e+18
14288.0	2.2273483215994877e+18
14289.0	2.2263881548169203e+18
14290.0	2.2263546020626427e+18
14291.0	2.2258601389195261e+18
14292.0	2.225364850337382e+18
14293.0	2.2248676944510968e+18
14294.0	2.224298946828697e+18
14295.0	2.2238687035129853e+18
14296.0	2.223005161750528e+18
14297.0	2.2228842449993728e+18
14298.0	2.2223025202003965e+18
14299.0	2.2218874585874427e+18
14300.0	2.221395725097369e+18
14301.0	2.2209019582087165e+18
14302.0	2.2204090083704827e+18
14303.0	2.2198944947765243e+18
14304.0	2.2194136346001403e+18
14305.0	2.2189237482815483e+18
14306.0	2.2184128183009275e+18
14307.0	2.217928181573222e+18
14308.0	2.217439575356211e+18
14309.0	2.2169422953185275e+18
14310.0	2.2162154006249472e+18
14311.0	2.2157255059177467e+18
14312.0	2.2152286201446395e+18
14313.0	2.2147257784598523e+18
14314.0	2.2142588970598395e+18
14315.0	2.2137661602922496e+18
14316.0	2.213244549935923e+18
14317.0	2.2127702764945403e+18
14318.0	2.2122848965361664e+18
14319.0	2.211791520556646e+18
14320.0	2.2112974684553216e+18
14321.0	2.21080399684567e+18
14322.0	2.210288533661286e+18
14323.0	2.209805750815948e+18
14324.0	2.2093233840455677e+18
14325.0	2.208823726676377e+18
14326.0	2.2083367713374205e+18
14327.0	2.2078395483422715e+18
14328.0	2.2073470783324157e+18
14329.0	2.206857379918643e+18
14330.0	2.2063643982036987e+18
14331.0	2.2058713393135608e+18
14332.0	2.2053786662993915e+18
14333.0	2.204885976508006e+18
14334.0	2.2043933336928256e+18
14335.0	2.2038944396869627e+18
14336.0	2.2033941816934395e+18
14337.0	2.202915656905523e+18
14338.0	2.20242256110551e+18
14339.0	2.201924344899174e+18
14340.0	2.201439114258022e+18
14341.0	2.2009465502957565e+18
14342.0	2.2004552580464637e+18
14343.0	2.1999604291600376e+18
14344.0	2.1994696435826683e+18
14345.0	2.198979940135731e+18
14346.0	2.1984868510466045e+18
14347.0	2.197990200154521e+18
14348.0	2.1975048571060221e+18
14349.0	2.1970140362964987e+18
14350.0	2.196503495547289e+18
14351.0	2.195812233982771e+18
14352.0	2.195328806892339e+18
14353.0	2.1948412375072765e+18
14354.0	2.1943488631275517e+18
14355.0	2.193855589489049e+18
14356.0	2.1933650052382715e+18
14357.0	2.192876422509363e+18
14358.0	2.1923851738808317e+18
14359.0	2.1918844327034875e+18
14360.0	2.191402174985011e+18
14361.0	2.1909118474256376e+18
14362.0	2.190421331961446e+18
14363.0	2.1899302729154555e+18
14364.0	2.189410043324006e+18
14365.0	2.1889419472535547e+18
14366.0	2.1884536547704827e+18
14367.0	2.1879679023579133e+18
14368.0	2.1874771369132024e+18
14369.0	2.1869870173913083e+18
14370.0	2.1864967116423163e+18
14371.0	2.1860064881016824e+18
14372.0	2.1855132782166016e+18
14373.0	2.185025952101171e+18
14374.0	2.1845360540385275e+18
14375.0	2.1840460502794232e+18
14376.0	2.1835561153069053e+18
14377.0	2.1830659420979195e+18
14378.0	2.1825750692790267e+18
14379.0	2.18208677176279e+18
14380.0	2.181596432459366e+18
14381.0	2.1811007059918845e+18
14382.0	2.1806171379728384e+18
14383.0	2.1801237133393917e+18
14384.0	2.1796274684559357e+18
14385.0	2.1791501801488381e+18
14386.0	2.1786519136108544e+18
14387.0	2.1781716473479158e+18
14388.0	2.1776815026601976e+18
14389.0	2.177193289030041e+18
14390.0	2.1767034496876544e+18
14391.0	2.1762154491281403e+18
14392.0	2.1757255309328381e+18
14393.0	2.1752378910834685e+18
14394.0	2.1747273134243832e+18
14395.0	2.17425307018199e+18
14396.0	2.1737716077035512e+18
14397.0	2.1732831440928765e+18
14398.0	2.1727937594130427e+18
14399.0	2.172305869583155e+18
14400.0	2.1716288803962877e+18
14401.0	2.171122928215654e+18
14402.0	2.1706347246518267e+18
14403.0	2.1689194472538094e+18
14404.0	2.1661409993555955e+18
14405.0	2.1684037609324524e+18
14406.0	2.168679019682201e+18
14407.0	2.1665188692361219e+18
14408.0	2.1676858152058877e+18
14409.0	2.167208411136e+18
14410.0	2.166727757319372e+18
14411.0	2.1662418975326203e+18
14412.0	2.1657526655254528e+18
14413.0	2.1652664081186816e+18
14414.0	2.1647769378750461e+18
14415.0	2.164289605048729e+18
14416.0	2.1638012790112253e+18
14417.0	2.1633086059970555e+18
14418.0	2.1628162601385981e+18
14419.0	2.16233763972055e+18
14420.0	2.1618478540652536e+18
14421.0	2.161362047965593e+18
14422.0	2.1608724384710653e+18
14423.0	2.1603669493415933e+18
14424.0	2.153031836421321e+18
14425.0	2.159389064141209e+18
14426.0	2.158922947782246e+18
14427.0	2.1584379318894587e+18
14428.0	2.1579381990227965e+18
14429.0	2.15746135195648e+18
14430.0	2.156977055806259e+18
14431.0	2.156441490161664e+18
14432.0	2.1559942095831037e+18
14433.0	2.1541541029871606e+18
14434.0	2.154874181097881e+18
14435.0	2.154387395208806e+18
14436.0	2.1539110078382075e+18
14437.0	2.1534240407551992e+18
14438.0	2.1529002728488955e+18
14439.0	2.152437550520729e+18
14440.0	2.1519631395061757e+18
14441.0	2.1514739913850877e+18
14442.0	2.150985348258201e+18
14443.0	2.1504781713407995e+18
14444.0	2.150013793101414e+18
14445.0	2.1495278343290875e+18
14446.0	2.1474723586113536e+18
14447.0	2.1485410102280187e+18
14448.0	2.148069689576652e+18
14449.0	2.147583700605337e+18
14450.0	2.1470938713292795e+18
14451.0	2.146609711074508e+18
14452.0	2.1461208330665981e+18
14453.0	2.1456144279011325e+18
14454.0	2.1451507559825405e+18
14455.0	2.1446576098508792e+18
14456.0	2.1437350391316477e+18
14457.0	2.1432461477019643e+18
14458.0	2.1427652388716544e+18
14459.0	2.1422768390143992e+18
14460.0	2.1417910211706877e+18
14461.0	2.1412926086709243e+18
14462.0	2.1408044084625403e+18
14463.0	2.1403283767689216e+18
14464.0	2.1398469428117501e+18
14465.0	2.139351649196441e+18
14466.0	2.1388761795395581e+18
14467.0	2.1383642831912955e+18
14468.0	2.1379006414716925e+18
14469.0	2.1374052354490368e+18
14470.0	2.1369166476869627e+18
14471.0	2.1364399465824253e+18
14472.0	2.135955532991692e+18
14473.0	2.1354747164360696e+18
14474.0	2.1349886687444987e+18
14475.0	2.1344999215988733e+18
14476.0	2.133936181975449e+18
14477.0	2.1335298545811453e+18
14478.0	2.1330437884346365e+18
14479.0	2.1325577491316733e+18
14480.0	2.1320618532143101e+18
14481.0	2.1315859658047483e+18
14482.0	2.1310977437859837e+18
14483.0	2.1306080386613245e+18
14484.0	2.1301210413793277e+18
14485.0	2.1296197515870203e+18
14486.0	2.1289904415703037e+18
14487.0	2.128669020310732e+18
14488.0	2.1281777179951096e+18
14489.0	2.1276936684699645e+18
14490.0	2.1272099846881275e+18
14491.0	2.1267251416006648e+18
14492.0	2.1262401659731965e+18
14493.0	2.12575106147287e+18
14494.0	2.1252559893168125e+18
14495.0	2.1247814340182016e+18
14496.0	2.1242206622842875e+18
14497.0	2.1238092832702456e+18
14498.0	2.123324044240486e+18
14499.0	2.1228383757139965e+18
14500.0	2.1223520411320315e+18
14501.0	2.1218234631979003e+18
14502.0	2.121241110931046e+18
14503.0	2.1208835364487165e+18
14504.0	2.1204047767797755e+18
14505.0	2.1198799552643067e+18
14506.0	2.1193542193905661e+18
14507.0	2.118814759754137e+18
14508.0	2.118464899435724e+18
14509.0	2.1179794674679805e+18
14510.0	2.1174935724490747e+18
14511.0	2.1170073989283837e+18
14512.0	2.1165123183837184e+18
14513.0	2.116035102218649e+18
14514.0	2.1155287020863483e+18
14515.0	2.1150615908384765e+18
14516.0	2.1134278205112325e+18
14517.0	2.1140869855838205e+18
14518.0	2.1136040215445501e+18
14519.0	2.1131181164593152e+18
14520.0	2.1125430488596475e+18
14521.0	2.111963820510412e+18
14522.0	2.111476381987635e+18
14523.0	2.1108981585936381e+18
14524.0	2.1104085121892347e+18
14525.0	2.11001286852608e+18
14526.0	2.1095294833786877e+18
14527.0	2.1090283831689208e+18
14528.0	2.108491643119206e+18
14529.0	2.108062069214412e+18
14530.0	2.1075731509411837e+18
14531.0	2.1070932051230717e+18
14532.0	2.1064870459867133e+18
14533.0	2.1061186502000635e+18
14534.0	2.105633870866022e+18
14535.0	2.105140145920409e+18
14536.0	2.1046597387288568e+18
14537.0	2.10416578896855e+18
14538.0	2.103685781074739e+18
14539.0	2.1031987133284347e+18
14540.0	2.102711400634777e+18
14541.0	2.102209498474086e+18
14542.0	2.1017344549584893e+18
14543.0	2.1011855044509693e+18
14544.0	2.1007594621501437e+18
14545.0	2.1002655576883197e+18
14546.0	2.0926697117319127e+18
14547.0	2.0928312880660426e+18
14548.0	2.0987986384519165e+18
14549.0	2.09825556332544e+18
14550.0	2.0978315175133181e+18
14551.0	2.0973482447732736e+18
14552.0	2.0968595429261304e+18
14553.0	2.09636916503511e+18
14554.0	2.095884504819302e+18
14555.0	2.0953958432374781e+18
14556.0	2.0949056633176061e+18
14557.0	2.0944193656455168e+18
14558.0	2.0939295011373053e+18
14559.0	2.092597373409688e+18
14560.0	2.0929498945945592e+18
14561.0	2.0924614645383165e+18
14562.0	2.0919623792721917e+18
14563.0	2.0914867116441597e+18
14564.0	2.0909946811973627e+18
14565.0	2.0905097760342016e+18
14566.0	2.0900206144913405e+18
14567.0	2.0895306107322363e+18
14568.0	2.089034337327513e+18
14569.0	2.0885513615441915e+18
14570.0	2.0878254818721787e+18
14571.0	2.0875709899603965e+18
14572.0	2.087061808165683e+18
14573.0	2.086566702455193e+18
14574.0	2.086095078136217e+18
14575.0	2.0856120604098557e+18
14576.0	2.085123628675891e+18
14577.0	2.08463056643031e+18
14578.0	2.0841439030149117e+18
14579.0	2.0836548018700283e+18
14580.0	2.0831646722818043e+18
14581.0	2.0826711956389888e+18
14582.0	2.0821836598083584e+18
14583.0	2.0816933708365821e+18
14584.0	2.081196305547263e+18
14585.0	2.0807119976529917e+18
14586.0	2.0802194689228792e+18
14587.0	2.079729052444262e+18
14588.0	2.0792396946079736e+18
14589.0	2.0787589686493184e+18
14590.0	2.0782788466704381e+18
14591.0	2.077797941195571e+18
14592.0	2.077313829594726e+18
14593.0	2.0767709356621821e+18
14594.0	2.0763547902410747e+18
14595.0	2.075870242432614e+18
14596.0	2.0753625538101245e+18
14597.0	2.074881765775769e+18
14598.0	2.0743799022026747e+18
14599.0	2.0737775296839677e+18
14600.0	2.0732945153130493e+18
14601.0	2.0728119136616443e+18
14602.0	2.0723274061185024e+18
14603.0	2.0718453916696573e+18
14604.0	2.0713391005892605e+18
14605.0	2.070874771003801e+18
14606.0	2.0703642101219328e+18
14607.0	2.069906992398336e+18
14608.0	2.0694266321829888e+18
14609.0	2.068936742508953e+18
14610.0	2.0684556742950907e+18
14611.0	2.0679725189955581e+18
14612.0	2.0674909290102776e+18
14613.0	2.0670068375420925e+18
14614.0	2.0665203586760701e+18
14615.0	2.0660370121162747e+18
14616.0	2.0655520935313408e+18
14617.0	2.065066510568652e+18
14618.0	2.0645774027128827e+18
14619.0	2.0640733866229752e+18
14620.0	2.06354039963648e+18
14621.0	2.0631231066537976e+18
14622.0	2.0626368609910784e+18
14623.0	2.06215006168023e+18
14624.0	2.0616301860880381e+18
14625.0	2.061175996651929e+18
14626.0	2.060686554929561e+18
14627.0	2.0601959421575165e+18
14628.0	2.0597140636041216e+18
14629.0	2.0592261251203064e+18
14630.0	2.058737304154931e+18
14631.0	2.0582483338723328e+18
14632.0	2.057199140470784e+18
14633.0	2.0569207175380987e+18
14634.0	2.0565061575639035e+18
14635.0	2.0560071326957565e+18
14636.0	2.05549911188439e+18
14637.0	2.055040605670604e+18
14638.0	2.0545491540377597e+18
14639.0	2.0540542177771515e+18
14640.0	2.0535632375840765e+18
14641.0	2.0509812492074993e+18
14642.0	2.0525808795779072e+18
14643.0	2.0520967897874427e+18
14644.0	2.0515992513806328e+18
14645.0	2.0511019679875067e+18
14646.0	2.0506177322352637e+18
14647.0	2.0501228379176955e+18
14648.0	2.0496362516774907e+18
14649.0	2.0491450366033915e+18
