# Flux units: erg / (cm m2 s)
# Wavelength units: Angstrom
wave	flux
14000.0	1.3294776380030973e+18
14001.0	1.329223326446387e+18
14002.0	1.329071596660326e+18
14003.0	1.3288703011061757e+18
14004.0	1.3286673605459965e+18
14005.0	1.3284644669620221e+18
14006.0	1.3282600139358203e+18
14007.0	1.328058069103411e+18
14008.0	1.3278403310387197e+18
14009.0	1.3276530159386621e+18
14010.0	1.3274506097328125e+18
14011.0	1.327118066856755e+18
14012.0	1.3270453619523584e+18
14013.0	1.326842899542835e+18
14014.0	1.3266403884793853e+18
14015.0	1.3264375678763003e+18
14016.0	1.3262355248971773e+18
14017.0	1.3260331707006973e+18
14018.0	1.3258308374757373e+18
14019.0	1.325628560454451e+18
14020.0	1.3254262003859453e+18
14021.0	1.325223894004531e+18
14022.0	1.3250217553952765e+18
14023.0	1.3248195312222205e+18
14024.0	1.324616240857088e+18
14025.0	1.3244157095051261e+18
14026.0	1.3242134593273853e+18
14027.0	1.3240118181625853e+18
14028.0	1.3238099211452416e+18
14029.0	1.3236080367108093e+18
14030.0	1.3233512605810685e+18
14031.0	1.3232029499916285e+18
14032.0	1.3230026417766397e+18
14033.0	1.322794863506227e+18
14034.0	1.3225993737076733e+18
14035.0	1.322397830689587e+18
14036.0	1.3221962784440317e+18
14037.0	1.3219947639472125e+18
14038.0	1.3217932930711552e+18
14039.0	1.3215918666547197e+18
14040.0	1.3213904771481595e+18
14041.0	1.3211891505561597e+18
14042.0	1.320985665575321e+18
14043.0	1.3207786557014013e+18
14044.0	1.3205825216577533e+18
14045.0	1.3203841386283005e+18
14046.0	1.320183003296563e+18
14047.0	1.319981722003046e+18
14048.0	1.3197807854813181e+18
14049.0	1.3195798632202237e+18
14050.0	1.3193788973383677e+18
14051.0	1.3191765272035328e+18
14052.0	1.3189770788208637e+18
14053.0	1.3187762698059773e+18
14054.0	1.3185754809237501e+18
14055.0	1.3183747365011453e+18
14056.0	1.3181740214386688e+18
14057.0	1.3179733609021437e+18
14058.0	1.3177727364366333e+18
14059.0	1.3175721597861885e+18
14060.0	1.317371620045619e+18
14061.0	1.317169718833971e+18
14062.0	1.3169706647158781e+18
14063.0	1.3167677845536765e+18
14064.0	1.3165556559511547e+18
14065.0	1.3163678551506941e+18
14066.0	1.3161692758278141e+18
14067.0	1.3159690347216893e+18
14068.0	1.3157688322031613e+18
14069.0	1.3155684669456381e+18
14070.0	1.315368532862566e+18
14071.0	1.315167880714649e+18
14072.0	1.314968439042867e+18
14073.0	1.3147684462395392e+18
14074.0	1.3145685020901373e+18
14075.0	1.3143685571018747e+18
14076.0	1.314168731231846e+18
14077.0	1.3139568383492093e+18
14078.0	1.3137683287113725e+18
14079.0	1.313568413083238e+18
14080.0	1.3133696945094656e+18
14081.0	1.3131700355727357e+18
14082.0	1.3129701937643517e+18
14083.0	1.3127705927090173e+18
14084.0	1.3125712860938237e+18
14085.0	1.3123293133406208e+18
14086.0	1.3121714313494525e+18
14087.0	1.3119729669505021e+18
14088.0	1.3117734732693501e+18
14089.0	1.311574289127833e+18
14090.0	1.3113748323565565e+18
14091.0	1.3111757740441597e+18
14092.0	1.3109765714477053e+18
14093.0	1.3107774175051773e+18
14094.0	1.3105783013113853e+18
14095.0	1.3103792253829117e+18
14096.0	1.310178086695731e+18
14097.0	1.3099811129524221e+18
14098.0	1.3097812870823933e+18
14099.0	1.3095833444548608e+18
14100.0	1.3091966505975808e+18
14101.0	1.3089003330863101e+18
14102.0	1.3087012831625213e+18
14103.0	1.308498859340595e+18
14104.0	1.308303413162803e+18
14105.0	1.3081044966178813e+18
14106.0	1.3079056530538493e+18
14107.0	1.307706790196019e+18
14108.0	1.3075080934326267e+18
14109.0	1.3073085569695741e+18
14110.0	1.3071103551340541e+18
14111.0	1.3069110854287357e+18
14112.0	1.3067130731757565e+18
14113.0	1.3065148285583357e+18
14114.0	1.3063163440267261e+18
14115.0	1.3061175533109245e+18
14116.0	1.305918291155353e+18
14117.0	1.3056222102028285e+18
14118.0	1.305522593805107e+18
14119.0	1.3053231177400317e+18
14120.0	1.305125019923251e+18
14121.0	1.3049276267495421e+18
14122.0	1.3047272128380925e+18
14123.0	1.304530783515443e+18
14124.0	1.3043323627372541e+18
14125.0	1.3040557936869373e+18
14126.0	1.3039372240683005e+18
14127.0	1.303739281440768e+18
14128.0	1.3035410879938557e+18
14129.0	1.303341591796121e+18
14130.0	1.3031433899606016e+18
14131.0	1.3029477374230528e+18
14132.0	1.302749882037043e+18
14133.0	1.3024590456422395e+18
14134.0	1.3023544162123773e+18
14135.0	1.3021547404984317e+18
14136.0	1.3019581794746365e+18
14137.0	1.3017614825553917e+18
14138.0	1.3015631557296125e+18
14139.0	1.3013665099808765e+18
14140.0	1.3011686847938557e+18
14141.0	1.3009713310466045e+18
14142.0	1.3007679777669117e+18
14143.0	1.3005766738837504e+18
14144.0	1.300379712723353e+18
14145.0	1.3001824336347133e+18
14146.0	1.2999849439920125e+18
14147.0	1.2997878830071805e+18
14148.0	1.2995907960176637e+18
14149.0	1.299393826468659e+18
14150.0	1.2991967621283837e+18
14151.0	1.298999301845811e+18
14152.0	1.2988027810873341e+18
14153.0	1.2986058165714941e+18
14154.0	1.298405257537126e+18
14155.0	1.2982015510970363e+18
14156.0	1.2980133979750397e+18
14157.0	1.2978184987344893e+18
14158.0	1.2976210988498941e+18
14159.0	1.2974250696638461e+18
14160.0	1.2972269332594685e+18
14161.0	1.2970221589495808e+18
14162.0	1.2968174441988093e+18
14163.0	1.2966383474180093e+18
14164.0	1.2964395952898045e+18
14165.0	1.2962400261111805e+18
14166.0	1.2960491567579133e+18
14167.0	1.2958529161789437e+18
14168.0	1.2956563132121085e+18
14169.0	1.2954602882203645e+18
14170.0	1.2952634151403517e+18
14171.0	1.2950672005660672e+18
14172.0	1.2948716344311805e+18
14173.0	1.2946708421935101e+18
14174.0	1.2944785702649853e+18
14175.0	1.294283353096192e+18
14176.0	1.2940873390096381e+18
14177.0	1.2938913702215677e+18
14178.0	1.2936953603293181e+18
14179.0	1.2934985367420925e+18
14180.0	1.293303683638886e+18
14181.0	1.2931083347689467e+18
14182.0	1.2929125899567101e+18
14183.0	1.2927170129166333e+18
14184.0	1.2925204493762557e+18
14185.0	1.2923256365383677e+18
14186.0	1.2921112161681405e+18
14187.0	1.291930402239283e+18
14188.0	1.2917387007361021e+18
14189.0	1.291543238619955e+18
14190.0	1.291347788247859e+18
14191.0	1.2911523445866493e+18
14192.0	1.2909557642690557e+18
14193.0	1.2907592133115901e+18
14194.0	1.2905662317068285e+18
14195.0	1.2903712477413373e+18
14196.0	1.290175975207731e+18
14197.0	1.2899807924322301e+18
14198.0	1.2897847003316221e+18
14199.0	1.289590173545267e+18
14200.0	1.2893847315021821e+18
14201.0	1.2891997593403392e+18
14202.0	1.2890054825345021e+18
14203.0	1.2888094776754173e+18
14204.0	1.28861513711616e+18
14205.0	1.2884202697523197e+18
14206.0	1.2882053200609277e+18
14207.0	1.2880310341468157e+18
14208.0	1.2878363194556413e+18
14209.0	1.2876198916915197e+18
14210.0	1.2874305071218685e+18
14211.0	1.2872521602826237e+18
14212.0	1.2870575554822141e+18
14213.0	1.286863130198016e+18
14214.0	1.286668442350387e+18
14215.0	1.2864715424268285e+18
14216.0	1.2862797561987072e+18
14217.0	1.2860853552414717e+18
14218.0	1.285890971900313e+18
14219.0	1.285696647279411e+18
14220.0	1.2855023847342077e+18
14221.0	1.2853102453456893e+18
14222.0	1.2851165188325373e+18
14223.0	1.2849223628226557e+18
14224.0	1.2847282571444221e+18
14225.0	1.2844965629526013e+18
14226.0	1.2843399006650365e+18
14227.0	1.2841460952989693e+18
14228.0	1.2838350541029376e+18
14229.0	1.283730867591577e+18
14230.0	1.2835643017134077e+18
14231.0	1.2833704569208827e+18
14232.0	1.2831766389719037e+18
14233.0	1.282982857093939e+18
14234.0	1.2827891146424317e+18
14235.0	1.2825949376610301e+18
14236.0	1.282401740469043e+18
14237.0	1.2822078596055037e+18
14238.0	1.2820144283713533e+18
14239.0	1.281819944366899e+18
14240.0	1.281274600960819e+18
14241.0	1.2814337504706557e+18
14242.0	1.2812404643594237e+18
14243.0	1.2810205360291837e+18
14244.0	1.2808537923125245e+18
14245.0	1.2806590650384381e+18
14246.0	1.2804649509715968e+18
14247.0	1.2802739717275645e+18
14248.0	1.2800759083040765e+18
14249.0	1.2798745053757437e+18
14250.0	1.2796812956008445e+18
14251.0	1.279488561460019e+18
14252.0	1.279295443959808e+18
14253.0	1.279102228312883e+18
14254.0	1.2789088994197501e+18
14255.0	1.278709393994547e+18
14256.0	1.2784900218290173e+18
14257.0	1.2783286149447677e+18
14258.0	1.2781375937576955e+18
14259.0	1.2779447547592701e+18
14260.0	1.2777491768803325e+18
14261.0	1.2775597008748541e+18
14262.0	1.2773866313089021e+18
14263.0	1.2771448003231741e+18
14264.0	1.2769898870603773e+18
14265.0	1.2768086688006144e+18
14266.0	1.2766160772661245e+18
14267.0	1.2764111226011645e+18
14268.0	1.2762184379531261e+18
14269.0	1.2760254118887421e+18
14270.0	1.2758334201397245e+18
14271.0	1.2756409049415677e+18
14272.0	1.2754485499658237e+18
14273.0	1.2752559198437373e+18
14274.0	1.2749884104900608e+18
14275.0	1.274864681038643e+18
14276.0	1.2746787928408061e+18
14277.0	1.2744851460194301e+18
14278.0	1.2742947766271997e+18
14279.0	1.2741024057131005e+18
14280.0	1.2739093335113728e+18
14281.0	1.2737184540917757e+18
14282.0	1.2735264648593405e+18
14283.0	1.2733344563331067e+18
14284.0	1.2731424855556093e+18
14285.0	1.2729505332330493e+18
14286.0	1.2727439553724416e+18
14287.0	1.2723591766343675e+18
14288.0	1.2721672226340864e+18
14289.0	1.271750514337382e+18
14290.0	1.2717835386093565e+18
14291.0	1.2715918018740221e+18
14292.0	1.27140026646528e+18
14293.0	1.2712081547591677e+18
14294.0	1.2709930297458688e+18
14295.0	1.2708252659744765e+18
14296.0	1.2704535030005757e+18
14297.0	1.2704415425232893e+18
14298.0	1.2702170054918144e+18
14299.0	1.2700587317526525e+18
14300.0	1.2698679571906557e+18
14301.0	1.2696765518053373e+18
14302.0	1.2694846246486013e+18
14303.0	1.2692883849084925e+18
14304.0	1.269099790545715e+18
14305.0	1.26891103092736e+18
14306.0	1.2687186935676928e+18
14307.0	1.2685280683229181e+18
14308.0	1.2683378054660093e+18
14309.0	1.2681447299088381e+18
14310.0	1.2679376562814973e+18
14311.0	1.267738709537587e+18
14312.0	1.267314139437465e+18
14313.0	1.2669335264821248e+18
14314.0	1.2667889337237501e+18
14315.0	1.2665979989393405e+18
14316.0	1.2663978509467645e+18
14317.0	1.2662145682505725e+18
14318.0	1.2660245687959552e+18
14319.0	1.2658335551586301e+18
14320.0	1.2656424165310461e+18
14321.0	1.2654514901352443e+18
14322.0	1.2652540952838144e+18
14323.0	1.2650662122749952e+18
14324.0	1.2648786866208765e+18
14325.0	1.2646878046846973e+18
14326.0	1.2644969504309245e+18
14327.0	1.2643061465087995e+18
14328.0	1.2641140993949693e+18
14329.0	1.2639246267449341e+18
14330.0	1.2637339142586365e+18
14331.0	1.263543180800819e+18
14332.0	1.2633525882716157e+18
14333.0	1.2631619848372221e+18
14334.0	1.262971413279539e+18
14335.0	1.2627668184858621e+18
14336.0	1.262573927478067e+18
14337.0	1.2623868682305533e+18
14338.0	1.2621961079291901e+18
14339.0	1.2620056177410045e+18
14340.0	1.2618155570495485e+18
14341.0	1.2616249695535101e+18
14342.0	1.2614348182650877e+18
14343.0	1.2612443238825981e+18
14344.0	1.2610540945801213e+18
14345.0	1.260863968457523e+18
14346.0	1.260673278620467e+18
14347.0	1.2604806124273661e+18
14348.0	1.2602933560475645e+18
14349.0	1.2601032693514237e+18
14350.0	1.259910456357683e+18
14351.0	1.2597202505433088e+18
14352.0	1.2595320437342205e+18
14353.0	1.2593424192503803e+18
14354.0	1.259152554013491e+18
14355.0	1.258962250052403e+18
14356.0	1.2587725894975488e+18
14357.0	1.2585834632970237e+18
14358.0	1.2583936358088701e+18
14359.0	1.2582037361786877e+18
14360.0	1.2580137769893885e+18
14361.0	1.2578242355527677e+18
14362.0	1.2576342587473917e+18
14363.0	1.2574322325454845e+18
14364.0	1.2572347227701245e+18
14365.0	1.2570511649275901e+18
14366.0	1.2568615043727357e+18
14367.0	1.256673728738099e+18
14368.0	1.2564840832827392e+18
14369.0	1.2562946450259965e+18
14370.0	1.2561051547598845e+18
14371.0	1.2559156980482045e+18
14372.0	1.2557262077820928e+18
14373.0	1.2555367837859837e+18
14374.0	1.2553470854823933e+18
14375.0	1.2551569711038461e+18
14376.0	1.2549688305647616e+18
14377.0	1.2547794384453627e+18
14378.0	1.2545898215112701e+18
14379.0	1.2544011088691197e+18
14380.0	1.2542118711001088e+18
14381.0	1.2540222969479165e+18
14382.0	1.253833367040819e+18
14383.0	1.2536441091391488e+18
14384.0	1.2534554862551037e+18
14385.0	1.2532665219547136e+18
14386.0	1.2530775282941947e+18
14387.0	1.2528885044346877e+18
14388.0	1.2526992851206144e+18
14389.0	1.252510638748467e+18
14390.0	1.2523214429224955e+18
14391.0	1.2521329894883325e+18
14392.0	1.2519439916335101e+18
14393.0	1.2517554677350397e+18
14394.0	1.2515607270391805e+18
14395.0	1.251364792644403e+18
14396.0	1.25117665378304e+18
14397.0	1.2509879864393728e+18
14398.0	1.2507992477925373e+18
14399.0	1.2506106249084925e+18
14400.0	1.2504180920942592e+18
14401.0	1.2502321829249021e+18
14402.0	1.2500446010671101e+18
14403.0	1.2497462149251067e+18
14404.0	1.2489471320653816e+18
14405.0	1.2490812097036278e+18
14406.0	1.2492906271080445e+18
14407.0	1.2489493256863744e+18
14408.0	1.2489127932985341e+18
14409.0	1.2487213820411901e+18
14410.0	1.248536615400243e+18
14411.0	1.2483488296992765e+18
14412.0	1.2481599685787648e+18
14413.0	1.2479725821755392e+18
14414.0	1.2477839282536445e+18
14415.0	1.2475959370317824e+18
14416.0	1.247408012079923e+18
14417.0	1.247219692863488e+18
14418.0	1.2470301984030717e+18
14419.0	1.2468432960225277e+18
14420.0	1.2466545162715133e+18
14421.0	1.2464674343747581e+18
14422.0	1.2462793928212475e+18
14423.0	1.2460902624264192e+18
14424.0	1.245276150536601e+18
14425.0	1.245714738000691e+18
14426.0	1.245527842331033e+18
14427.0	1.2453400423694333e+18
14428.0	1.245148897030963e+18
14429.0	1.2449633863204861e+18
14430.0	1.2447765963472893e+18
14431.0	1.244571479782195e+18
14432.0	1.2443881819865085e+18
14433.0	1.2440840504868861e+18
14434.0	1.244010458067763e+18
14435.0	1.2438217731080192e+18
14436.0	1.243637768991539e+18
14437.0	1.2434501258969085e+18
14438.0	1.243258687796019e+18
14439.0	1.243074075505459e+18
14440.0	1.2428871546699773e+18
14441.0	1.242696559624192e+18
14442.0	1.2425074946605053e+18
14443.0	1.242312024994611e+18
14444.0	1.2421361209180157e+18
14445.0	1.2419497327591421e+18
14446.0	1.24148468678656e+18
14447.0	1.2415729349427197e+18
14448.0	1.2413876456914944e+18
14449.0	1.2412003297525757e+18
14450.0	1.241012956771123e+18
14451.0	1.2408256592871421e+18
14452.0	1.2406383349596157e+18
14453.0	1.2404495073935357e+18
14454.0	1.2402638775648253e+18
14455.0	1.2400755524763645e+18
14456.0	1.2398892196823037e+18
14457.0	1.2397019037433853e+18
14458.0	1.2395150844100605e+18
14459.0	1.2393277416275965e+18
14460.0	1.2391407645884413e+18
14461.0	1.2389504740491261e+18
14462.0	1.23875453042688e+18
14463.0	1.2385791187615741e+18
14464.0	1.2383928664981501e+18
14465.0	1.2381998681161725e+18
14466.0	1.2380191489785853e+18
14467.0	1.237829501006643e+18
14468.0	1.2376451470852093e+18
14469.0	1.2374533214306301e+18
14470.0	1.2372656003219453e+18
14471.0	1.2370823646019581e+18
14472.0	1.2365488793321467e+18
14473.0	1.2361933424427005e+18
14474.0	1.236006119617331e+18
14475.0	1.2358186585554941e+18
14476.0	1.235624265986867e+18
14477.0	1.2354443404115965e+18
14478.0	1.2352572543205373e+18
14479.0	1.235069795775283e+18
14480.0	1.2348807282950141e+18
14481.0	1.234695877767987e+18
14482.0	1.2345080593514493e+18
14483.0	1.2343198340874237e+18
14484.0	1.2341325500252157e+18
14485.0	1.2339411949715453e+18
14486.0	1.233703257977651e+18
14487.0	1.233573637206835e+18
14488.0	1.2333867021107197e+18
14489.0	1.233198318302003e+18
14490.0	1.2330123042750461e+18
14491.0	1.2328256183205883e+18
14492.0	1.232639045612339e+18
14493.0	1.232452118065971e+18
14494.0	1.2322617277022205e+18
14495.0	1.232078450878054e+18
14496.0	1.231866299626291e+18
14497.0	1.2317046033350653e+18
14498.0	1.231518130451251e+18
14499.0	1.231331425202995e+18
14500.0	1.2311446461349885e+18
14501.0	1.2309552347217917e+18
14502.0	1.2307207664173053e+18
14503.0	1.2305821119545341e+18
14504.0	1.2303967950209024e+18
14505.0	1.230208559690547e+18
14506.0	1.2300190518083581e+18
14507.0	1.229790777652019e+18
14508.0	1.2296515468918781e+18
14509.0	1.2294650203209725e+18
14510.0	1.2292784820060157e+18
14511.0	1.2290919495630845e+18
14512.0	1.2289026388131837e+18
14513.0	1.228718841895321e+18
14514.0	1.2285262713323517e+18
14515.0	1.2281168846127101e+18
14516.0	1.2273220178673664e+18
14517.0	1.227731599202713e+18
14518.0	1.227545742881587e+18
14519.0	1.227359385760563e+18
14520.0	1.227172995923968e+18
14521.0	1.2269863393296381e+18
14522.0	1.2267935171084285e+18
14523.0	1.2265936165797885e+18
14524.0	1.2264076033916925e+18
14525.0	1.2262268196618237e+18
14526.0	1.2260414784012285e+18
14527.0	1.2258487719428093e+18
14528.0	1.2256400658923517e+18
14529.0	1.2254801429528573e+18
14530.0	1.2252931701080064e+18
14531.0	1.2251093069201408e+18
14532.0	1.2249134127906816e+18
14533.0	1.224736695857971e+18
14534.0	1.2245506591817725e+18
14535.0	1.2243641972031485e+18
14536.0	1.2241779566837757e+18
14537.0	1.2239895577755645e+18
14538.0	1.2238055125549053e+18
14539.0	1.223619266163507e+18
14540.0	1.2234329937674237e+18
14541.0	1.2232458732830717e+18
14542.0	1.2230605353779197e+18
14543.0	1.2228704352600061e+18
14544.0	1.2226880576946173e+18
14545.0	1.2225016846352381e+18
14546.0	1.2212553732063224e+18
14547.0	1.2211461921177592e+18
14548.0	1.221941322265395e+18
14549.0	1.221734853456691e+18
14550.0	1.221571015553843e+18
14551.0	1.2213850040434685e+18
14552.0	1.2211983457714173e+18
14553.0	1.2210101398011901e+18
14554.0	1.2208265500819453e+18
14555.0	1.220640328856371e+18
14556.0	1.2204539708964864e+18
14557.0	1.2202678981492736e+18
14558.0	1.220081496568627e+18
14559.0	1.2194580963262456e+18
14560.0	1.2197088108478461e+18
14561.0	1.2195215209136125e+18
14562.0	1.2193326782480381e+18
14563.0	1.2191505162698752e+18
14564.0	1.2189632867336192e+18
14565.0	1.2187782952779773e+18
14566.0	1.2185920925073405e+18
14567.0	1.2184058326941693e+18
14568.0	1.2182191408676861e+18
14569.0	1.2180333776601085e+18
14570.0	1.2177276665855997e+18
14571.0	1.2176603463286784e+18
14572.0	1.217467191079731e+18
14573.0	1.2172813053984765e+18
14574.0	1.2170995200688125e+18
14575.0	1.2169157810323453e+18
14576.0	1.2167293475749885e+18
14577.0	1.216543437566771e+18
14578.0	1.2163077118099453e+18
14579.0	1.2158440138866683e+18
14580.0	1.215657369875251e+18
14581.0	1.2154700707135485e+18
14582.0	1.215283904852787e+18
14583.0	1.2150972759408637e+18
14584.0	1.214908413981491e+18
14585.0	1.2147238251790333e+18
14586.0	1.2145364454866941e+18
14587.0	1.2143500741050365e+18
14588.0	1.2141638688178173e+18
14589.0	1.2139798965780477e+18
14590.0	1.2137963093753853e+18
14591.0	1.2136125560782845e+18
14592.0	1.2134288011034621e+18
14593.0	1.2132230142885885e+18
14594.0	1.213061700517888e+18
14595.0	1.212877016085299e+18
14596.0	1.2126848003604475e+18
14597.0	1.2124995807346685e+18
14598.0	1.2123254835642365e+18
14599.0	1.2121428971225085e+18
14600.0	1.2119588879728637e+18
14601.0	1.2117751782965245e+18
14602.0	1.2115905332903933e+18
14603.0	1.2114073504186365e+18
14604.0	1.2112151749591037e+18
14605.0	1.2110374841090045e+18
14606.0	1.2108390977241085e+18
14607.0	1.210667880362803e+18
14608.0	1.210486234284032e+18
14609.0	1.2103028542799872e+18
14610.0	1.2101156968857597e+18
14611.0	1.2099343402139645e+18
14612.0	1.2097509711151101e+18
14613.0	1.2095669124726781e+18
14614.0	1.2093819226947581e+18
14615.0	1.2091983698853885e+18
14616.0	1.2090142651056125e+18
14617.0	1.2088299262836733e+18
14618.0	1.2086456445042688e+18
14619.0	1.2084553002778621e+18
14620.0	1.2082574004322301e+18
14621.0	1.2080925164699645e+18
14622.0	1.2079080459468797e+18
14623.0	1.20772349657088e+18
14624.0	1.2075281065967613e+18
14625.0	1.2073542988333053e+18
14626.0	1.2071695028322301e+18
14627.0	1.2069843025002493e+18
14628.0	1.2068003604594688e+18
14629.0	1.20661567602688e+18
14630.0	1.2064307172868093e+18
14631.0	1.2062460739583997e+18
14632.0	1.2060094128717821e+18
14633.0	1.2058691134029824e+18
14634.0	1.2056910802976765e+18
14635.0	1.2054885633622013e+18
14636.0	1.205283273152921e+18
14637.0	1.2051365731762173e+18
14638.0	1.2048255814729725e+18
14639.0	1.2046197929803773e+18
14640.0	1.204436256109363e+18
14641.0	1.2040505680461821e+18
14642.0	1.2040653059915773e+18
14643.0	1.2038795889213437e+18
14644.0	1.2036821487714301e+18
14645.0	1.2034924949274624e+18
14646.0	1.203310022570803e+18
