# Flux units: erg / (cm m2 s)
# Wavelength units: Angstrom
wave	flux
14000.0	1.9828562932531192e+18
14001.0	1.9823855044395003e+18
14002.0	1.9819466242129915e+18
14003.0	1.9814893410582525e+18
14004.0	1.9810321334009853e+18
14005.0	1.9805748435353597e+18
14006.0	1.9801110004891645e+18
14007.0	1.9796523583799293e+18
14008.0	1.9791540230553597e+18
14009.0	1.978724742751846e+18
14010.0	1.9782641444192253e+18
14011.0	1.977642436159078e+18
14012.0	1.9773308748693501e+18
14013.0	1.9768746637787133e+18
14014.0	1.9764180500348928e+18
14015.0	1.9759660953239547e+18
14016.0	1.9755130517716987e+18
14017.0	1.9750568188706816e+18
14018.0	1.9746008258838525e+18
14019.0	1.974145628137062e+18
14020.0	1.973689989149491e+18
14021.0	1.9732345095454715e+18
14022.0	1.972770168215961e+18
14023.0	1.9722922289528832e+18
14024.0	1.9718471092797435e+18
14025.0	1.9714043820376061e+18
14026.0	1.9709498922893312e+18
14027.0	1.9704959343788027e+18
14028.0	1.970042078809292e+18
14029.0	1.96958709916631e+18
14030.0	1.968070816327271e+18
14031.0	1.9686652431564797e+18
14032.0	1.9682266078773243e+18
14033.0	1.9677493850013693e+18
14034.0	1.9673193010692093e+18
14035.0	1.9668673396473853e+18
14036.0	1.96640291946496e+18
14037.0	1.9659492836769787e+18
14038.0	1.9654980805853181e+18
14039.0	1.9650442719920125e+18
14040.0	1.9645812644511744e+18
14041.0	1.9641287728693245e+18
14042.0	1.963674251244339e+18
14043.0	1.9632136227127293e+18
14044.0	1.9627704005427197e+18
14045.0	1.9623245024067581e+18
14046.0	1.9618717893656573e+18
14047.0	1.961416611751526e+18
14048.0	1.960968774169395e+18
14049.0	1.9605169872306173e+18
14050.0	1.9600651885477888e+18
14051.0	1.9596111719170043e+18
14052.0	1.959165990168166e+18
14053.0	1.9587141310873597e+18
14054.0	1.9582537659580408e+18
14055.0	1.9578023380516861e+18
14056.0	1.9573515392909312e+18
14057.0	1.9569007019425784e+18
14058.0	1.956449971968409e+18
14059.0	1.955997901494681e+18
14060.0	1.9555398902087675e+18
14061.0	1.955087737526681e+18
14062.0	1.9546416934289403e+18
14063.0	1.9541906564317181e+18
14064.0	1.9535889013145597e+18
14065.0	1.953293219659776e+18
14066.0	1.9528440432558077e+18
14067.0	1.9523647920144387e+18
14068.0	1.9519420414033915e+18
14069.0	1.9514897863802877e+18
14070.0	1.951042846379212e+18
14071.0	1.9505934971699192e+18
14072.0	1.9501452519014397e+18
14073.0	1.9496854655860733e+18
14074.0	1.949231039591219e+18
14075.0	1.9487779725508603e+18
14076.0	1.9483048919695355e+18
14077.0	1.9476308807385088e+18
14078.0	1.9474201270288381e+18
14079.0	1.9469882630340603e+18
14080.0	1.9465428296269821e+18
14081.0	1.946094940035481e+18
14082.0	1.9456410257457147e+18
14083.0	1.945196253360947e+18
14084.0	1.9447491254550525e+18
14085.0	1.9440744246804475e+18
14086.0	1.9438327220404221e+18
14087.0	1.943404747004313e+18
14088.0	1.9429511984578555e+18
14089.0	1.9424863185797115e+18
14090.0	1.942059719275315e+18
14091.0	1.941616807483801e+18
14092.0	1.9411701275295741e+18
14093.0	1.9407235700490235e+18
14094.0	1.940277227316838e+18
14095.0	1.9398310137692155e+18
14096.0	1.9393165169524733e+18
14097.0	1.9388867299770363e+18
14098.0	1.938434719901286e+18
14099.0	1.9380150596534272e+18
14100.0	1.9375664654188536e+18
14101.0	1.9371254880403456e+18
14102.0	1.9366841818284027e+18
14103.0	1.9362556380446715e+18
14104.0	1.935815925668249e+18
14105.0	1.9353743191441403e+18
14106.0	1.9349305148047355e+18
14107.0	1.934476568638259e+18
14108.0	1.934025707801804e+18
14109.0	1.933583490587033e+18
14110.0	1.933134022259507e+18
14111.0	1.9326848223674365e+18
14112.0	1.9322490358595584e+18
14113.0	1.9317923264856061e+18
14114.0	1.931358856911257e+18
14115.0	1.930917191666892e+18
14116.0	1.930405650995609e+18
14117.0	1.9283205131599875e+18
14118.0	1.929588907599462e+18
14119.0	1.929115457919385e+18
14120.0	1.9286755458940925e+18
14121.0	1.928242782640537e+18
14122.0	1.9277675679973373e+18
14123.0	1.9273164202704893e+18
14124.0	1.9268644202610683e+18
14125.0	1.926347514236108e+18
14126.0	1.9260249689030653e+18
14127.0	1.9255979451351035e+18
14128.0	1.9251554007646203e+18
14129.0	1.9247118615052288e+18
14130.0	1.9242709378138112e+18
14131.0	1.923833476939776e+18
14132.0	1.9233917965959165e+18
14133.0	1.9227980727320568e+18
14134.0	1.9225049781239803e+18
14135.0	1.9220461229441016e+18
14136.0	1.921502957220659e+18
14137.0	1.9211729846140925e+18
14138.0	1.920710141489971e+18
14139.0	1.9202935061741565e+18
14140.0	1.9198432426065915e+18
14141.0	1.9194077211787256e+18
14142.0	1.9188134604439552e+18
14143.0	1.9185203775799293e+18
14144.0	1.9180909764804603e+18
14145.0	1.9176509688250363e+18
14146.0	1.9172080587112443e+18
14147.0	1.9167686315474944e+18
14148.0	1.9163172690722816e+18
14149.0	1.915869553963827e+18
14150.0	1.915442216461926e+18
14151.0	1.9149838897643515e+18
14152.0	1.914563347034931e+18
14153.0	1.9141240205344768e+18
14154.0	1.9136774781534205e+18
14155.0	1.9128755507167235e+18
14156.0	1.912776323550412e+18
14157.0	1.912372240947609e+18
14158.0	1.9119339831558144e+18
14159.0	1.9115000404639741e+18
14160.0	1.9110608330817533e+18
14161.0	1.9106037126660093e+18
14162.0	1.9101523283804155e+18
14163.0	1.909743974298419e+18
14164.0	1.9092423439286264e+18
14165.0	1.908762515551027e+18
14166.0	1.908415203691724e+18
14167.0	1.9079726039564288e+18
14168.0	1.907535304143667e+18
14169.0	1.9071142648086528e+18
14170.0	1.9066702205550584e+18
14171.0	1.9062378163339261e+18
14172.0	1.9058035397754877e+18
14173.0	1.9053211981709307e+18
14174.0	1.9049262088191997e+18
14175.0	1.9044930865332221e+18
14176.0	1.904052647703347e+18
14177.0	1.903619832440422e+18
14178.0	1.903183691933286e+18
14179.0	1.9027394631303165e+18
14180.0	1.9023070907858941e+18
14181.0	1.9018698496933888e+18
14182.0	1.9014338014609403e+18
14183.0	1.900998261578137e+18
14184.0	1.900561206712729e+18
14185.0	1.9001270375284733e+18
14186.0	1.8993663199674365e+18
14187.0	1.8992488626782205e+18
14188.0	1.8988219748057088e+18
14189.0	1.8983874348449787e+18
14190.0	1.8979541582086141e+18
14191.0	1.8975179388485624e+18
14192.0	1.8970845112172541e+18
14193.0	1.896594821192089e+18
14194.0	1.8962147467853821e+18
14195.0	1.8957861241487355e+18
14196.0	1.895351847590297e+18
14197.0	1.8949177807470587e+18
14198.0	1.8944824371576827e+18
14199.0	1.8940483317268477e+18
14200.0	1.8934205417259003e+18
14201.0	1.8931771663974397e+18
14202.0	1.892743961903104e+18
14203.0	1.8922965303295997e+18
14204.0	1.8918735314157565e+18
14205.0	1.8914401373388797e+18
14206.0	1.8909719221501947e+18
14207.0	1.8905748037697533e+18
14208.0	1.8901421109805053e+18
14209.0	1.8896709161582587e+18
14210.0	1.88925141361623e+18
14211.0	1.888843232339558e+18
14212.0	1.8884115495387133e+18
14213.0	1.8879737698975741e+18
14214.0	1.8875472595124221e+18
14215.0	1.8871123991068664e+18
14216.0	1.8866786074099707e+18
14217.0	1.8862432789200893e+18
14218.0	1.8858081031028733e+18
14219.0	1.8853800039153661e+18
14220.0	1.8849470410129403e+18
14221.0	1.8845105901273083e+18
14222.0	1.8840392946417661e+18
14223.0	1.8836487478968315e+18
14224.0	1.883178081556889e+18
14225.0	1.8822072947965957e+18
14226.0	1.8823215258271744e+18
14227.0	1.8818912556679165e+18
14228.0	1.8801712487727104e+18
14229.0	1.880826580251442e+18
14230.0	1.880587004962406e+18
14231.0	1.8800961187217405e+18
14232.0	1.879709001239756e+18
14233.0	1.8792770617475064e+18
14234.0	1.8788496772694013e+18
14235.0	1.8784222055497725e+18
14236.0	1.877993091340697e+18
14237.0	1.8775635476348925e+18
14238.0	1.8771344485253117e+18
14239.0	1.8766990378270715e+18
14240.0	1.8758703960293373e+18
14241.0	1.8758426867793917e+18
14242.0	1.875415265391411e+18
14243.0	1.8749375459098621e+18
14244.0	1.874552844346982e+18
14245.0	1.8741186416082944e+18
14246.0	1.8736867474145272e+18
14247.0	1.8732658322309117e+18
14248.0	1.872835343967846e+18
14249.0	1.8724107042422781e+18
14250.0	1.8719826570641408e+18
14251.0	1.8715555242442747e+18
14252.0	1.8711277488570363e+18
14253.0	1.8706999231381504e+18
14254.0	1.8702719011258363e+18
14255.0	1.869836498816204e+18
14256.0	1.86888195407872e+18
14257.0	1.8689727221727232e+18
14258.0	1.868555187598131e+18
14259.0	1.8681222297288696e+18
14260.0	1.867685564094873e+18
14261.0	1.8672686049787904e+18
14262.0	1.8668550398935037e+18
14263.0	1.8656452969234432e+18
14264.0	1.8658821425594368e+18
14265.0	1.8655714134196221e+18
14266.0	1.8651550381506555e+18
14267.0	1.8647293011951613e+18
14268.0	1.8643038075092987e+18
14269.0	1.8638766612676605e+18
14270.0	1.8634493690642427e+18
14271.0	1.8630221104152576e+18
14272.0	1.862597705570713e+18
14273.0	1.862172242083839e+18
14274.0	1.8605976835850248e+18
14275.0	1.8612182526722043e+18
14276.0	1.8608853658632187e+18
14277.0	1.8604641688223744e+18
14278.0	1.860046830541209e+18
14279.0	1.8596219827781627e+18
14280.0	1.8591954405163005e+18
14281.0	1.8587731512786936e+18
14282.0	1.858348894073651e+18
14283.0	1.857925683766886e+18
14284.0	1.8575036260548605e+18
14285.0	1.8570793940156413e+18
14286.0	1.8566531822649341e+18
14287.0	1.8562318325514237e+18
14288.0	1.8558081759707133e+18
14289.0	1.8551250077351928e+18
14290.0	1.854959104557056e+18
14291.0	1.8545344128221181e+18
14292.0	1.8541064663072763e+18
14293.0	1.853682735906816e+18
14294.0	1.853220057199411e+18
14295.0	1.8528328927412221e+18
14296.0	1.8522038847143936e+18
14297.0	1.851991921367449e+18
14298.0	1.851359631717171e+18
14299.0	1.851136291740057e+18
14300.0	1.8507228222849021e+18
14301.0	1.8503008652361725e+18
14302.0	1.8498794920345597e+18
14303.0	1.8494468428660733e+18
14304.0	1.8490318080966653e+18
14305.0	1.8486098393038843e+18
14306.0	1.8481516401131517e+18
14307.0	1.847748644673945e+18
14308.0	1.8473369687031805e+18
14309.0	1.8469099684233213e+18
14310.0	1.8463608132337661e+18
14311.0	1.8457816066949115e+18
14312.0	1.84559927862231e+18
14313.0	1.845204353024e+18
14314.0	1.844824107489689e+18
14315.0	1.8444249657769981e+18
14316.0	1.8439926202761213e+18
14317.0	1.8435507084066813e+18
14318.0	1.8431657585410045e+18
14319.0	1.8427446084763645e+18
14320.0	1.8423243677368323e+18
14321.0	1.8419048920383483e+18
14322.0	1.8414724945281021e+18
14323.0	1.8410600669380605e+18
14324.0	1.8406429937369088e+18
14325.0	1.8402226741444603e+18
14326.0	1.8398060790939645e+18
14327.0	1.8393847159586816e+18
14328.0	1.8389625357729787e+18
14329.0	1.8385440566411261e+18
14330.0	1.8381248846102525e+18
14331.0	1.8377003807801341e+18
14332.0	1.8372866596667384e+18
14333.0	1.8368679473315837e+18
14334.0	1.8364493037830141e+18
14335.0	1.8360247596875776e+18
14336.0	1.8355490400501755e+18
14337.0	1.8351941365006333e+18
14338.0	1.8347753755115517e+18
14339.0	1.834354581123891e+18
14340.0	1.8339427172483072e+18
14341.0	1.8335199196610555e+18
14342.0	1.8331077068193787e+18
14343.0	1.8326855501217787e+18
14344.0	1.83226902553559e+18
14345.0	1.8318549219016696e+18
14346.0	1.831435429425971e+18
14347.0	1.8309821711253504e+18
14348.0	1.8305944614076413e+18
14349.0	1.8301783143088125e+18
14350.0	1.82971586880471e+18
14351.0	1.8292941432815613e+18
14352.0	1.828925566300979e+18
14353.0	1.8285111187341312e+18
14354.0	1.8280893781114877e+18
14355.0	1.8276623694430205e+18
14356.0	1.8272510978031613e+18
14357.0	1.8268536774328312e+18
14358.0	1.8264375907319803e+18
14359.0	1.8260170983342075e+18
14360.0	1.825601734731366e+18
14361.0	1.8251820124078077e+18
14362.0	1.8247663367487485e+18
14363.0	1.8243506963218432e+18
14364.0	1.82377782485975e+18
14365.0	1.8234962075451387e+18
14366.0	1.823079280305766e+18
14367.0	1.8226899046105085e+18
14368.0	1.8222747540783107e+18
14369.0	1.8218603887198203e+18
14370.0	1.8214503116177405e+18
14371.0	1.8210362012729336e+18
14372.0	1.8206189334560765e+18
14373.0	1.8202063833923581e+18
14374.0	1.8197903000469504e+18
14375.0	1.8193755890778107e+18
14376.0	1.8189637017141243e+18
14377.0	1.8185498564493312e+18
14378.0	1.8181353082191872e+18
14379.0	1.8177222061850616e+18
14380.0	1.8173082602569725e+18
14381.0	1.816891277652787e+18
14382.0	1.8164807257554941e+18
14383.0	1.8160610722185216e+18
14384.0	1.8156482352644093e+18
14385.0	1.8152398845378552e+18
14386.0	1.8148129043906555e+18
14387.0	1.8144045754744832e+18
14388.0	1.813991082531225e+18
14389.0	1.8135788411682813e+18
14390.0	1.8131655881392125e+18
14391.0	1.8127523166552061e+18
14392.0	1.8123438702985216e+18
14393.0	1.8119340918308861e+18
14394.0	1.8115106801975293e+18
14395.0	1.8110801348919293e+18
14396.0	1.8106956463996923e+18
14397.0	1.8102851028910075e+18
14398.0	1.809871573037875e+18
14399.0	1.8094589558652925e+18
14400.0	1.8090274626469885e+18
14401.0	1.8086328625266688e+18
14402.0	1.808223109224857e+18
14403.0	1.8061980690546657e+18
14404.0	1.8031712176963574e+18
14405.0	1.8065823595757553e+18
14406.0	1.8065813680422907e+18
14407.0	1.8037883558428682e+18
14408.0	1.8057079646322685e+18
14409.0	1.8053268970143741e+18
14410.0	1.804909934542848e+18
14411.0	1.804502343824179e+18
14412.0	1.8040920200970237e+18
14413.0	1.8036826258276347e+18
14414.0	1.8032716226232315e+18
14415.0	1.8028618374447104e+18
14416.0	1.802442801309286e+18
14417.0	1.802009551516467e+18
14418.0	1.801600271332147e+18
14419.0	1.8012218360594427e+18
14420.0	1.8008111751102456e+18
14421.0	1.8004028126396413e+18
14422.0	1.7999925795094525e+18
14423.0	1.7995797509439485e+18
14424.0	1.789543140504365e+18
14425.0	1.798757518042726e+18
14426.0	1.7983485750804477e+18
14427.0	1.7979398753878013e+18
14428.0	1.797523188062617e+18
14429.0	1.7971209710862333e+18
14430.0	1.796713403855667e+18
14431.0	1.7960512121733117e+18
14432.0	1.7958887852343296e+18
14433.0	1.793711879382629e+18
14434.0	1.7950791704772605e+18
14435.0	1.7946377065594875e+18
14436.0	1.7942685876748285e+18
14437.0	1.7938607184543744e+18
14438.0	1.793380774313984e+18
14439.0	1.793029504709427e+18
14440.0	1.792634426438451e+18
14441.0	1.7922253006045181e+18
14442.0	1.7918163341541376e+18
14443.0	1.7913979321974781e+18
14444.0	1.7910034763612155e+18
14445.0	1.7905974257909755e+18
14446.0	1.78825553950802e+18
14447.0	1.7897786691289085e+18
14448.0	1.7893764991287293e+18
14449.0	1.7889696432521213e+18
14450.0	1.788561178440499e+18
14451.0	1.788155814058393e+18
14452.0	1.7877483357470717e+18
14453.0	1.7873095142408187e+18
14454.0	1.7869363470139387e+18
14455.0	1.7865292411568125e+18
14456.0	1.7861142567190525e+18
14457.0	1.7857054362304507e+18
14458.0	1.7853000148058107e+18
14459.0	1.784899262480384e+18
14460.0	1.7844934182699005e+18
14461.0	1.7840540481486843e+18
14462.0	1.7834230620880893e+18
14463.0	1.7832669316382717e+18
14464.0	1.7828735059230715e+18
14465.0	1.7824644941742077e+18
14466.0	1.7820750463369213e+18
14467.0	1.7816523963891712e+18
14468.0	1.7812709798051837e+18
14469.0	1.780844825097011e+18
14470.0	1.7804557581025275e+18
14471.0	1.7800547457302528e+18
14472.0	1.7796517586796541e+18
14473.0	1.779249394063769e+18
14474.0	1.7788454859440125e+18
14475.0	1.7784385193377787e+18
14476.0	1.7779209220915197e+18
14477.0	1.7776317231529981e+18
14478.0	1.7772286958370813e+18
14479.0	1.7768220161212413e+18
14480.0	1.7764163497492477e+18
14481.0	1.7760199058128893e+18
14482.0	1.7756151118561275e+18
14483.0	1.7752092357689336e+18
14484.0	1.7748068879302653e+18
14485.0	1.7743939066920952e+18
14486.0	1.773915648661913e+18
14487.0	1.7735958665363453e+18
14488.0	1.7731367227883517e+18
14489.0	1.7727594535321597e+18
14490.0	1.7723767249698816e+18
14491.0	1.771979630077542e+18
14492.0	1.771575547474739e+18
14493.0	1.771167403107942e+18
14494.0	1.7707633003724797e+18
14495.0	1.7703689737207803e+18
14496.0	1.7699270886948861e+18
14497.0	1.769563959276339e+18
14498.0	1.769161339646771e+18
14499.0	1.7687595622334461e+18
14500.0	1.7683572613709821e+18
14501.0	1.7679023136047104e+18
14502.0	1.7674182926008315e+18
14503.0	1.7671243591319547e+18
14504.0	1.7667775287787515e+18
14505.0	1.7663295049695227e+18
14506.0	1.7658659353919485e+18
14507.0	1.7655047068319744e+18
14508.0	1.7651743298945021e+18
14509.0	1.7647728158834685e+18
14510.0	1.7643704294572032e+18
14511.0	1.7639707928166397e+18
14512.0	1.763568792266342e+18
14513.0	1.7631726301872125e+18
14514.0	1.762756056947097e+18
14515.0	1.76237065577431e+18
14516.0	1.761325396629914e+18
14517.0	1.7615673660276733e+18
14518.0	1.7611665952473085e+18
14519.0	1.760765936874291e+18
14520.0	1.7603653506433021e+18
14521.0	1.759963704092262e+18
14522.0	1.7595596734988288e+18
14523.0	1.759017355024793e+18
14524.0	1.7586399179964413e+18
14525.0	1.75836148835287e+18
14526.0	1.7579548673572856e+18
14527.0	1.7575405355532288e+18
14528.0	1.7570957933674493e+18
14529.0	1.7567457568882685e+18
14530.0	1.7563438486126587e+18
14531.0	1.7559485790814203e+18
14532.0	1.7553733235769341e+18
14533.0	1.7551492789567485e+18
14534.0	1.754750268106342e+18
14535.0	1.7543471871033341e+18
14536.0	1.7539515635728381e+18
14537.0	1.7535480312627197e+18
14538.0	1.7531522953248763e+18
14539.0	1.75275324253143e+18
14540.0	1.7523540622311421e+18
14541.0	1.751948729725747e+18
14542.0	1.7515561277718523e+18
14543.0	1.7510800289693693e+18
14544.0	1.7507579533983741e+18
14545.0	1.750356118942515e+18
14546.0	1.7389070967635904e+18
14547.0	1.7397117538533294e+18
14548.0	1.7491542780411904e+18
14549.0	1.7487246873591803e+18
14550.0	1.7483597292240893e+18
14551.0	1.7479628205588477e+18
14552.0	1.7475634406096893e+18
14553.0	1.7471634214486013e+18
14554.0	1.7467679019368448e+18
14555.0	1.7463674801225725e+18
14556.0	1.7459665264705533e+18
14557.0	1.745571441488691e+18
14558.0	1.7451729305993213e+18
14559.0	1.744246162220645e+18
14560.0	1.7443228458418176e+18
14561.0	1.7439774197415933e+18
14562.0	1.7435685371772925e+18
14563.0	1.7431830621847547e+18
14564.0	1.7427585264779261e+18
14565.0	1.742388608997785e+18
14566.0	1.7419910292439037e+18
14567.0	1.7415903238946813e+18
14568.0	1.741120680964915e+18
14569.0	1.7407865476087803e+18
14570.0	1.740216548406067e+18
14571.0	1.7399945220849661e+18
14572.0	1.739557911815782e+18
14573.0	1.7391804395552765e+18
14574.0	1.73873021625303e+18
14575.0	1.7383991581605885e+18
14576.0	1.738001519686451e+18
14577.0	1.737610409227059e+18
14578.0	1.7372141565509627e+18
14579.0	1.7368127432032256e+18
14580.0	1.7364149587673085e+18
14581.0	1.7360121311002621e+18
14582.0	1.7356171316822013e+18
14583.0	1.7352238888386557e+18
14584.0	1.734815732727808e+18
14585.0	1.7344305781800957e+18
14586.0	1.7340329397059581e+18
14587.0	1.7336349069672448e+18
14588.0	1.7332411893284861e+18
14589.0	1.7328591083667456e+18
14590.0	1.7324784283025403e+18
14591.0	1.7320939330994176e+18
14592.0	1.73171490726871e+18
14593.0	1.7312971998887933e+18
14594.0	1.7309476918919165e+18
14595.0	1.730564778780262e+18
14596.0	1.7300514714681341e+18
14597.0	1.7296526401339384e+18
14598.0	1.72941198271447e+18
14599.0	1.7290432983597053e+18
14600.0	1.728657462657024e+18
14601.0	1.728279852823347e+18
14602.0	1.7278863298002941e+18
14603.0	1.7275214370963453e+18
14604.0	1.727116468656537e+18
14605.0	1.726723093272985e+18
14606.0	1.7263491660382205e+18
14607.0	1.725996624720691e+18
14608.0	1.7256160268648448e+18
14609.0	1.7252233326362624e+18
14610.0	1.724784829897113e+18
14611.0	1.7244659688407035e+18
14612.0	1.7240934928351232e+18
14613.0	1.7237091821813757e+18
14614.0	1.723322839806771e+18
14615.0	1.722934452289536e+18
14616.0	1.7225621910323197e+18
14617.0	1.722181150257971e+18
14618.0	1.7217720512675837e+18
14619.0	1.7213343286689784e+18
14620.0	1.7206730446340096e+18
14621.0	1.7206572069421053e+18
14622.0	1.7202751360466944e+18
14623.0	1.7198950683508733e+18
14624.0	1.7194979046719485e+18
14625.0	1.7191335085735933e+18
14626.0	1.71875056526295e+18
14627.0	1.7183652949524475e+18
14628.0	1.7179910489505784e+18
14629.0	1.7176097581957115e+18
14630.0	1.7172251522629627e+18
14631.0	1.7168464049340413e+18
14632.0	1.715686574181581e+18
14633.0	1.715980116741324e+18
14634.0	1.7156972142919675e+18
14635.0	1.7148964444831726e+18
14636.0	1.713733191178649e+18
14637.0	1.7145585278648315e+18
14638.0	1.714168014674329e+18
14639.0	1.7137851770601467e+18
14640.0	1.713411280024371e+18
14641.0	1.7100229484478444e+18
14642.0	1.7126465225097213e+18
14643.0	1.7122644348370941e+18
14644.0	1.711877057308262e+18
14645.0	1.7114920722104315e+18
14646.0	1.7110836057210877e+18
14647.0	1.7106982146146304e+18
