# Flux units: erg / (cm m2 s)
# Wavelength units: Angstrom
wave	flux
14000.0	1.7640668037906422e+18
14001.0	1.7637191396098043e+18
14002.0	1.7634859497291776e+18
14003.0	1.7631458654945275e+18
14004.0	1.7628017178181627e+18
14005.0	1.762457466123059e+18
14006.0	1.7621058374860797e+18
14007.0	1.761761161327411e+18
14008.0	1.761332822225715e+18
14009.0	1.7610791641415677e+18
14010.0	1.7607249904009216e+18
14011.0	1.759782875902771e+18
14012.0	1.7600493031260152e+18
14013.0	1.7597059121020928e+18
14014.0	1.759357078549299e+18
14015.0	1.7590166201827325e+18
14016.0	1.758675369931571e+18
14017.0	1.7583320929927165e+18
14018.0	1.7579886331822077e+18
14019.0	1.7576456079015933e+18
14020.0	1.7573018159022077e+18
14021.0	1.7569580457132027e+18
14022.0	1.7566031253864448e+18
14023.0	1.756232364012339e+18
14024.0	1.7558971233599488e+18
14025.0	1.7555851459952635e+18
14026.0	1.755243431015219e+18
14027.0	1.7549026907914237e+18
14028.0	1.7545601218510848e+18
14029.0	1.7542168600117248e+18
14030.0	1.7506745706348564e+18
14031.0	1.7534175850528755e+18
14032.0	1.7531868748447736e+18
14033.0	1.7527779436265472e+18
14034.0	1.752501143050649e+18
14035.0	1.7521645837090816e+18
14036.0	1.7518147569451005e+18
14037.0	1.7514800246423547e+18
14038.0	1.7511397978013693e+18
14039.0	1.7507943985446907e+18
14040.0	1.7504488231272443e+18
14041.0	1.7501113141952507e+18
14042.0	1.7497616250044413e+18
14043.0	1.7493936872357888e+18
14044.0	1.7490794315251707e+18
14045.0	1.7487461638733821e+18
14046.0	1.7484053078867965e+18
14047.0	1.7480497819025403e+18
14048.0	1.7477198780825597e+18
14049.0	1.747386214488473e+18
14050.0	1.7470455732502525e+18
14051.0	1.7466966860103675e+18
14052.0	1.7463641548783613e+18
14053.0	1.746023750198886e+18
14054.0	1.7456833757184e+18
14055.0	1.7453430079487997e+18
14056.0	1.7450026888331256e+18
14057.0	1.74466251400151e+18
14058.0	1.7443223744020475e+18
14059.0	1.74398232372183e+18
14060.0	1.7436423418281981e+18
14061.0	1.7432958268866557e+18
14062.0	1.7429625860784125e+18
14063.0	1.7426077731258365e+18
14064.0	1.7416727386128384e+18
14065.0	1.741935201379942e+18
14066.0	1.74160366010368e+18
14067.0	1.7412251040350205e+18
14068.0	1.7409252884742141e+18
14069.0	1.7405785201967096e+18
14070.0	1.7402446854750203e+18
14071.0	1.7399048562540541e+18
14072.0	1.7395686039355387e+18
14073.0	1.7392296253194237e+18
14074.0	1.738890735622553e+18
14075.0	1.7385332852916221e+18
14076.0	1.7381691492401147e+18
14077.0	1.737130649636045e+18
14078.0	1.737481149166387e+18
14079.0	1.7371879320846333e+18
14080.0	1.7368590650966016e+18
14081.0	1.7365207642800123e+18
14082.0	1.7361780997095421e+18
14083.0	1.735842874156646e+18
14084.0	1.73550577123328e+18
14085.0	1.734578727708262e+18
14086.0	1.7347709946036221e+18
14087.0	1.7344920717099005e+18
14088.0	1.734133806006272e+18
14089.0	1.7337847811932157e+18
14090.0	1.7334651349630976e+18
14091.0	1.7331413632155643e+18
14092.0	1.7328039968899072e+18
14093.0	1.7324665701662715e+18
14094.0	1.7321291602198528e+18
14095.0	1.7317915976007677e+18
14096.0	1.7313073165500413e+18
14097.0	1.731082157922713e+18
14098.0	1.730713483634278e+18
14099.0	1.7304434090442747e+18
14100.0	1.7300950016327677e+18
14101.0	1.729770139366195e+18
14102.0	1.729433210925875e+18
14103.0	1.7290819044114427e+18
14104.0	1.72876022981591e+18
14105.0	1.7284232644657152e+18
14106.0	1.7280871765639165e+18
14107.0	1.727749474693939e+18
14108.0	1.72739838125015e+18
14109.0	1.7270730357997565e+18
14110.0	1.7267343574958077e+18
14111.0	1.726393662570496e+18
14112.0	1.7260610441969661e+18
14113.0	1.7257141719007232e+18
14114.0	1.7253847848189947e+18
14115.0	1.7250566744834048e+18
14116.0	1.7246224381902843e+18
14117.0	1.7188658801016832e+18
14118.0	1.724052504418713e+18
14119.0	1.723629173315993e+18
14120.0	1.7233104968089595e+18
14121.0	1.723028595959398e+18
14122.0	1.7225851389083643e+18
14123.0	1.7222975338053632e+18
14124.0	1.721944591512371e+18
14125.0	1.721267276847513e+18
14126.0	1.7213564343287805e+18
14127.0	1.7210395211071485e+18
14128.0	1.7207037184180221e+18
14129.0	1.7203591596998653e+18
14130.0	1.7200171544739837e+18
14131.0	1.719698541720371e+18
14132.0	1.7193610277552125e+18
14133.0	1.7185172059324406e+18
14134.0	1.7186978747383805e+18
14135.0	1.7183304520302587e+18
14136.0	1.7178726705922043e+18
14137.0	1.717683621566873e+18
14138.0	1.7172966114590715e+18
14139.0	1.7170272851329021e+18
14140.0	1.7166849577844733e+18
14141.0	1.7163313813127163e+18
14142.0	1.715596572806349e+18
14143.0	1.7156853729329147e+18
14144.0	1.7153594318913533e+18
14145.0	1.715024912659251e+18
14146.0	1.7146833184751616e+18
14147.0	1.714353319025049e+18
14148.0	1.7140085002600443e+18
14149.0	1.713677096556953e+18
14150.0	1.713360535656857e+18
14151.0	1.7130002801754112e+18
14152.0	1.7126947318398976e+18
14153.0	1.7123617057800187e+18
14154.0	1.712005909682585e+18
14155.0	1.7111684514578432e+18
14156.0	1.7112630598565885e+18
14157.0	1.7110305024770048e+18
14158.0	1.7106932301037563e+18
14159.0	1.7103659703730176e+18
14160.0	1.71002544825303e+18
14161.0	1.7096477696327677e+18
14162.0	1.709268960228147e+18
14163.0	1.7090350187282424e+18
14164.0	1.7085291319787515e+18
14165.0	1.7082794148626432e+18
14166.0	1.708039005745971e+18
14167.0	1.7076965290803197e+18
14168.0	1.7073611156226043e+18
14169.0	1.7070464421593085e+18
14170.0	1.7067025763401723e+18
14171.0	1.7063792777101307e+18
14172.0	1.7060520599224315e+18
14173.0	1.705668156955033e+18
14174.0	1.7053802599284733e+18
14175.0	1.705057244833382e+18
14176.0	1.7047246231044093e+18
14177.0	1.7043868591587325e+18
14178.0	1.7040374014935037e+18
14179.0	1.703697213240115e+18
14180.0	1.703377003295539e+18
14181.0	1.703046154918297e+18
14182.0	1.7027145985425403e+18
14183.0	1.7023846494240763e+18
14184.0	1.7020490799382525e+18
14185.0	1.7017226120921088e+18
14186.0	1.7004088369610752e+18
14187.0	1.7010375631306747e+18
14188.0	1.7007310048067581e+18
14189.0	1.700392428843827e+18
14190.0	1.70006372459479e+18
14191.0	1.699729257372057e+18
14192.0	1.699403333107712e+18
14193.0	1.6989139501056e+18
14194.0	1.698741898077798e+18
14195.0	1.6984134320652288e+18
14196.0	1.698066063163392e+18
14197.0	1.6977362985943037e+18
14198.0	1.6974020545085437e+18
14199.0	1.6969941383118843e+18
14200.0	1.6959722364076035e+18
14201.0	1.6962086290587643e+18
14202.0	1.6959237284429821e+18
14203.0	1.6955845199790075e+18
14204.0	1.695264363721523e+18
14205.0	1.694935429624627e+18
14206.0	1.694489461024358e+18
14207.0	1.694279670326886e+18
14208.0	1.6939512261246968e+18
14209.0	1.69349854831575e+18
14210.0	1.693202271069798e+18
14211.0	1.6929605482971133e+18
14212.0	1.692635659186995e+18
14213.0	1.6922994085462013e+18
14214.0	1.6919786483089403e+18
14215.0	1.6916224260702203e+18
14216.0	1.6912972886573053e+18
14217.0	1.6909692773072893e+18
14218.0	1.6906304530415616e+18
14219.0	1.6903128821530621e+18
14220.0	1.6899787706073085e+18
14221.0	1.6896457747464184e+18
14222.0	1.6892595649118203e+18
14223.0	1.6889974242672637e+18
14224.0	1.6886726727303165e+18
14225.0	1.6864148033896463e+18
14226.0	1.688004350653235e+18
14227.0	1.68768952116183e+18
14228.0	1.6826013623255048e+18
14229.0	1.6858569676685276e+18
14230.0	1.6867074819227643e+18
14231.0	1.6863147004526587e+18
14232.0	1.6860531000344576e+18
14233.0	1.6857214429954048e+18
14234.0	1.6853991895859197e+18
14235.0	1.6850697421062141e+18
14236.0	1.6847451348533248e+18
14237.0	1.6844151169482747e+18
14238.0	1.6840713618587648e+18
14239.0	1.6837247009554432e+18
14240.0	1.6818390022750205e+18
14241.0	1.683071285434777e+18
14242.0	1.682752268350259e+18
14243.0	1.682285266154291e+18
14244.0	1.6821064260648957e+18
14245.0	1.6817630367186944e+18
14246.0	1.6814323611467776e+18
14247.0	1.681123292951347e+18
14248.0	1.6807850642767872e+18
14249.0	1.6804733335371776e+18
14250.0	1.6801470905057275e+18
14251.0	1.6798234512982013e+18
14252.0	1.6794974431477757e+18
14253.0	1.6791707152547837e+18
14254.0	1.678843328017203e+18
14255.0	1.6784864229457923e+18
14256.0	1.676289480065025e+18
14257.0	1.677751460089036e+18
14258.0	1.6775427884318715e+18
14259.0	1.677199803416576e+18
14260.0	1.676829751718707e+18
14261.0	1.676549142714777e+18
14262.0	1.6762581737799677e+18
14263.0	1.6731708908896271e+18
14264.0	1.6749906953764854e+18
14265.0	1.6752513260716032e+18
14266.0	1.6749338457800704e+18
14267.0	1.6746107065335803e+18
14268.0	1.6742837588590587e+18
14269.0	1.673955603224985e+18
14270.0	1.673376299378278e+18
14271.0	1.6728373548023803e+18
14272.0	1.6725133297188861e+18
14273.0	1.672184835185049e+18
14274.0	1.6678050506735634e+18
14275.0	1.6711521757298688e+18
14276.0	1.6711980278611965e+18
14277.0	1.6708749943111675e+18
14278.0	1.6705670887768061e+18
14279.0	1.6702418020466685e+18
14280.0	1.669912559248998e+18
14281.0	1.669595070568857e+18
14282.0	1.6692713575415805e+18
14283.0	1.6689473995669504e+18
14284.0	1.668623424815104e+18
14285.0	1.6682987672305661e+18
14286.0	1.6679677275930624e+18
14287.0	1.667651966966169e+18
14288.0	1.6673283428581376e+18
14289.0	1.665999758478539e+18
14290.0	1.6666795444273152e+18
14291.0	1.6663360242188285e+18
14292.0	1.6660098180972541e+18
14293.0	1.665684227699507e+18
14294.0	1.665230429172531e+18
14295.0	1.6650270977032187e+18
14296.0	1.6639064014848003e+18
14297.0	1.6643904728203261e+18
14298.0	1.6634363173142525e+18
14299.0	1.663725645437337e+18
14300.0	1.6634179043196925e+18
14301.0	1.6630988318703613e+18
14302.0	1.6627776807239677e+18
14303.0	1.6624241763942397e+18
14304.0	1.6621164285657085e+18
14305.0	1.6618080180371453e+18
14306.0	1.6614378874863613e+18
14307.0	1.661131268764467e+18
14308.0	1.6608324933910525e+18
14309.0	1.6604933369364477e+18
14310.0	1.6599918206517243e+18
14311.0	1.6590626011217915e+18
14312.0	1.6594001066983421e+18
14313.0	1.659095667336806e+18
14314.0	1.658876179408486e+18
14315.0	1.6585810195251197e+18
14316.0	1.6582152426618877e+18
14317.0	1.657867533182566e+18
14318.0	1.65762400518144e+18
14319.0	1.6573037918814203e+18
14320.0	1.6569820333998075e+18
14321.0	1.6566589679730688e+18
14322.0	1.6563036768698365e+18
14323.0	1.6559779941974013e+18
14324.0	1.6556720113319933e+18
14325.0	1.6553436896034816e+18
14326.0	1.6550312542207997e+18
14327.0	1.6547040766984192e+18
14328.0	1.6543826571165693e+18
14329.0	1.6540680994160637e+18
14330.0	1.653747053966131e+18
14331.0	1.6534193043406848e+18
14332.0	1.6531053707526141e+18
14333.0	1.6527846474252288e+18
14334.0	1.6524639324864507e+18
14335.0	1.652128513995571e+18
14336.0	1.6516205133168637e+18
14337.0	1.6515015360118781e+18
14338.0	1.6511796298907643e+18
14339.0	1.6508472833081341e+18
14340.0	1.650539565678592e+18
14341.0	1.650206430566809e+18
14342.0	1.6498989008420867e+18
14343.0	1.6495758068940797e+18
14344.0	1.6492544141557757e+18
14345.0	1.6489401919995904e+18
14346.0	1.6486124406964221e+18
14347.0	1.6482029625409533e+18
14348.0	1.6479769163988984e+18
14349.0	1.647660984644403e+18
14350.0	1.6471852163530747e+18
14351.0	1.6468494891614205e+18
14352.0	1.6466943049465856e+18
14353.0	1.646381334370713e+18
14354.0	1.646043627467571e+18
14355.0	1.6456878431141885e+18
14356.0	1.6453816304009216e+18
14357.0	1.6451063196418043e+18
14358.0	1.6447867925299197e+18
14359.0	1.644448419571302e+18
14360.0	1.6441112948375547e+18
14361.0	1.6437998727987197e+18
14362.0	1.6434869777203197e+18
14363.0	1.6431675965702144e+18
14364.0	1.6423796143554557e+18
14365.0	1.6424205423738875e+18
14366.0	1.642120297316352e+18
14367.0	1.6418936052514813e+18
14368.0	1.6415744891813888e+18
14369.0	1.641256396521472e+18
14370.0	1.6409382652739581e+18
14371.0	1.6406204477603837e+18
14372.0	1.6402956056264704e+18
14373.0	1.6399793534271485e+18
14374.0	1.6396646799638525e+18
14375.0	1.639345053866393e+18
14376.0	1.6390289476288507e+18
14377.0	1.638710214079283e+18
14378.0	1.6383901249306621e+18
14379.0	1.638074735080243e+18
14380.0	1.6377552247455741e+18
14381.0	1.637428548861952e+18
14382.0	1.6371194806665208e+18
14383.0	1.6367966954192893e+18
14384.0	1.6364680767340541e+18
14385.0	1.636167819932467e+18
14386.0	1.6358366662098944e+18
14387.0	1.635532441596723e+18
14388.0	1.6352130872901632e+18
14389.0	1.634897271298457e+18
14390.0	1.634578282735206e+18
14391.0	1.634262580828569e+18
14392.0	1.6339434765025275e+18
14393.0	1.633628563125043e+18
14394.0	1.6332760603951104e+18
14395.0	1.63297163781079e+18
14396.0	1.632676563491225e+18
14397.0	1.6323605512060923e+18
14398.0	1.6320426061856763e+18
14399.0	1.631725974821273e+18
14400.0	1.6313757571481595e+18
14401.0	1.631062605378355e+18
14402.0	1.6307511497850875e+18
14403.0	1.628639847881111e+18
14404.0	1.6243675365375985e+18
14405.0	1.6280331384520678e+18
14406.0	1.629484875985715e+18
14407.0	1.6267059147046915e+18
14408.0	1.6287911683031037e+18
14409.0	1.628516671238963e+18
14410.0	1.6281828432281595e+18
14411.0	1.6279011319611384e+18
14412.0	1.6275844687200253e+18
14413.0	1.627272182654566e+18
14414.0	1.6269535548014592e+18
14415.0	1.6266386263244797e+18
14416.0	1.626306759570227e+18
14417.0	1.6259624357330941e+18
14418.0	1.6256178753372152e+18
14419.0	1.6253739111284728e+18
14420.0	1.625054587020902e+18
14421.0	1.6247433730195456e+18
14422.0	1.6244232167620605e+18
14423.0	1.6240911302262781e+18
14424.0	1.6137013241577426e+18
14425.0	1.6234709184937981e+18
14426.0	1.623165831531724e+18
14427.0	1.622850203444838e+18
14428.0	1.6225163251023872e+18
14429.0	1.6222149157060605e+18
14430.0	1.6219049314746363e+18
14431.0	1.6207232936968195e+18
14432.0	1.621267601948672e+18
14433.0	1.6190993564958712e+18
14434.0	1.6206269455007741e+18
14435.0	1.6202128318005243e+18
14436.0	1.6200148455522304e+18
14437.0	1.6197006703722493e+18
14438.0	1.6192597080932347e+18
14439.0	1.6190499140403197e+18
14440.0	1.6187555040985085e+18
14441.0	1.6184314370719741e+18
14442.0	1.6181119619694587e+18
14443.0	1.6177564661841915e+18
14444.0	1.617492126046617e+18
14445.0	1.617182661908889e+18
14446.0	1.6143301241470984e+18
14447.0	1.6165360310943741e+18
14448.0	1.6162399484641275e+18
14449.0	1.6159232147587067e+18
14450.0	1.6155835180777467e+18
14451.0	1.6152722805882877e+18
14452.0	1.6149574695518203e+18
14453.0	1.6144926114840576e+18
14454.0	1.613746453191065e+18
14455.0	1.613424907780096e+18
14456.0	1.613104751522611e+18
14457.0	1.612793765691392e+18
14458.0	1.6124824980029437e+18
14459.0	1.612166005889433e+18
14460.0	1.6118416989487104e+18
14461.0	1.6114241895399421e+18
14462.0	1.6104896566657021e+18
14463.0	1.6108682379001853e+18
14464.0	1.6105936754049021e+18
14465.0	1.6102634360406013e+18
14466.0	1.6099745055375357e+18
14467.0	1.609627438625587e+18
14468.0	1.6093458817089533e+18
14469.0	1.6089499209564152e+18
14470.0	1.608694291549388e+18
14471.0	1.6084003715022848e+18
14472.0	1.6080912227762176e+18
14473.0	1.6077825555562496e+18
14474.0	1.6074722726903803e+18
14475.0	1.6071543964565501e+18
14476.0	1.6067265019510781e+18
14477.0	1.6065294132838397e+18
14478.0	1.6062178385723392e+18
14479.0	1.6059012709613563e+18
14480.0	1.605575878534758e+18
14481.0	1.6052820071415803e+18
14482.0	1.604964974801715e+18
14483.0	1.6046458050445307e+18
14484.0	1.6043315728220157e+18
14485.0	1.6039947584667643e+18
14486.0	1.6034140285566979e+18
14487.0	1.6033956273061888e+18
14488.0	1.6030183999930365e+18
14489.0	1.6026954134192128e+18
14490.0	1.6024471693426685e+18
14491.0	1.602152433922867e+18
14492.0	1.601839810635366e+18
14493.0	1.6015146648338432e+18
14494.0	1.6011909534842875e+18
14495.0	1.600903490987622e+18
14496.0	1.6004549705728e+18
14497.0	1.600277689086771e+18
14498.0	1.5999664566304763e+18
14499.0	1.5996544993984507e+18
14500.0	1.5993419063099387e+18
14501.0	1.5989746379522048e+18
14502.0	1.598421818618675e+18
14503.0	1.5983665863458808e+18
14504.0	1.598086480658432e+18
14505.0	1.5977285404327933e+18
14506.0	1.5973432936103933e+18
14507.0	1.596882886538035e+18
14508.0	1.596821017198592e+18
14509.0	1.5965089760804864e+18
14510.0	1.596193618106777e+18
14511.0	1.595884365361971e+18
14512.0	1.5955567684091901e+18
14513.0	1.5952605331062784e+18
14514.0	1.594911697875763e+18
14515.0	1.594635098626457e+18
14516.0	1.591757970499176e+18
14517.0	1.5940110063239163e+18
14518.0	1.593700827476787e+18
14519.0	1.593389053116416e+18
14520.0	1.5930763845304315e+18
14521.0	1.592764157185228e+18
14522.0	1.592446485633433e+18
14523.0	1.5919505175740413e+18
14524.0	1.5917107711574013e+18
14525.0	1.591512880539238e+18
14526.0	1.5912018829639675e+18
14527.0	1.5908633153896443e+18
14528.0	1.5904414522933248e+18
14529.0	1.5902600855551997e+18
14530.0	1.589942940807987e+18
14531.0	1.589646403515187e+18
14532.0	1.5891730209439741e+18
14533.0	1.5890239570575357e+18
14534.0	1.5887151354871805e+18
14535.0	1.588392868655923e+18
14536.0	1.5880884980809725e+18
14537.0	1.5877683753779195e+18
14538.0	1.587469492630323e+18
14539.0	1.5871582350082048e+18
14540.0	1.5868468532346877e+18
14541.0	1.5865136224927741e+18
14542.0	1.586222274392883e+18
14543.0	1.585830784768409e+18
14544.0	1.5856009134211072e+18
14545.0	1.5852789804564477e+18
14546.0	1.5719852429803466e+18
14547.0	1.5727815819263928e+18
14548.0	1.5843416726306813e+18
14549.0	1.5839220945911803e+18
14550.0	1.5837257256665085e+18
14551.0	1.5834231015997437e+18
14552.0	1.5831099179532285e+18
14553.0	1.5827923336429568e+18
14554.0	1.582489900836454e+18
14555.0	1.5821782573383675e+18
14556.0	1.5818646743941112e+18
14557.0	1.581556257154662e+18
14558.0	1.5812439811555323e+18
14559.0	1.5790120292581353e+18
14560.0	1.580585304299929e+18
14561.0	1.5803040678281213e+18
14562.0	1.579959289328435e+18
14563.0	1.579683827574374e+18
14564.0	1.5793002769285115e+18
14565.0	1.579067692705382e+18
14566.0	1.5787567119073277e+18
14567.0	1.5784414126538747e+18
14568.0	1.5780442103873533e+18
14569.0	1.5778194275696637e+18
14570.0	1.5766298474577915e+18
14571.0	1.5764672846233597e+18
14572.0	1.5760779408048128e+18
14573.0	1.5757882251280381e+18
14574.0	1.5753474692087805e+18
14575.0	1.5752027808202747e+18
14576.0	1.5748866695495677e+18
14577.0	1.574595947239833e+18
14578.0	1.5742846308974587e+18
14579.0	1.5739785725345792e+18
14580.0	1.5736662210379776e+18
14581.0	1.5733448903753725e+18
14582.0	1.5730322335334395e+18
14583.0	1.572732401195417e+18
14584.0	1.5723797726363648e+18
14585.0	1.572109874207129e+18
14586.0	1.571795947329945e+18
14587.0	1.5714855386349563e+18
14588.0	1.5711760644308987e+18
14589.0	1.5708725276835837e+18
14590.0	1.5705692325281792e+18
14591.0	1.5702556260958203e+18
14592.0	1.569953481857433e+18
14593.0	1.5695376484925435e+18
14594.0	1.5693526947856384e+18
14595.0	1.5690430528094205e+18
14596.0	1.5682781241671675e+18
14597.0	1.5678884498374648e+18
14598.0	1.5680843607441403e+18
14599.0	1.5678310717587453e+18
14600.0	1.567512281166643e+18
14601.0	1.5672168696250363e+18
14602.0	1.5668729165643776e+18
14603.0	1.5666074607419387e+18
14604.0	1.5662209690501115e+18
14605.0	1.565887335655014e+18
14606.0	1.5656142948532221e+18
14607.0	1.565378041452953e+18
14608.0	1.5650836046675965e+18
14609.0	1.5647648140754941e+18
14610.0	1.5642716058681341e+18
14611.0	1.564145672729395e+18
14612.0	1.5638685902962685e+18
14613.0	1.5635677194485757e+18
14614.0	1.5632588223807485e+18
14615.0	1.5629520207871997e+18
14616.0	1.5626552570019837e+18
14617.0	1.562348383266406e+18
14618.0	1.5620078124924925e+18
14619.0	1.5613806919024627e+18
14620.0	1.5603187713048573e+18
14621.0	1.5611302416220157e+18
14622.0	1.5608224686276605e+18
14623.0	1.5605203243892733e+18
14624.0	1.560155371287347e+18
14625.0	1.5599066826145792e+18
14626.0	1.5595996494954493e+18
14627.0	1.5592892357672957e+18
14628.0	1.558993062540083e+18
14629.0	1.5586872491245565e+18
14630.0	1.5583687051575293e+18
14631.0	1.5580739126951933e+18
14632.0	1.5569747785547776e+18
14633.0	1.5573174263480312e+18
14634.0	1.557139653289574e+18
14635.0	1.5559807637389292e+18
14636.0	1.5547406623965176e+18
14637.0	1.5562389466382333e+18
14638.0	1.5559055732899835e+18
14639.0	1.5555904518750205e+18
14640.0	1.5553148609363965e+18
14641.0	1.5518534075416556e+18
14642.0	1.5546987646550013e+18
14643.0	1.5543927885004797e+18
14644.0	1.554070912578355e+18
14645.0	1.5537538617835515e+18
14646.0	1.5530087554220032e+18
14647.0	1.5522195266600957e+18
14648.0	1.5519910327222267e+18
