# Flux units: erg / (cm m2 s)
# Wavelength units: Angstrom
wave	flux
14000.0	1.7080870758252536e+18
14001.0	1.7077481055977472e+18
14002.0	1.7076885984903165e+18
14003.0	1.707398758662144e+18
14004.0	1.7071068552364032e+18
14005.0	1.7068141532151803e+18
14006.0	1.7065105627807744e+18
14007.0	1.7062151965376507e+18
14008.0	1.7057989403869181e+18
14009.0	1.705633629444505e+18
14010.0	1.705327874749235e+18
14011.0	1.7041717853159421e+18
14012.0	1.7047544915820541e+18
14013.0	1.7044716277202944e+18
14014.0	1.704172942943846e+18
14015.0	1.7038852841537528e+18
14016.0	1.7035957580595197e+18
14017.0	1.7033037942358013e+18
14018.0	1.702995749450547e+18
14019.0	1.7027194001817597e+18
14020.0	1.7024263106068477e+18
14021.0	1.7021331874775037e+18
14022.0	1.701837420258918e+18
14023.0	1.70153387008983e+18
14024.0	1.7012391480918013e+18
14025.0	1.7009653724479485e+18
14026.0	1.7006727895449597e+18
14027.0	1.700382771878297e+18
14028.0	1.7000819043860475e+18
14029.0	1.6997857194147835e+18
14030.0	1.6979418127794184e+18
14031.0	1.6991014757597181e+18
14032.0	1.6989181276323835e+18
14033.0	1.6985745201823741e+18
14034.0	1.6983390888656896e+18
14035.0	1.698052111230566e+18
14036.0	1.6977496415141885e+18
14037.0	1.6974670058225661e+18
14038.0	1.697180595257344e+18
14039.0	1.696884648522547e+18
14040.0	1.696595147594137e+18
14041.0	1.6963067522842621e+18
14042.0	1.6960044000083965e+18
14043.0	1.6956733419159547e+18
14044.0	1.6954100788756475e+18
14045.0	1.6951319646437376e+18
14046.0	1.6948501392916477e+18
14047.0	1.6945516692635643e+18
14048.0	1.6942729091088381e+18
14049.0	1.6939848090779643e+18
14050.0	1.6936947779895293e+18
14051.0	1.6933939641843707e+18
14052.0	1.693109556818739e+18
14053.0	1.6928247501553661e+18
14054.0	1.6925350260899837e+18
14055.0	1.6922452080721915e+18
14056.0	1.6919554017984507e+18
14057.0	1.6916657498750976e+18
14058.0	1.6913760560087037e+18
14059.0	1.6910721770061821e+18
14060.0	1.69079687128023e+18
14061.0	1.6904978006278144e+18
14062.0	1.6902172419555325e+18
14063.0	1.6899059524567037e+18
14064.0	1.6892997346000896e+18
14065.0	1.689337147791769e+18
14066.0	1.6890583440162813e+18
14067.0	1.688767653583257e+18
14068.0	1.688482942550016e+18
14069.0	1.68819090826199e+18
14070.0	1.6879039658590205e+18
14071.0	1.6876122687930365e+18
14072.0	1.6873275963473915e+18
14073.0	1.6870388604600315e+18
14074.0	1.6867500541083648e+18
14075.0	1.686438489463193e+18
14076.0	1.686164821193523e+18
14077.0	1.6855357880008704e+18
14078.0	1.68556594504663e+18
14079.0	1.6852938387357693e+18
14080.0	1.685012568709529e+18
14081.0	1.6847302652067837e+18
14082.0	1.6844423446921216e+18
14083.0	1.6841524528545787e+18
14084.0	1.6838605896941565e+18
14085.0	1.683145314900377e+18
14086.0	1.683249432625152e+18
14087.0	1.6829915399716861e+18
14088.0	1.682697871582822e+18
14089.0	1.682423996953395e+18
14090.0	1.6821366938402816e+18
14091.0	1.6818532209655805e+18
14092.0	1.6815661409894397e+18
14093.0	1.681278655004672e+18
14094.0	1.68099088212951e+18
14095.0	1.6807015288406013e+18
14096.0	1.6803603171770363e+18
14097.0	1.6800937976791037e+18
14098.0	1.6798150106808315e+18
14099.0	1.6795535042150397e+18
14100.0	1.6792512056262653e+18
14101.0	1.6789817668927485e+18
14102.0	1.6786924639354875e+18
14103.0	1.6783859207110656e+18
14104.0	1.6781179214626816e+18
14105.0	1.6778349804257277e+18
14106.0	1.6775483232354304e+18
14107.0	1.6772493717012477e+18
14108.0	1.6769588624621565e+18
14109.0	1.6766822682460157e+18
14110.0	1.676399699663257e+18
14111.0	1.6761061151604733e+18
14112.0	1.675818325508096e+18
14113.0	1.675540011627315e+18
14114.0	1.6752371442909181e+18
14115.0	1.674959503176499e+18
14116.0	1.6746061246758907e+18
14117.0	1.671587611593933e+18
14118.0	1.674078959383347e+18
14119.0	1.6737737801465853e+18
14120.0	1.6735042424274936e+18
14121.0	1.673230070841344e+18
14122.0	1.672930282124083e+18
14123.0	1.67265956832215e+18
14124.0	1.6723650208071675e+18
14125.0	1.6715077184913403e+18
14126.0	1.6718167615209467e+18
14127.0	1.6715413484208125e+18
14128.0	1.6712558505361405e+18
14129.0	1.6709580415303677e+18
14130.0	1.670658189059686e+18
14131.0	1.6703983116615677e+18
14132.0	1.6701000614150141e+18
14133.0	1.6691274241277937e+18
14134.0	1.6695250055593981e+18
14135.0	1.669241962181427e+18
14136.0	1.668963591258112e+18
14137.0	1.6686841801474048e+18
14138.0	1.6683852890111997e+18
14139.0	1.6681229067747325e+18
14140.0	1.667835385557811e+18
14141.0	1.667513806592409e+18
14142.0	1.6671116886015997e+18
14143.0	1.666980083086131e+18
14144.0	1.6667028966342653e+18
14145.0	1.6664172611764221e+18
14146.0	1.6661292198658043e+18
14147.0	1.665849362481152e+18
14148.0	1.6655646682251261e+18
14149.0	1.6652830005788667e+18
14150.0	1.665001467150336e+18
14151.0	1.6647115501469696e+18
14152.0	1.6644317900701696e+18
14153.0	1.6641504579682304e+18
14154.0	1.663834705729945e+18
14155.0	1.6635166197809147e+18
14156.0	1.663292655691366e+18
14157.0	1.6630161269063675e+18
14158.0	1.6627280000319485e+18
14159.0	1.6624493237633021e+18
14160.0	1.6621524425375741e+18
14161.0	1.6618048991526907e+18
14162.0	1.6614624963067904e+18
14163.0	1.6612975443967997e+18
14164.0	1.6609526702669821e+18
14165.0	1.6607189854584832e+18
14166.0	1.6604657333829632e+18
14167.0	1.6601670368624635e+18
14168.0	1.6598979890380797e+18
14169.0	1.6596205274398715e+18
14170.0	1.6593335397384184e+18
14171.0	1.6590513066999805e+18
14172.0	1.6587728686678013e+18
14173.0	1.6584625337925632e+18
14174.0	1.658199659983667e+18
14175.0	1.657925318947635e+18
14176.0	1.6576440640208893e+18
14177.0	1.6573619652001792e+18
14178.0	1.6570793714515965e+18
14179.0	1.6567919425093632e+18
14180.0	1.6565157123588093e+18
14181.0	1.6562336923910141e+18
14182.0	1.655950565126963e+18
14183.0	1.6556692934230008e+18
14184.0	1.655379753906995e+18
14185.0	1.6550967256285181e+18
14186.0	1.6543380196556797e+18
14187.0	1.6544878603272187e+18
14188.0	1.6542535849607165e+18
14189.0	1.6539750680756221e+18
14190.0	1.6536941554040832e+18
14191.0	1.6534108754673661e+18
14192.0	1.6531195391115261e+18
14193.0	1.6527766111387648e+18
14194.0	1.6525682045616123e+18
14195.0	1.6522926002012157e+18
14196.0	1.6520116841742333e+18
14197.0	1.6517306943275003e+18
14198.0	1.651442518799155e+18
14199.0	1.6511616514260992e+18
14200.0	1.6505792723156992e+18
14201.0	1.6505764386439165e+18
14202.0	1.6503219869974525e+18
14203.0	1.650039284196966e+18
14204.0	1.649761785688883e+18
14205.0	1.6494799955689472e+18
14206.0	1.649041459275366e+18
14207.0	1.6489200257859581e+18
14208.0	1.6486423930601467e+18
14209.0	1.6481886549311485e+18
14210.0	1.6479562821009403e+18
14211.0	1.647793184073318e+18
14212.0	1.6475225877118968e+18
14213.0	1.6472434634915837e+18
14214.0	1.6469627487911933e+18
14215.0	1.6466662232424443e+18
14216.0	1.6464049969561597e+18
14217.0	1.6461253207654397e+18
14218.0	1.645830363886387e+18
14219.0	1.6455657016262653e+18
14220.0	1.6452823579361283e+18
14221.0	1.6450047067553792e+18
14222.0	1.644709004967936e+18
14223.0	1.6444456379088893e+18
14224.0	1.644161205377433e+18
14225.0	1.6428756377796613e+18
14226.0	1.6435767559585784e+18
14227.0	1.6433132865585147e+18
14228.0	1.6401644044419082e+18
14229.0	1.642244368184113e+18
14230.0	1.6424866831925243e+18
14231.0	1.6422051329867776e+18
14232.0	1.6419350768517115e+18
14233.0	1.641654419193856e+18
14234.0	1.641378147100262e+18
14235.0	1.6410960835117053e+18
14236.0	1.640820645245747e+18
14237.0	1.6405396520435712e+18
14238.0	1.6402603264966653e+18
14239.0	1.6399599858089981e+18
14240.0	1.6373578379296768e+18
14241.0	1.6393902902738941e+18
14242.0	1.6391138034319357e+18
14243.0	1.6386473364291581e+18
14244.0	1.638568602632192e+18
14245.0	1.6382816199639037e+18
14246.0	1.6380041633988605e+18
14247.0	1.637730614247424e+18
14248.0	1.6374338840166397e+18
14249.0	1.6371749377540093e+18
14250.0	1.6369001470885885e+18
14251.0	1.636625220527718e+18
14252.0	1.6363468663816192e+18
14253.0	1.636066997252915e+18
14254.0	1.6357845595324408e+18
14255.0	1.6354509060046843e+18
14256.0	1.6342201076285445e+18
14257.0	1.634802728330854e+18
14258.0	1.6346717922263037e+18
14259.0	1.6343743741296637e+18
14260.0	1.63406131798999e+18
14261.0	1.633793046950707e+18
14262.0	1.633549332722483e+18
14263.0	1.63180853550121e+18
14264.0	1.6325611999985661e+18
14265.0	1.6327180619350013e+18
14266.0	1.6324588690472952e+18
14267.0	1.632185838311833e+18
14268.0	1.6319063315709947e+18
14269.0	1.6316212279508992e+18
14270.0	1.6313552990109693e+18
14271.0	1.6310740424065021e+18
14272.0	1.6307928277450747e+18
14273.0	1.6304759547887608e+18
14274.0	1.6278789944246275e+18
14275.0	1.6296538208731133e+18
14276.0	1.6296647126417403e+18
14277.0	1.629405049991987e+18
14278.0	1.6291421325623293e+18
14279.0	1.6288629764653056e+18
14280.0	1.6285553896980477e+18
14281.0	1.628288467546931e+18
14282.0	1.628012955461222e+18
14283.0	1.6277368578506747e+18
14284.0	1.6274605975011328e+18
14285.0	1.627183662707507e+18
14286.0	1.6269056340393981e+18
14287.0	1.6266301085319168e+18
14288.0	1.6263428540727293e+18
14289.0	1.6245701549752294e+18
14290.0	1.6257919641190397e+18
14291.0	1.6255255738056701e+18
14292.0	1.6252491792383997e+18
14293.0	1.6249718787014653e+18
14294.0	1.6245204893827072e+18
14295.0	1.6243935026348032e+18
14296.0	1.6229425771184136e+18
14297.0	1.6238409668362237e+18
14298.0	1.623176810541875e+18
14299.0	1.6232937578037243e+18
14300.0	1.6230375193837568e+18
14301.0	1.622768391028736e+18
14302.0	1.6224911123021821e+18
14303.0	1.622152710822297e+18
14304.0	1.6218989503971325e+18
14305.0	1.6216443930542075e+18
14306.0	1.6213533922426875e+18
14307.0	1.6210768785571835e+18
14308.0	1.6208086360391677e+18
14309.0	1.620518061368934e+18
14310.0	1.6201730513436667e+18
14311.0	1.619785756023193e+18
14312.0	1.619622891198873e+18
14313.0	1.619208087955046e+18
14314.0	1.6191531341840381e+18
14315.0	1.6188893896376312e+18
14316.0	1.618554583515136e+18
14317.0	1.6183223532912635e+18
14318.0	1.6180765922426875e+18
14319.0	1.6178059992367101e+18
14320.0	1.6175321850052605e+18
14321.0	1.6172549901647872e+18
14322.0	1.6169330622332923e+18
14323.0	1.6166844171812861e+18
14324.0	1.6164382719344637e+18
14325.0	1.6161529787318267e+18
14326.0	1.615891494076416e+18
14327.0	1.6156091284979707e+18
14328.0	1.6153140575338493e+18
14329.0	1.6150478366703616e+18
14330.0	1.614774252286771e+18
14331.0	1.614500263572275e+18
14332.0	1.6142269778231296e+18
14333.0	1.613953443771187e+18
14334.0	1.613679698326323e+18
14335.0	1.6133870583807995e+18
14336.0	1.6130313478471677e+18
14337.0	1.6128548934778877e+18
14338.0	1.6125823710920704e+18
14339.0	1.6122983831568381e+18
14340.0	1.6120382775885824e+18
14341.0	1.6117594318700541e+18
14342.0	1.6114871527538685e+18
14343.0	1.6112187290419197e+18
14344.0	1.6109345649459197e+18
14345.0	1.6106692617961472e+18
14346.0	1.610392721267097e+18
14347.0	1.6100900451909624e+18
14348.0	1.6098492015443965e+18
14349.0	1.6095808331972603e+18
14350.0	1.6092246831005693e+18
14351.0	1.6089433862307835e+18
14352.0	1.6087500036505597e+18
14353.0	1.6084894585192443e+18
14354.0	1.6082086951649275e+18
14355.0	1.6079173739085821e+18
14356.0	1.607625408407142e+18
14357.0	1.6073775669837824e+18
14358.0	1.6071091650822141e+18
14359.0	1.606817870669414e+18
14360.0	1.6065573825806333e+18
14361.0	1.606288485751193e+18
14362.0	1.606019656030617e+18
14363.0	1.6057448821424125e+18
14364.0	1.6052258252783616e+18
14365.0	1.6051305088811003e+18
14366.0	1.6048792180621307e+18
14367.0	1.6046601361424381e+18
14368.0	1.604388370409062e+18
14369.0	1.604117495545856e+18
14370.0	1.603846068712243e+18
14371.0	1.6035747727409147e+18
14372.0	1.6032958834016253e+18
14373.0	1.6030275368648704e+18
14374.0	1.6027577357434877e+18
14375.0	1.6024815559245821e+18
14376.0	1.6022171201568768e+18
14377.0	1.6019448024530941e+18
14378.0	1.6016706526773243e+18
14379.0	1.6014029336084475e+18
14380.0	1.6011306779803648e+18
14381.0	1.6008447019450363e+18
14382.0	1.600587101215129e+18
14383.0	1.600310805633433e+18
14384.0	1.600014209620377e+18
14385.0	1.5997669285560315e+18
14386.0	1.59947262263296e+18
14387.0	1.5992244959969275e+18
14388.0	1.598929505563443e+18
14389.0	1.5986597950390267e+18
14390.0	1.5983866116308992e+18
14391.0	1.598118862363033e+18
14392.0	1.5978470613975035e+18
14393.0	1.5975775001903104e+18
14394.0	1.5972549817008123e+18
14395.0	1.5970217968533504e+18
14396.0	1.5967636860960765e+18
14397.0	1.5964947456458747e+18
14398.0	1.5962237214654464e+18
14399.0	1.5959511252598781e+18
14400.0	1.5956536954191867e+18
14401.0	1.595399872918323e+18
14402.0	1.5951272062484477e+18
14403.0	1.594421254553599e+18
14404.0	1.590318342760035e+18
14405.0	1.59180461283737e+18
14406.0	1.594033090173337e+18
14407.0	1.5931813310496765e+18
14408.0	1.5934958870724603e+18
14409.0	1.5932189925441533e+18
14410.0	1.5929606854934525e+18
14411.0	1.592708799083315e+18
14412.0	1.5924365065453565e+18
14413.0	1.5921727418662907e+18
14414.0	1.5918997698510843e+18
14415.0	1.5916314686128125e+18
14416.0	1.591359363979673e+18
14417.0	1.5910826036690941e+18
14418.0	1.5907985503027197e+18
14419.0	1.5905501116104701e+18
14420.0	1.5902756816551939e+18
14421.0	1.590011618341683e+18
14422.0	1.5897317861228541e+18
14423.0	1.5894165472673787e+18
14424.0	1.5867432790917107e+18
14425.0	1.5888691721404413e+18
14426.0	1.5886396044607485e+18
14427.0	1.5883731990478843e+18
14428.0	1.5880753363550203e+18
14429.0	1.587832257983283e+18
14430.0	1.587559720497971e+18
14431.0	1.5868475025129472e+18
14432.0	1.5870199991369725e+18
14433.0	1.5862870109585403e+18
14434.0	1.5864638528815104e+18
14435.0	1.5861676729434107e+18
14436.0	1.585952479982387e+18
14437.0	1.5856873915809787e+18
14438.0	1.585363913434726e+18
14439.0	1.5851372129812475e+18
14440.0	1.5848814611005437e+18
14441.0	1.584598498253209e+18
14442.0	1.584318067087769e+18
14443.0	1.5839916529287168e+18
14444.0	1.5837972133838843e+18
14445.0	1.5835305949003776e+18
14446.0	1.5817222828064778e+18
14447.0	1.5829611795447805e+18
14448.0	1.5827320614944763e+18
14449.0	1.5824662181183485e+18
14450.0	1.5821904224976893e+18
14451.0	1.581925255243366e+18
14452.0	1.5816607070683133e+18
14453.0	1.5813872283811835e+18
14454.0	1.581122393315737e+18
14455.0	1.5808432875503616e+18
14456.0	1.5805804741394432e+18
14457.0	1.5803123272515584e+18
14458.0	1.580044341424947e+18
14459.0	1.5797687873961981e+18
14460.0	1.579487034186137e+18
14461.0	1.5791457638023163e+18
14462.0	1.5787766516285437e+18
14463.0	1.5786550889545723e+18
14464.0	1.5784242965381115e+18
14465.0	1.5781271804313597e+18
14466.0	1.5778790705725435e+18
14467.0	1.5775854827143165e+18
14468.0	1.577344399153561e+18
14469.0	1.577020464667033e+18
14470.0	1.5767673283543037e+18
14471.0	1.5765357188874237e+18
14472.0	1.5762769320083453e+18
14473.0	1.576014444075417e+18
14474.0	1.575752083649331e+18
14475.0	1.5754830190477307e+18
14476.0	1.575188973171507e+18
14477.0	1.5749486210973693e+18
14478.0	1.5746805396406267e+18
14479.0	1.574412308866662e+18
14480.0	1.5741234035294203e+18
14481.0	1.5738835614826493e+18
14482.0	1.5736104233730043e+18
14483.0	1.5733348374675453e+18
14484.0	1.5730624895647741e+18
14485.0	1.5727538709987325e+18
14486.0	1.5721169961353213e+18
14487.0	1.572276874615193e+18
14488.0	1.5720051239813115e+18
14489.0	1.5717078031925243e+18
14490.0	1.5714690315321344e+18
14491.0	1.5712139188633597e+18
14492.0	1.5709496273797115e+18
14493.0	1.5706687214190592e+18
14494.0	1.5703850539286525e+18
14495.0	1.5701435106721792e+18
14496.0	1.569691851240243e+18
14497.0	1.569610985059123e+18
14498.0	1.5693507905716221e+18
14499.0	1.569084650238771e+18
14500.0	1.5688174160314365e+18
14501.0	1.5685255679705085e+18
14502.0	1.5679482203471872e+18
14503.0	1.5679937302233088e+18
14504.0	1.567740874090086e+18
14505.0	1.5674729520168957e+18
14506.0	1.567189292915097e+18
14507.0	1.566598448021504e+18
14508.0	1.5666836746010621e+18
14509.0	1.5664207068397563e+18
14510.0	1.566150959405465e+18
14511.0	1.5658893220773888e+18
14512.0	1.5656030155309053e+18
14513.0	1.5653548133974013e+18
14514.0	1.5650445590527995e+18
14515.0	1.564791682786918e+18
14516.0	1.5606119481212954e+18
14517.0	1.5642107901378557e+18
14518.0	1.5640006538297344e+18
14519.0	1.5637318274646013e+18
14520.0	1.563473891190374e+18
14521.0	1.5632101130895357e+18
14522.0	1.5629425148166141e+18
14523.0	1.5626243181379584e+18
14524.0	1.56238125989888e+18
14525.0	1.5621398995140603e+18
14526.0	1.561878745369805e+18
14527.0	1.5615800538824704e+18
14528.0	1.561142757425152e+18
14529.0	1.5610694024036347e+18
14530.0	1.5607950093582333e+18
14531.0	1.5605523940376573e+18
14532.0	1.5602542796865533e+18
14533.0	1.560023888245555e+18
14534.0	1.5597609641050107e+18
14535.0	1.5594804037550077e+18
14536.0	1.5592246183198715e+18
14537.0	1.5589452004982781e+18
14538.0	1.5586997179514877e+18
14539.0	1.558434820810342e+18
14540.0	1.5581694320967677e+18
14541.0	1.5578727840743421e+18
14542.0	1.5576351482314747e+18
14543.0	1.5573389817151488e+18
14544.0	1.5571033306169341e+18
14545.0	1.5568175659745275e+18
14546.0	1.553041680708401e+18
14547.0	1.5529059228319713e+18
14548.0	1.556007900885811e+18
14549.0	1.5556016406003712e+18
14550.0	1.5555006082056187e+18
14551.0	1.5552527147728893e+18
14552.0	1.5549869703823357e+18
14553.0	1.5547090037899264e+18
14554.0	1.554459526588006e+18
14555.0	1.5541943140351995e+18
14556.0	1.5539281636360187e+18
14557.0	1.5536610032484355e+18
14558.0	1.553374711801446e+18
14559.0	1.5502268665167816e+18
14560.0	1.552840553765273e+18
14561.0	1.5525904927162365e+18
14562.0	1.5522977604960253e+18
14563.0	1.5520653608222715e+18
14564.0	1.551770890482483e+18
14565.0	1.551546981757747e+18
14566.0	1.5512834989359104e+18
14567.0	1.551014311860633e+18
14568.0	1.5507397275549693e+18
14569.0	1.5504794760249341e+18
14570.0	1.5494176493797368e+18
14571.0	1.5499450847854587e+18
14572.0	1.5496152715624443e+18
14573.0	1.54933307375616e+18
14574.0	1.5490858128244733e+18
14575.0	1.5488623151415293e+18
14576.0	1.5485975337631741e+18
14577.0	1.5483409195335675e+18
14578.0	1.5480827299233787e+18
14579.0	1.5478248154595325e+18
14580.0	1.5475550965465085e+18
14581.0	1.547282795619942e+18
14582.0	1.5470177676165115e+18
14583.0	1.5467612775383035e+18
14584.0	1.5464675755950077e+18
14585.0	1.5462311644889085e+18
14586.0	1.545964581237555e+18
14587.0	1.5457040797270013e+18
14588.0	1.5454408166866944e+18
14589.0	1.5451782532562941e+18
14590.0	1.5449154566225915e+18
14591.0	1.5446447797305341e+18
14592.0	1.544373505569587e+18
14593.0	1.5439558552322048e+18
14594.0	1.5438572253347837e+18
14595.0	1.543586956129075e+18
14596.0	1.543080361381068e+18
14597.0	1.5427616093765624e+18
14598.0	1.5427768816762875e+18
14599.0	1.5425470589829115e+18
14600.0	1.5422807273897981e+18
14601.0	1.5420183719968768e+18
14602.0	1.5417451718115325e+18
14603.0	1.5414903594549243e+18
14604.0	1.5411551724896253e+18
14605.0	1.5409134950154237e+18
14606.0	1.5405751589666813e+18
14607.0	1.5404329854828541e+18
14608.0	1.5401646741782528e+18
14609.0	1.5398896385654784e+18
14610.0	1.5395869809442813e+18
14611.0	1.5393478284410877e+18
14612.0	1.5391283740671997e+18
14613.0	1.5388706240200704e+18
14614.0	1.538592118879027e+18
14615.0	1.538336705898086e+18
14616.0	1.5380857170690043e+18
14617.0	1.5377958034210813e+18
14618.0	1.5375292084256765e+18
14619.0	1.5370658737291256e+18
14620.0	1.5364129128710141e+18
14621.0	1.5367662578171901e+18
14622.0	1.5365055130370048e+18
14623.0	1.5362477344686083e+18
14624.0	1.5359038736826365e+18
14625.0	1.535717618063769e+18
14626.0	1.5354481843634179e+18
14627.0	1.5351851377491963e+18
14628.0	1.5349373349134333e+18
14629.0	1.534674144015155e+18
14630.0	1.5343978584997885e+18
14631.0	1.5341388988153853e+18
14632.0	1.5336595989200893e+18
14633.0	1.5335857019944957e+18
14634.0	1.5333528342364157e+18
14635.0	1.5330239706038262e+18
14636.0	1.5325895296286715e+18
14637.0	1.5325529620086781e+18
14638.0	1.5322724419239933e+18
14639.0	1.5319973878562813e+18
14640.0	1.5317499406974973e+18
14641.0	1.5307209604857843e+18
14642.0	1.5312208326033403e+18
14643.0	1.5309704410431485e+18
14644.0	1.5306903454220285e+18
14645.0	1.5304040036433915e+18
14646.0	1.530156504475238e+18
14647.0	1.5298788767825915e+18
