# Flux units: erg / (cm m2 s)
# Wavelength units: Angstrom
wave	flux
14000.0	1.552593631733348e+18
14001.0	1.5525658083983357e+18
14002.0	1.5524028311666685e+18
14003.0	1.5521180983230464e+18
14004.0	1.5518187709792253e+18
14005.0	1.5515256881151997e+18
14006.0	1.5512214551134203e+18
14007.0	1.5509248775553021e+18
14008.0	1.550543702563225e+18
14009.0	1.5503358999658493e+18
14010.0	1.550032754127667e+18
14011.0	1.549101637094604e+18
14012.0	1.5494519587864576e+18
14013.0	1.5491563308187643e+18
14014.0	1.5488553693741053e+18
14015.0	1.5485625432014843e+18
14016.0	1.548267336341913e+18
14017.0	1.5479731478593533e+18
14018.0	1.547673515170201e+18
14019.0	1.5473820831842301e+18
14020.0	1.5470860223643648e+18
14021.0	1.5467898877247485e+18
14022.0	1.5464758098526205e+18
14023.0	1.546133125149491e+18
14024.0	1.5458479175106557e+18
14025.0	1.5456006649675773e+18
14026.0	1.545308043476992e+18
14027.0	1.5450147156656125e+18
14028.0	1.544719775563776e+18
14029.0	1.544424280136089e+18
14030.0	1.539230107749584e+18
14031.0	1.5435066788282358e+18
14032.0	1.5435306199154685e+18
14033.0	1.543156216207769e+18
14034.0	1.5429442914484221e+18
14035.0	1.5426567215775741e+18
14036.0	1.5423512319623163e+18
14037.0	1.5420649891692541e+18
14038.0	1.5417738675617792e+18
14039.0	1.5414761155985405e+18
14040.0	1.5411770667565056e+18
14041.0	1.5408860458123264e+18
14042.0	1.5405782895951867e+18
14043.0	1.540257985698201e+18
14044.0	1.5399895821189115e+18
14045.0	1.5397038812299264e+18
14046.0	1.5394134256779264e+18
14047.0	1.5390986834280443e+18
14048.0	1.538818094556774e+18
14049.0	1.5385355830165504e+18
14050.0	1.5382421125988347e+18
14051.0	1.537940709913395e+18
14052.0	1.5376548630626301e+18
14053.0	1.5373618808619005e+18
14054.0	1.5370686822350848e+18
14055.0	1.5367754919968768e+18
14056.0	1.5364823269244925e+18
14057.0	1.5361892826480637e+18
14058.0	1.5358961846845437e+18
14059.0	1.535594894406451e+18
14060.0	1.5353097387769853e+18
14061.0	1.5350080760446973e+18
14062.0	1.5347196840902653e+18
14063.0	1.5344091998978043e+18
14064.0	1.5330797464584195e+18
14065.0	1.5338331223097341e+18
14066.0	1.5335484448309243e+18
14067.0	1.5331924625063933e+18
14068.0	1.5329644718850048e+18
14069.0	1.5326616313921533e+18
14070.0	1.532376495895347e+18
14071.0	1.5320848575496187e+18
14072.0	1.5317956820991997e+18
14073.0	1.531503644455731e+18
14074.0	1.531211704120115e+18
14075.0	1.5309003005362173e+18
14076.0	1.530553126250086e+18
14077.0	1.5291514687062016e+18
14078.0	1.5299548272394237e+18
14079.0	1.5297436272558075e+18
14080.0	1.5294612365115392e+18
14081.0	1.529169734061261e+18
14082.0	1.5288733175644152e+18
14083.0	1.5285839357542397e+18
14084.0	1.5282904384929792e+18
14085.0	1.527194018906112e+18
14086.0	1.527614096906649e+18
14087.0	1.5274140571271163e+18
14088.0	1.5270970533085181e+18
14089.0	1.5267845608833021e+18
14090.0	1.5265231030714365e+18
14091.0	1.526252786889523e+18
14092.0	1.525962015925862e+18
14093.0	1.5256712634171392e+18
14094.0	1.5253805595623421e+18
14095.0	1.5250899093946365e+18
14096.0	1.5245827224109053e+18
14097.0	1.5244588847464448e+18
14098.0	1.524117814011494e+18
14099.0	1.5239275754815485e+18
14100.0	1.523621188285235e+18
14101.0	1.5233477146312701e+18
14102.0	1.523057344643072e+18
14103.0	1.5227512611143675e+18
14104.0	1.5224773780963325e+18
14105.0	1.5221868470468603e+18
14106.0	1.5218973259857915e+18
14107.0	1.5216028069920763e+18
14108.0	1.5212977015750656e+18
14109.0	1.521017166390886e+18
14110.0	1.5207230450171901e+18
14111.0	1.5204300275843072e+18
14112.0	1.5201440179945472e+18
14113.0	1.5198267742617595e+18
14114.0	1.5195604560904192e+18
14115.0	1.5192779378393088e+18
14116.0	1.5188202117660667e+18
14117.0	1.5100290629894147e+18
14118.0	1.5184160620543997e+18
14119.0	1.5179937140965373e+18
14120.0	1.5177326807482365e+18
14121.0	1.5175328154517504e+18
14122.0	1.5170388254261243e+18
14123.0	1.5168422971179005e+18
14124.0	1.5165222683672576e+18
14125.0	1.5159534150483963e+18
14126.0	1.516078294577971e+18
14127.0	1.5158181017681915e+18
14128.0	1.5155283709919232e+18
14129.0	1.5152301039681536e+18
14130.0	1.514763217534976e+18
14131.0	1.5142190686666747e+18
14132.0	1.513928738943795e+18
14133.0	1.513228395872256e+18
14134.0	1.513355557103206e+18
14135.0	1.5130110956929021e+18
14136.0	1.5125138290769923e+18
14137.0	1.5124677336760315e+18
14138.0	1.5121071258730493e+18
14139.0	1.5119125957312507e+18
14140.0	1.5116152967528448e+18
14141.0	1.5111540675969027e+18
14142.0	1.5103150407024637e+18
14143.0	1.5106127658221563e+18
14144.0	1.510333032588902e+18
14145.0	1.5100443688435707e+18
14146.0	1.5097435567161341e+18
14147.0	1.509461612245811e+18
14148.0	1.5091547166998523e+18
14149.0	1.5088744952496125e+18
14150.0	1.508613216953958e+18
14151.0	1.5082846888656893e+18
14152.0	1.5080408521637883e+18
14153.0	1.507753840974233e+18
14154.0	1.5074449204183035e+18
14155.0	1.5056157022355456e+18
14156.0	1.5064785695539187e+18
14157.0	1.5066050831843325e+18
14158.0	1.5063130891616253e+18
14159.0	1.5060327989247997e+18
14160.0	1.5057350838714363e+18
14161.0	1.505410493395763e+18
14162.0	1.5050745732661248e+18
14163.0	1.5048835227189248e+18
14164.0	1.5043420598829053e+18
14165.0	1.5042114257682432e+18
14166.0	1.5040248815812603e+18
14167.0	1.503729949868032e+18
14168.0	1.5034225543610365e+18
14169.0	1.503160740872192e+18
14170.0	1.502859604944486e+18
14171.0	1.502588283807334e+18
14172.0	1.502308184830771e+18
14173.0	1.5019669513568256e+18
14174.0	1.5017228579635195e+18
14175.0	1.5014494145085437e+18
14176.0	1.5011604638728192e+18
14177.0	1.5008774808928253e+18
14178.0	1.500592952731238e+18
14179.0	1.5002981032263677e+18
14180.0	1.5000243745587197e+18
14181.0	1.4997390662565885e+18
14182.0	1.4994531053207547e+18
14183.0	1.4991687365427195e+18
14184.0	1.498878878259609e+18
14185.0	1.4985982944215035e+18
14186.0	1.4968317928275968e+18
14187.0	1.498002810627686e+18
14188.0	1.4977429114191872e+18
14189.0	1.4974453154840576e+18
14190.0	1.497162501953945e+18
14191.0	1.496871192441651e+18
14192.0	1.496597069509427e+18
14193.0	1.4960667987542016e+18
14194.0	1.4960221562601472e+18
14195.0	1.495752199110656e+18
14196.0	1.4954676977926141e+18
14197.0	1.495183429677875e+18
14198.0	1.4948948045201405e+18
14199.0	1.4946119154925565e+18
14200.0	1.4934103447044093e+18
14201.0	1.4939315389857784e+18
14202.0	1.4937596111093757e+18
14203.0	1.4934663269187581e+18
14204.0	1.4931859913834493e+18
14205.0	1.4929035519852541e+18
14206.0	1.4925042408226813e+18
14207.0	1.492338725198233e+18
14208.0	1.492055597934182e+18
14209.0	1.4916523458035707e+18
14210.0	1.4913947954053115e+18
14211.0	1.4912011292901376e+18
14212.0	1.490921186341683e+18
14213.0	1.4906235350417403e+18
14214.0	1.4903542020046845e+18
14215.0	1.490054341145395e+18
14216.0	1.4897885699112957e+18
14217.0	1.4895061036695555e+18
14218.0	1.4892136298184704e+18
14219.0	1.4889405185523707e+18
14220.0	1.4886475615174653e+18
14221.0	1.4883553745567741e+18
14222.0	1.4879842491170813e+18
14223.0	1.4878000872947712e+18
14224.0	1.4875266572615677e+18
14225.0	1.4841562202636306e+18
14226.0	1.4869031790051325e+18
14227.0	1.4866777284542464e+18
14228.0	1.478715496621672e+18
14229.0	1.483629393870844e+18
14230.0	1.4858316064751613e+18
14231.0	1.4854390967959547e+18
14232.0	1.4852678131646464e+18
14233.0	1.484981216372326e+18
14234.0	1.4847042564128763e+18
14235.0	1.4844198675021821e+18
14236.0	1.4841403355955195e+18
14237.0	1.483854527332352e+18
14238.0	1.4835735861395453e+18
14239.0	1.4832725458419707e+18
14240.0	1.4813432968642557e+18
14241.0	1.4827120643538944e+18
14242.0	1.4824384699039741e+18
14243.0	1.4820225828519936e+18
14244.0	1.4818846858805248e+18
14245.0	1.4815815870185467e+18
14246.0	1.481296152887296e+18
14247.0	1.4810343209435136e+18
14248.0	1.4807394731163648e+18
14249.0	1.4804740760141821e+18
14250.0	1.4801929284616192e+18
14251.0	1.4799142203162627e+18
14252.0	1.4796331801378813e+18
14253.0	1.4793513380085757e+18
14254.0	1.4790692274438144e+18
14255.0	1.4787561562046456e+18
14256.0	1.4757242750369807e+18
14257.0	1.4779358157733873e+18
14258.0	1.477948521159065e+18
14259.0	1.47765107621888e+18
14260.0	1.4772915220250621e+18
14261.0	1.4770911701893115e+18
14262.0	1.476839993455411e+18
14263.0	1.4725742839463956e+18
14264.0	1.4751843842260977e+18
14265.0	1.4759883215732736e+18
14266.0	1.4757194532651005e+18
14267.0	1.475441402786611e+18
14268.0	1.475157867836211e+18
14269.0	1.4748762035453955e+18
14270.0	1.474601594073907e+18
14271.0	1.4743202670051328e+18
14272.0	1.4740414581964795e+18
14273.0	1.4737593006555136e+18
14274.0	1.4670290432819213e+18
14275.0	1.4726181681102848e+18
14276.0	1.4729057128153085e+18
14277.0	1.4726262547283965e+18
14278.0	1.4723642181025792e+18
14279.0	1.4720834698477565e+18
14280.0	1.4717999265087488e+18
14281.0	1.4715268538302464e+18
14282.0	1.4712479561023488e+18
14283.0	1.4709688352374781e+18
14284.0	1.4706897244389373e+18
14285.0	1.4704099593289725e+18
14286.0	1.4701179149746176e+18
14287.0	1.4698527846301693e+18
14288.0	1.4695739925987325e+18
14289.0	1.4682268526182392e+18
14290.0	1.4690144892223485e+18
14291.0	1.4687370578231293e+18
14292.0	1.4684594099978235e+18
14293.0	1.4681753012666365e+18
14294.0	1.4677651167903741e+18
14295.0	1.4676054866132984e+18
14296.0	1.466492861913498e+18
14297.0	1.4670487766433792e+18
14298.0	1.4658683619246077e+18
14299.0	1.4664761568395264e+18
14300.0	1.4662227319586813e+18
14301.0	1.465948199662387e+18
14302.0	1.4656712766128125e+18
14303.0	1.4653622704930813e+18
14304.0	1.4650999855644672e+18
14305.0	1.4648371117555712e+18
14306.0	1.4644968966586363e+18
14307.0	1.464238121523609e+18
14308.0	1.4639965430349821e+18
14309.0	1.4637107247054845e+18
14310.0	1.4632439959781376e+18
14311.0	1.461721059295232e+18
14312.0	1.462723350311731e+18
14313.0	1.4624634796244987e+18
14314.0	1.4622972442574845e+18
14315.0	1.4620560835215357e+18
14316.0	1.4617360816144381e+18
14317.0	1.4613931888738301e+18
14318.0	1.461233177853952e+18
14319.0	1.460957098698342e+18
14320.0	1.4606796001902587e+18
14321.0	1.460401257788211e+18
14322.0	1.4600924764831741e+18
14323.0	1.4598294533570557e+18
14324.0	1.4595703007346688e+18
14325.0	1.459288861258547e+18
14326.0	1.4590203570159616e+18
14327.0	1.4587380954562552e+18
14328.0	1.458460868739072e+18
14329.0	1.4581910156083197e+18
14330.0	1.4579142016106493e+18
14331.0	1.4576276467613693e+18
14332.0	1.457361998000947e+18
14333.0	1.4570858097934336e+18
14334.0	1.4568096685621245e+18
14335.0	1.4565152317767677e+18
14336.0	1.4559401524330499e+18
14337.0	1.455980944556032e+18
14338.0	1.455703511479091e+18
14339.0	1.4554142739529728e+18
14340.0	1.4551512927698941e+18
14341.0	1.4548567586766845e+18
14342.0	1.4546010688716797e+18
14343.0	1.4543224664227837e+18
14344.0	1.4540439596040192e+18
14345.0	1.4537759066685437e+18
14346.0	1.4534943648514045e+18
14347.0	1.4530692486529021e+18
14348.0	1.452945538495283e+18
14349.0	1.4526706119344123e+18
14350.0	1.4521487297871867e+18
14351.0	1.4518562072821757e+18
14352.0	1.451836888317952e+18
14353.0	1.4515676307783677e+18
14354.0	1.4512646996885501e+18
14355.0	1.4509360088612864e+18
14356.0	1.450676678400409e+18
14357.0	1.4504697817726973e+18
14358.0	1.4501950447943677e+18
14359.0	1.4499095804641277e+18
14360.0	1.4496268709527547e+18
14361.0	1.4493618110726141e+18
14362.0	1.4490974424137725e+18
14363.0	1.448822604772147e+18
14364.0	1.4478697897656315e+18
14365.0	1.448070911675596e+18
14366.0	1.4478513532829693e+18
14367.0	1.4477265156964347e+18
14368.0	1.447451763618611e+18
14369.0	1.4471780718608381e+18
14370.0	1.4469044841218048e+18
14371.0	1.446321074890342e+18
14372.0	1.4458222328938493e+18
14373.0	1.4455490276753403e+18
14374.0	1.4452821038465021e+18
14375.0	1.4450066253152253e+18
14376.0	1.4447353947750397e+18
14377.0	1.4444609262321664e+18
14378.0	1.4441851037679613e+18
14379.0	1.4439139537584128e+18
14380.0	1.4436374400729085e+18
14381.0	1.4433574115606525e+18
14382.0	1.4430913517584381e+18
14383.0	1.442812561404723e+18
14384.0	1.4425292059705341e+18
14385.0	1.442272145466982e+18
14386.0	1.4419866190610432e+18
14387.0	1.4417255857127421e+18
14388.0	1.4414505517776893e+18
14389.0	1.4411787558453248e+18
14390.0	1.4409042604589053e+18
14391.0	1.4406285403357181e+18
14392.0	1.440356912175513e+18
14393.0	1.4400871781629947e+18
14394.0	1.4397802222190587e+18
14395.0	1.4395109764235264e+18
14396.0	1.4392675172089853e+18
14397.0	1.438996248081203e+18
14398.0	1.4387224170725376e+18
14399.0	1.4384500221935613e+18
14400.0	1.438150953218867e+18
14401.0	1.4378980551426048e+18
14402.0	1.4376318191796221e+18
14403.0	1.4351128326045678e+18
14404.0	1.430738893275135e+18
14405.0	1.4348418403008492e+18
14406.0	1.4365431003348992e+18
14407.0	1.433301656639898e+18
14408.0	1.435880113412505e+18
14409.0	1.4357056353992701e+18
14410.0	1.4353974110978045e+18
14411.0	1.4351761246519293e+18
14412.0	1.434906254743961e+18
14413.0	1.4346342004424701e+18
14414.0	1.4343598510178301e+18
14415.0	1.4340891355381757e+18
14416.0	1.4337861054627837e+18
14417.0	1.4334750357454848e+18
14418.0	1.4331672946278397e+18
14419.0	1.4330014182932475e+18
14420.0	1.4327261209559037e+18
14421.0	1.4324594521407485e+18
14422.0	1.4321839551545344e+18
14423.0	1.4318921490366464e+18
14424.0	1.4195600161505242e+18
14425.0	1.4313595210825725e+18
14426.0	1.431103158511206e+18
14427.0	1.4308308961722365e+18
14428.0	1.4305431333634048e+18
14429.0	1.4302830865154045e+18
14430.0	1.4300157516447741e+18
14431.0	1.4283769196314621e+18
14432.0	1.4294674353160187e+18
14433.0	1.426953148039167e+18
14434.0	1.4289165319405565e+18
14435.0	1.4284924659957757e+18
14436.0	1.4283931834646525e+18
14437.0	1.4281229931118587e+18
14438.0	1.4276814100758528e+18
14439.0	1.4275465816571901e+18
14440.0	1.4273105748819965e+18
14441.0	1.4270282848010237e+18
14442.0	1.4267534488371197e+18
14443.0	1.4264421257838587e+18
14444.0	1.4262225724243965e+18
14445.0	1.4259591063797757e+18
14446.0	1.4227454793089032e+18
14447.0	1.4253804383895547e+18
14448.0	1.425148724903936e+18
14449.0	1.4248766219485181e+18
14450.0	1.4246042606239741e+18
14451.0	1.4243366053085181e+18
14452.0	1.4240655425404925e+18
14453.0	1.4237651531988987e+18
14454.0	1.4235243800166397e+18
14455.0	1.423251552285491e+18
14456.0	1.4229683998556157e+18
14457.0	1.422706477314867e+18
14458.0	1.4224400098263037e+18
14459.0	1.4221717522087936e+18
14460.0	1.421896605866393e+18
14461.0	1.421520502626713e+18
14462.0	1.4200926709481472e+18
14463.0	1.4210607246999547e+18
14464.0	1.420823145899622e+18
14465.0	1.4205335610851323e+18
14466.0	1.4202923131076608e+18
14467.0	1.4199849729654781e+18
14468.0	1.4197476491788285e+18
14469.0	1.4193593656803323e+18
14470.0	1.419183225044992e+18
14471.0	1.4189348199071741e+18
14472.0	1.4186698271358973e+18
14473.0	1.4184056530927613e+18
14474.0	1.4181402023034877e+18
14475.0	1.4178634755473403e+18
14476.0	1.4174588007088128e+18
14477.0	1.417328498783027e+18
14478.0	1.417064031138611e+18
14479.0	1.416787960371609e+18
14480.0	1.416510047466291e+18
14481.0	1.4162615450206203e+18
14482.0	1.4159884320767997e+18
14483.0	1.4157149701668864e+18
14484.0	1.4154431020924925e+18
14485.0	1.415155646306713e+18
14486.0	1.4146164198735872e+18
14487.0	1.4146313029419003e+18
14488.0	1.414272507078246e+18
14489.0	1.413982199165747e+18
14490.0	1.4138157305954301e+18
14491.0	1.4135719022821373e+18
14492.0	1.4133017454837757e+18
14493.0	1.413019403393433e+18
14494.0	1.4127426246279163e+18
14495.0	1.4125025074348032e+18
14496.0	1.4121000840986621e+18
14497.0	1.411966087829913e+18
14498.0	1.4116996824170493e+18
14499.0	1.4114324163330048e+18
14500.0	1.4111644674162685e+18
14501.0	1.4108338975408125e+18
14502.0	1.4102986523410432e+18
14503.0	1.4103068262006781e+18
14504.0	1.4100874657791997e+18
14505.0	1.4097655730798587e+18
14506.0	1.4094459234942973e+18
14507.0	1.4090414533378048e+18
14508.0	1.4090246761218045e+18
14509.0	1.4087573915828221e+18
14510.0	1.4084868170317821e+18
14511.0	1.4082221161840637e+18
14512.0	1.4079401297707008e+18
14513.0	1.4076880386785277e+18
14514.0	1.407382615333273e+18
14515.0	1.4071526030573565e+18
14516.0	1.4041540959666184e+18
14517.0	1.4066126879195133e+18
14518.0	1.4063530814734333e+18
14519.0	1.4060840336490493e+18
14520.0	1.4058182456377341e+18
14521.0	1.405549912522752e+18
14522.0	1.4052729609519101e+18
14523.0	1.4047656959541245e+18
14524.0	1.404615357838131e+18
14525.0	1.4044797526343677e+18
14526.0	1.4042122508304381e+18
14527.0	1.4039094749298683e+18
14528.0	1.4035320353849344e+18
14529.0	1.4034064210132992e+18
14530.0	1.403135685400985e+18
14531.0	1.4028831857836032e+18
14532.0	1.4024231947862013e+18
14533.0	1.4023478030106621e+18
14534.0	1.402086976860979e+18
14535.0	1.401810187190272e+18
14536.0	1.4015539034718205e+18
14537.0	1.401275651666739e+18
14538.0	1.4010218325213181e+18
14539.0	1.4007557962072064e+18
14540.0	1.4004896357416957e+18
14541.0	1.4002045321215997e+18
14542.0	1.3999571587825661e+18
14543.0	1.3995996841246717e+18
14544.0	1.3994246574964733e+18
14545.0	1.3991458855976957e+18
14546.0	1.3820411875688404e+18
14547.0	1.383064585161927e+18
14548.0	1.3983475417743357e+18
14549.0	1.397972683404083e+18
14550.0	1.3978222370750461e+18
14551.0	1.3975640885690365e+18
14552.0	1.397295437525811e+18
14553.0	1.3970234964705277e+18
14554.0	1.3965756026847235e+18
14555.0	1.3958826390716413e+18
14556.0	1.3956142656913408e+18
14557.0	1.395351545393971e+18
14558.0	1.3950850737111037e+18
14559.0	1.392903630461336e+18
14560.0	1.3944841733931005e+18
14561.0	1.3942811464302587e+18
14562.0	1.3939728449535997e+18
14563.0	1.3937460421591037e+18
14564.0	1.3933705395437565e+18
14565.0	1.3932263477608445e+18
14566.0	1.3929607954694141e+18
14567.0	1.392688963466035e+18
14568.0	1.3922695456489472e+18
14569.0	1.3921588839710717e+18
14570.0	1.3912326440747003e+18
14571.0	1.3916289588264957e+18
14572.0	1.3912504858050557e+18
14573.0	1.3910350210531325e+18
14574.0	1.3905456061743101e+18
14575.0	1.3905326893957117e+18
14576.0	1.3902706678693885e+18
14577.0	1.3900343498768381e+18
14578.0	1.389764370916966e+18
14579.0	1.3895081987670013e+18
14580.0	1.3892415408570365e+18
14581.0	1.388958610725273e+18
14582.0	1.3886904386715645e+18
14583.0	1.388441295336243e+18
14584.0	1.3881199671902208e+18
14585.0	1.3879105707573245e+18
14586.0	1.3876454102138877e+18
14587.0	1.3873811069861885e+18
14588.0	1.3871182457602045e+18
14589.0	1.3868613807112187e+18
14590.0	1.386604840301363e+18
14591.0	1.386333113155584e+18
14592.0	1.3860804466049021e+18
14593.0	1.3857122320121853e+18
14594.0	1.3855744860356605e+18
14595.0	1.3853120920551421e+18
14596.0	1.384304442395852e+18
14597.0	1.3839183332245496e+18
14598.0	1.3844614318391293e+18
14599.0	1.3842876442083325e+18
14600.0	1.384007981439385e+18
14601.0	1.383768148620083e+18
14602.0	1.383435016024883e+18
14603.0	1.3832538355138557e+18
14604.0	1.3828855521345536e+18
14605.0	1.382553331381043e+18
14606.0	1.3823905672200192e+18
14607.0	1.3822054566461437e+18
14608.0	1.3819640182472701e+18
14609.0	1.381692983161651e+18
14610.0	1.3810903162028032e+18
14611.0	1.3811668849000445e+18
14612.0	1.3809401752190973e+18
14613.0	1.3806854417154045e+18
14614.0	1.380422096466739e+18
14615.0	1.380155774101094e+18
14616.0	1.379913965764608e+18
14617.0	1.3796508000321533e+18
14618.0	1.3793367540367357e+18
14619.0	1.3785098310647798e+18
14620.0	1.3772649087893504e+18
14621.0	1.378628297503539e+18
14622.0	1.3783683169255421e+18
14623.0	1.3781138250137597e+18
14624.0	1.3777972850851837e+18
14625.0	1.3775963317862397e+18
14626.0	1.3773351306657787e+18
14627.0	1.3770726930644992e+18
14628.0	1.3768263582351355e+18
14629.0	1.3765685008138237e+18
14630.0	1.376291201954611e+18
14631.0	1.376050436322099e+18
14632.0	1.374845842279629e+18
14633.0	1.3753143728799736e+18
14634.0	1.3752533038137341e+18
14635.0	1.3719844385980375e+18
14636.0	1.3693911130177526e+18
14637.0	1.3745072101130237e+18
14638.0	1.3742082082471933e+18
14639.0	1.3739418263224317e+18
14640.0	1.3737285308645373e+18
14641.0	1.3696036727947249e+18
14642.0	1.3732078667431933e+18
14643.0	1.3729488013623293e+18
14644.0	1.3726749435101181e+18
14645.0	1.3724053403598845e+18
14646.0	1.372099288707891e+18
