# Flux units: erg / (cm m2 s)
# Wavelength units: Angstrom
wave	flux
14000.0	1.1312540977987583e+18
14001.0	1.1309773249052672e+18
14002.0	1.1309648367845373e+18
14003.0	1.1308205460160511e+18
14004.0	1.1306751798280191e+18
14005.0	1.1305298304172031e+18
14006.0	1.1303822538309631e+18
14007.0	1.1302366418567165e+18
14008.0	1.130056062808883e+18
14009.0	1.1299483077836797e+18
14010.0	1.1298032880451584e+18
14011.0	1.1294773134491647e+18
14012.0	1.1295127913889788e+18
14013.0	1.1293682464456701e+18
14014.0	1.1292232443232252e+18
14015.0	1.1290778210926591e+18
14016.0	1.1289333004763133e+18
14017.0	1.1287883814010877e+18
14018.0	1.1286255056715775e+18
14019.0	1.1284985860325375e+18
14020.0	1.1283536375971837e+18
14021.0	1.1282087260717055e+18
14022.0	1.1280639881904125e+18
14023.0	1.127919316579123e+18
14024.0	1.1277731081748477e+18
14025.0	1.1276300740198397e+18
14026.0	1.1274851549446141e+18
14027.0	1.1273408901808125e+18
14028.0	1.1271963267825661e+18
14029.0	1.127051716408115e+18
14030.0	1.1268441319145472e+18
14031.0	1.1267589825101821e+18
14032.0	1.1266181436538877e+18
14033.0	1.1264669800988668e+18
14034.0	1.1263296376143872e+18
14035.0	1.1261854047272957e+18
14036.0	1.1260343711956991e+18
14037.0	1.1258949382701052e+18
14038.0	1.125752655734374e+18
14039.0	1.1256084723400701e+18
14040.0	1.1254643233390591e+18
14041.0	1.1253201953095677e+18
14042.0	1.1251739701280765e+18
14043.0	1.1250219131863039e+18
14044.0	1.1248739557572605e+18
14045.0	1.124732437423718e+18
14046.0	1.1246001356537852e+18
14047.0	1.1244560319512575e+18
14048.0	1.1243122730205183e+18
14049.0	1.1241684964737023e+18
14050.0	1.124024686372454e+18
14051.0	1.1238791540899839e+18
14052.0	1.1237371290845184e+18
14053.0	1.1235934532009983e+18
14054.0	1.123449773962035e+18
14055.0	1.1233061375049728e+18
14056.0	1.1231625178251261e+18
14057.0	1.1230189501546495e+18
14058.0	1.1228753296359421e+18
14059.0	1.1227154285068284e+18
14060.0	1.1225884165931005e+18
14061.0	1.1224430126563327e+18
14062.0	1.1223015438155775e+18
14063.0	1.1221552959848445e+18
14064.0	1.121994581999616e+18
14065.0	1.1218692486463485e+18
14066.0	1.1217282621505533e+18
14067.0	1.1215850308632573e+18
14068.0	1.1214418197086205e+18
14069.0	1.121298430715494e+18
14070.0	1.1211554821242876e+18
14071.0	1.1210115646488575e+18
14072.0	1.1208693097955324e+18
14073.0	1.1207262706073597e+18
14074.0	1.1205832800731133e+18
14075.0	1.1204374592225277e+18
14076.0	1.1202973342367741e+18
14077.0	1.1201404588785661e+18
14078.0	1.1200107433164797e+18
14079.0	1.1198676110147583e+18
14080.0	1.1197202869256191e+18
14081.0	1.1195821794000895e+18
14082.0	1.1194403557212157e+18
14083.0	1.1192973593149437e+18
14084.0	1.1191548628697087e+18
14085.0	1.1189613074841597e+18
14086.0	1.1188629720268797e+18
14087.0	1.1187155867009021e+18
14088.0	1.1185825953873919e+18
14089.0	1.1184421516345343e+18
14090.0	1.1182995209715711e+18
14091.0	1.1181572434690045e+18
14092.0	1.1180148409761788e+18
14093.0	1.1178724644880383e+18
14094.0	1.1177301198766079e+18
14095.0	1.117587793720115e+18
14096.0	1.1174431422414848e+18
14097.0	1.1173009066819583e+18
14098.0	1.1171601601003516e+18
14099.0	1.1170188749701119e+18
14100.0	1.1168733217161213e+18
14101.0	1.1167346378932221e+18
14102.0	1.1165925155799039e+18
14103.0	1.1164452871208959e+18
14104.0	1.1163084991234045e+18
14105.0	1.1161665101889532e+18
14106.0	1.1160245464203261e+18
14107.0	1.1158684654632957e+18
14108.0	1.1157407388401661e+18
14109.0	1.1155979311775741e+18
14110.0	1.1154569505538047e+18
14111.0	1.1153146126532605e+18
14112.0	1.1151730708316157e+18
14113.0	1.115031759696691e+18
14114.0	1.1148879571451901e+18
14115.0	1.1147479722491901e+18
14116.0	1.1146059094949885e+18
14117.0	1.1143520081412095e+18
14118.0	1.1143233618837501e+18
14119.0	1.114180915770163e+18
14120.0	1.1140396147015677e+18
14121.0	1.1138990157594623e+18
14122.0	1.1137552752836604e+18
14123.0	1.1136158155145215e+18
14124.0	1.1134739213713404e+18
14125.0	1.1132362184196092e+18
14126.0	1.1131920784031743e+18
14127.0	1.1130511019737084e+18
14128.0	1.1129095911899133e+18
14129.0	1.1127666652479487e+18
14130.0	1.1126228383694847e+18
14131.0	1.1124836428414975e+18
14132.0	1.1123448390615037e+18
14133.0	1.1120899772121085e+18
14134.0	1.1120492807192575e+18
14135.0	1.1119197639671805e+18
14136.0	1.1117809299881983e+18
14137.0	1.1116401641127933e+18
14138.0	1.1114985283387391e+18
14139.0	1.1113584419405824e+18
14140.0	1.11121760560087e+18
14141.0	1.1110763859017727e+18
14142.0	1.1109301984690173e+18
14143.0	1.1107952928751613e+18
14144.0	1.1106546217910268e+18
14145.0	1.110513147917107e+18
14146.0	1.1103730246090751e+18
14147.0	1.1102325800173565e+18
14148.0	1.1100920607670272e+18
14149.0	1.1099516488908796e+18
14150.0	1.1098111321571327e+18
14151.0	1.1096700684861439e+18
14152.0	1.1095301859311613e+18
14153.0	1.1093897413394432e+18
14154.0	1.1092452224008191e+18
14155.0	1.109100434187878e+18
14156.0	1.1089677373145084e+18
14157.0	1.1088283857584128e+18
14158.0	1.1086873573195775e+18
14159.0	1.1085478824509437e+18
14160.0	1.1084062626152447e+18
14161.0	1.1082553784008703e+18
14162.0	1.1081059521265661e+18
14163.0	1.1079757919682557e+18
14164.0	1.1078446654423039e+18
14165.0	1.1077045412954111e+18
14166.0	1.1075671426072575e+18
14167.0	1.1074248617492476e+18
14168.0	1.1072870251757565e+18
14169.0	1.107147369952051e+18
14170.0	1.1070067039010813e+18
14171.0	1.1068667567538175e+18
14172.0	1.1067278078509056e+18
14173.0	1.106584321549926e+18
14174.0	1.1064473104154621e+18
14175.0	1.1063085703888893e+18
14176.0	1.1061688916770813e+18
14177.0	1.1060292423254013e+18
14178.0	1.1058895996846077e+18
14179.0	1.1057491425099775e+18
14180.0	1.1056104645591037e+18
14181.0	1.1054709360033792e+18
14182.0	1.1053312304480252e+18
14183.0	1.1051919636168703e+18
14184.0	1.1050514988924924e+18
14185.0	1.1049130499506175e+18
14186.0	1.1047454229135356e+18
14187.0	1.1046292968964093e+18
14188.0	1.104492169999155e+18
14189.0	1.1043547620835324e+18
14190.0	1.1042163953500159e+18
14191.0	1.104077160395571e+18
14192.0	1.1039365153161213e+18
14193.0	1.1037963391598591e+18
14194.0	1.1036596165935103e+18
14195.0	1.1035208312684541e+18
14196.0	1.1033817137545213e+18
14197.0	1.1032426885152767e+18
14198.0	1.1031023445868541e+18
14199.0	1.1029643670847485e+18
14200.0	1.1028133150982143e+18
14201.0	1.1026863107342336e+18
14202.0	1.102548063957811e+18
14203.0	1.102408263611187e+18
14204.0	1.102269830607667e+18
14205.0	1.1021309890789375e+18
14206.0	1.1019677635444732e+18
14207.0	1.1018539385225213e+18
14208.0	1.1017154157608957e+18
14209.0	1.1015496375730173e+18
14210.0	1.1014185773170687e+18
14211.0	1.1012994053963773e+18
14212.0	1.1011609010896892e+18
14213.0	1.1010225880432639e+18
14214.0	1.1008837876187133e+18
14215.0	1.1007416476893183e+18
14216.0	1.1006072479285245e+18
14217.0	1.1004688518348797e+18
14218.0	1.1003304221868031e+18
14219.0	1.1001920873299967e+18
14220.0	1.1000538229374976e+18
14221.0	1.099915441943347e+18
14222.0	1.0997772203327485e+18
14223.0	1.099639016338227e+18
14224.0	1.0995007972442111e+18
14225.0	1.0993163166547967e+18
14226.0	1.0992241795399679e+18
14227.0	1.0990798719942655e+18
14228.0	1.0987715654844413e+18
14229.0	1.0987793341743101e+18
14230.0	1.0986723299295231e+18
14231.0	1.0985344388300797e+18
14232.0	1.0983965217259519e+18
14233.0	1.098258616365875e+18
14234.0	1.098120736171622e+18
14235.0	1.0979822578696188e+18
14236.0	1.0978450554748927e+18
14237.0	1.0977068967788541e+18
14238.0	1.0975692590153727e+18
14239.0	1.0974297791135741e+18
14240.0	1.0967863678468095e+18
14241.0	1.0971547711832061e+18
14242.0	1.097018289369907e+18
14243.0	1.0968488025784319e+18
14244.0	1.0967435423252477e+18
14245.0	1.096605523718963e+18
14246.0	1.0964675898376188e+18
14247.0	1.0963311390621693e+18
14248.0	1.0961876712161277e+18
14249.0	1.0960558308196348e+18
14250.0	1.0959184312926205e+18
14251.0	1.0957815669587965e+18
14252.0	1.0956442194411519e+18
14253.0	1.0955067611938815e+18
14254.0	1.0953690663878652e+18
14255.0	1.0952226524626943e+18
14256.0	1.095055708258304e+18
14257.0	1.0949530417627133e+18
14258.0	1.0948208515612668e+18
14259.0	1.0946812550578173e+18
14260.0	1.0945417097248765e+18
14261.0	1.0944073208692732e+18
14262.0	1.0942894777040895e+18
14263.0	1.0940941087014911e+18
14264.0	1.0940024396709885e+18
14265.0	1.0938786900869119e+18
14266.0	1.0937418718904316e+18
14267.0	1.0936050671157247e+18
14268.0	1.0934682338197503e+18
14269.0	1.0933307730558975e+18
14270.0	1.0931946293035004e+18
14271.0	1.0930578555666431e+18
14272.0	1.092921091896115e+18
14273.0	1.0927838593023997e+18
14274.0	1.0925591796645887e+18
14275.0	1.0925023367790592e+18
14276.0	1.0923743165546495e+18
14277.0	1.0922372198563839e+18
14278.0	1.0921013906767868e+18
14279.0	1.0919646798544893e+18
14280.0	1.0918269137453055e+18
14281.0	1.0916919863410687e+18
14282.0	1.091555648811827e+18
14283.0	1.0914192592732157e+18
14284.0	1.0912828898672637e+18
14285.0	1.0911465246556156e+18
14286.0	1.0910096032792573e+18
14287.0	1.0908733227925503e+18
14288.0	1.0907364139991039e+18
14289.0	1.0902766578827258e+18
14290.0	1.0904640501579775e+18
14291.0	1.0903282805374973e+18
14292.0	1.0901923985096703e+18
14293.0	1.0900556893650941e+18
14294.0	1.089890988274483e+18
14295.0	1.0897815102291964e+18
14296.0	1.089389937557504e+18
14297.0	1.0895104650772479e+18
14298.0	1.089330633454387e+18
14299.0	1.0892395147165693e+18
14300.0	1.0891045738905597e+18
14301.0	1.0889687447109628e+18
14302.0	1.088832055699046e+18
14303.0	1.0886907361755133e+18
14304.0	1.0885571979247613e+18
14305.0	1.0884246461743101e+18
14306.0	1.0882886542557181e+18
14307.0	1.088152859469414e+18
14308.0	1.0880179161268223e+18
14309.0	1.0878820861083647e+18
14310.0	1.0877439265734655e+18
14311.0	1.0875979161403388e+18
14312.0	1.087464646325043e+18
14313.0	1.0872241197678588e+18
14314.0	1.0872042530275328e+18
14315.0	1.0870690269888511e+18
14316.0	1.0869226852057087e+18
14317.0	1.0867973602410493e+18
14318.0	1.086663034300006e+18
14319.0	1.0865278099390464e+18
14320.0	1.0863924152893437e+18
14321.0	1.086257232032563e+18
14322.0	1.0861140326219773e+18
14323.0	1.0859829740437501e+18
14324.0	1.0858512015949823e+18
14325.0	1.0857159235469311e+18
14326.0	1.0855808015269887e+18
14327.0	1.0854456912510975e+18
14328.0	1.0853089737179132e+18
14329.0	1.0851755973672959e+18
14330.0	1.08504058691584e+18
14331.0	1.0849055303270397e+18
14332.0	1.0847706381549567e+18
14333.0	1.0846357216559103e+18
14334.0	1.0845008227729404e+18
14335.0	1.0843621716656124e+18
14336.0	1.0842270135746557e+18
14337.0	1.0840961823277055e+18
14338.0	1.083961081279283e+18
14339.0	1.08382625202176e+18
14340.0	1.0836920158388221e+18
14341.0	1.0835571127615487e+18
14342.0	1.083419072344883e+18
14343.0	1.0832879936339965e+18
14344.0	1.0831449057918975e+18
14345.0	1.0830141701750784e+18
14346.0	1.0828836836999167e+18
14347.0	1.0827460182540285e+18
14348.0	1.0826146711076863e+18
14349.0	1.0824802797355005e+18
14350.0	1.0823426730098685e+18
14351.0	1.0822081105100797e+18
14352.0	1.0820742576865279e+18
14353.0	1.0819407555067901e+18
14354.0	1.0818075737718783e+18
14355.0	1.0816729626181631e+18
14356.0	1.0815351721820157e+18
14357.0	1.081401540817715e+18
14358.0	1.08127135465472e+18
14359.0	1.0811370429743101e+18
14360.0	1.0810026851565567e+18
14361.0	1.0808687987785727e+18
14362.0	1.0807347983155197e+18
14363.0	1.0806006636347388e+18
14364.0	1.0804573157457919e+18
14365.0	1.0803308205703167e+18
14366.0	1.0801964342312957e+18
14367.0	1.0800647649624063e+18
14368.0	1.079930732622643e+18
14369.0	1.0797969460690941e+18
14370.0	1.0796630840180733e+18
14371.0	1.0795292513271805e+18
14372.0	1.0793951753666557e+18
14373.0	1.0792602454458365e+18
14374.0	1.0791246788296703e+18
14375.0	1.0789874604965885e+18
14376.0	1.0788598924181503e+18
14377.0	1.0787260647604221e+18
14378.0	1.0785919367905277e+18
14379.0	1.078458954704486e+18
14380.0	1.0783253074018303e+18
14381.0	1.0781911819485183e+18
14382.0	1.0780578584461312e+18
14383.0	1.077924450218803e+18
14384.0	1.0777883333099519e+18
14385.0	1.0776578258632701e+18
14386.0	1.0775219463520252e+18
14387.0	1.0773909238448124e+18
14388.0	1.0772572572483583e+18
14389.0	1.0771241870819327e+18
14390.0	1.0769903770402815e+18
14391.0	1.076857683522355e+18
14392.0	1.0767242652286975e+18
14393.0	1.0765912076451839e+18
14394.0	1.0764508796551165e+18
14395.0	1.0763228300705788e+18
14396.0	1.0761897791979519e+18
14397.0	1.0760585461366783e+18
14398.0	1.0759254298329087e+18
14399.0	1.0757904781017085e+18
14400.0	1.0756532991950847e+18
14401.0	1.0755242438164477e+18
14402.0	1.0753922163539965e+18
14403.0	1.0752283037925375e+18
14404.0	1.074301813915647e+18
14405.0	1.0744390699974642e+18
14406.0	1.0748597846933503e+18
14407.0	1.0746794312990719e+18
14408.0	1.0745947315240957e+18
14409.0	1.0744564872642557e+18
14410.0	1.0743289619677184e+18
14411.0	1.0741968019652605e+18
14412.0	1.0740632595202045e+18
14413.0	1.0739318175825919e+18
14414.0	1.0737986618523647e+18
14415.0	1.0736662694854652e+18
14416.0	1.0735339559714813e+18
14417.0	1.0734012909748223e+18
14418.0	1.0732677384634365e+18
14419.0	1.0731358099865597e+18
14420.0	1.0730023816265728e+18
14421.0	1.0728711368212479e+18
14422.0	1.0727386538573821e+18
14423.0	1.0726044713615357e+18
14424.0	1.0722885773557757e+18
14425.0	1.0723398762102781e+18
14426.0	1.0722093553418239e+18
14427.0	1.0720758925885437e+18
14428.0	1.071940708492902e+18
14429.0	1.0718103444914175e+18
14430.0	1.071680289190707e+18
14431.0	1.0715292523036668e+18
14432.0	1.0714156294471677e+18
14433.0	1.0712449405681664e+18
14434.0	1.0711480303353855e+18
14435.0	1.0710146523070463e+18
14436.0	1.070886647182131e+18
14437.0	1.0707548713779197e+18
14438.0	1.0706205169156093e+18
14439.0	1.070490746827571e+18
14440.0	1.070358924047155e+18
14441.0	1.070221578207232e+18
14442.0	1.070086105543475e+18
14443.0	1.0699447373660159e+18
14444.0	1.0698299518484477e+18
14445.0	1.0696993127006205e+18
14446.0	1.0692919224696835e+18
14447.0	1.0694332830973948e+18
14448.0	1.069304316638003e+18
14449.0	1.0691727186722815e+18
14450.0	1.0690409957163005e+18
14451.0	1.0689093373526013e+18
14452.0	1.0687777528086527e+18
14453.0	1.0686456834031613e+18
14454.0	1.0685144973180924e+18
14455.0	1.0683814397345788e+18
14456.0	1.068251420504883e+18
14457.0	1.0681198661599231e+18
14458.0	1.0679878420529153e+18
14459.0	1.0678559278366719e+18
14460.0	1.0677251561488384e+18
14461.0	1.0675893865283583e+18
14462.0	1.067450760586854e+18
14463.0	1.067330207901286e+18
14464.0	1.067199971406643e+18
14465.0	1.0670583649927167e+18
14466.0	1.0669373257678845e+18
14467.0	1.0668040635023359e+18
14468.0	1.0666750668439551e+18
14469.0	1.0665298130632701e+18
14470.0	1.0664038933463037e+18
14471.0	1.0662777337151485e+18
14472.0	1.0661500398075903e+18
14473.0	1.066018943480627e+18
14474.0	1.0658879293620221e+18
14475.0	1.0657568489734141e+18
14476.0	1.0656235279876093e+18
14477.0	1.06549586427904e+18
14478.0	1.0653653887090687e+18
14479.0	1.0652341959131133e+18
14480.0	1.0651000503271421e+18
14481.0	1.0649726516985856e+18
14482.0	1.0648409337757693e+18
14483.0	1.0647085447643133e+18
14484.0	1.0645777655267324e+18
14485.0	1.0644409263587327e+18
14486.0	1.0642458543128575e+18
14487.0	1.064187693577011e+18
14488.0	1.0640571760639997e+18
14489.0	1.0639248399007741e+18
14490.0	1.0637952627507197e+18
14491.0	1.0636649172041727e+18
14492.0	1.0635346849038333e+18
14493.0	1.0634040382062592e+18
14494.0	1.0632691686834173e+18
14495.0	1.0631427649437695e+18
14496.0	1.0629807045869564e+18
14497.0	1.0628816502259711e+18
14498.0	1.06275087098839e+18
14499.0	1.0626211143221245e+18
14500.0	1.0624907276713983e+18
14501.0	1.0623593780084736e+18
14502.0	1.062159659512627e+18
14503.0	1.0620966006685693e+18
14504.0	1.0619680578338813e+18
14505.0	1.0618384521625597e+18
14506.0	1.0617070890778623e+18
14507.0	1.0615185643405311e+18
14508.0	1.0614475304468477e+18
14509.0	1.0613183584665596e+18
14510.0	1.0611867881832447e+18
14511.0	1.0610574064877567e+18
14512.0	1.0609240896962559e+18
14513.0	1.0607971625074685e+18
14514.0	1.0606600624537597e+18
14515.0	1.0605357768376317e+18
14516.0	1.0595209222029316e+18
14517.0	1.0602735053307903e+18
14518.0	1.0601469212360701e+18
14519.0	1.0600071854817277e+18
14520.0	1.0598867040993277e+18
14521.0	1.0597575061143551e+18
14522.0	1.0596278299787263e+18
14523.0	1.0594953671475197e+18
14524.0	1.0593661523853311e+18
14525.0	1.0592371297222655e+18
14526.0	1.0591086850342911e+18
14527.0	1.0589722711687165e+18
14528.0	1.0588063772180477e+18
14529.0	1.0587170108604413e+18
14530.0	1.0585863415136255e+18
14531.0	1.0584599444848639e+18
14532.0	1.0583278205534205e+18
14533.0	1.0582009780895741e+18
14534.0	1.0580716240764927e+18
14535.0	1.0579418867040255e+18
14536.0	1.0578124211224575e+18
14537.0	1.0576804272144381e+18
14538.0	1.057553630049075e+18
14539.0	1.0574242072494077e+18
14540.0	1.0572915221200893e+18
14541.0	1.0571608896831485e+18
14542.0	1.0570326186393597e+18
14543.0	1.0569000585003008e+18
14544.0	1.0567731858374655e+18
14545.0	1.0566442017619965e+18
14546.0	1.056131961480806e+18
14547.0	1.0560033951580157e+18
14548.0	1.0562537540026367e+18
14549.0	1.0560989774741501e+18
14550.0	1.0559982370029567e+18
14551.0	1.0558693636571132e+18
14552.0	1.055739593569075e+18
14553.0	1.0556061073276924e+18
14554.0	1.0554820893081599e+18
14555.0	1.0553530087636988e+18
14556.0	1.0552232864907263e+18
14557.0	1.0550946757083133e+18
14558.0	1.0549644870287359e+18
14559.0	1.0541896925446132e+18
14560.0	1.0547059811680255e+18
14561.0	1.0545761229996031e+18
14562.0	1.0544443916550141e+18
14563.0	1.0543206462652412e+18
14564.0	1.0541767757660159e+18
14565.0	1.0540631470374911e+18
14566.0	1.0539343533834237e+18
14567.0	1.0538055085588477e+18
14568.0	1.0536765790093311e+18
14569.0	1.0535475311804415e+18
14570.0	1.0532438358884348e+18
14571.0	1.0532895890341885e+18
14572.0	1.0531524269047805e+18
14573.0	1.0530236248621055e+18
14574.0	1.0529022115053565e+18
14575.0	1.0527758882963455e+18
14576.0	1.0526470795427839e+18
14577.0	1.0525189947260928e+18
14578.0	1.0523897908690944e+18
14579.0	1.0522619862319103e+18
14580.0	1.0521335415439357e+18
14581.0	1.0520043569807357e+18
14582.0	1.0518765498269695e+18
14583.0	1.0517482041245693e+18
14584.0	1.0516171002478591e+18
14585.0	1.0514913919238141e+18
14586.0	1.0513622753083391e+18
14587.0	1.0512343104487423e+18
14588.0	1.0511064638685183e+18
14589.0	1.0509785845727231e+18
14590.0	1.0508507505754111e+18
14591.0	1.0507227647442941e+18
14592.0	1.0505946103021565e+18
14593.0	1.0504389756190719e+18
14594.0	1.0503393634156541e+18
14595.0	1.0502104120557565e+18
14596.0	1.0500724295204863e+18
14597.0	1.049942318854963e+18
14598.0	1.0498271113904127e+18
14599.0	1.049701083460403e+18
14600.0	1.0495733576761341e+18
14601.0	1.0494458760003583e+18
14602.0	1.0493176351555581e+18
14603.0	1.0491907348103165e+18
14604.0	1.0490500201054208e+18
14605.0	1.0489184162676733e+18
14606.0	1.0487813581570045e+18
14607.0	1.0486771422855167e+18
14608.0	1.0485423700705279e+18
14609.0	1.0484101370871808e+18
14610.0	1.0482789652627455e+18
14611.0	1.0481492346011645e+18
14612.0	1.0480436337704957e+18
14613.0	1.0479164725395455e+18
14614.0	1.0477767216857087e+18
14615.0	1.0476545407713276e+18
14616.0	1.0475345232789501e+18
14617.0	1.0473830686392319e+18
14618.0	1.0472627894222845e+18
14619.0	1.0471442885902332e+18
14620.0	1.0470007502798847e+18
14621.0	1.0468977633394687e+18
14622.0	1.0467706516013052e+18
14623.0	1.0466434693988351e+18
14624.0	1.0465029904138239e+18
14625.0	1.04638917378048e+18
14626.0	1.0462522398212093e+18
14627.0	1.0461245652074493e+18
14628.0	1.0460080809967615e+18
14629.0	1.045881058177843e+18
14630.0	1.0457451065245693e+18
14631.0	1.0456179494879231e+18
14632.0	1.0454650385858557e+18
14633.0	1.0453671141703679e+18
14634.0	1.0452457335291901e+18
14635.0	1.045106961625907e+18
14636.0	1.0449600519340031e+18
14637.0	1.044865461990195e+18
14638.0	1.0447380365180924e+18
14639.0	1.0446084685955072e+18
14640.0	1.0444839380320255e+18
14641.0	1.0442960550232063e+18
14642.0	1.0442299880243199e+18
14643.0	1.0441043954630655e+18
14644.0	1.0439775387385855e+18
