# Flux units: erg / (cm m2 s)
# Wavelength units: Angstrom
wave	flux
14000.0	1.9679611319222264e+18
14001.0	1.967540810652057e+18
14002.0	1.9671938712469501e+18
14003.0	1.966786735190835e+18
14004.0	1.966377765385011e+18
14005.0	1.965968711693107e+18
14006.0	1.9655543077470205e+18
14007.0	1.9651443011092472e+18
14008.0	1.9646689405042683e+18
14009.0	1.96433197179863e+18
14010.0	1.9639147341807608e+18
14011.0	1.9630684276523003e+18
14012.0	1.9631075957407744e+18
14013.0	1.9626995805585403e+18
14014.0	1.9622871311581181e+18
14015.0	1.9618815570608125e+18
14016.0	1.961475295097651e+18
14017.0	1.9610674627870723e+18
14018.0	1.9606594660597755e+18
14019.0	1.9602519676157947e+18
14020.0	1.9598438148603896e+18
14021.0	1.959435735924736e+18
14022.0	1.9590226909331453e+18
14023.0	1.9585966519877632e+18
14024.0	1.9581937421123581e+18
14025.0	1.957806309218713e+18
14026.0	1.9573992604041216e+18
14027.0	1.9569938222022653e+18
14028.0	1.956586984780595e+18
14029.0	1.9561796306206715e+18
14030.0	1.954155409178625e+18
14031.0	1.9553078462119928e+18
14032.0	1.9549575329087488e+18
14033.0	1.954508111557427e+18
14034.0	1.9541443529932797e+18
14035.0	1.953741770273587e+18
14036.0	1.9533313442054144e+18
14037.0	1.9529302546579448e+18
14038.0	1.952524531243417e+18
14039.0	1.9521156973330432e+18
14040.0	1.9517067224940544e+18
14041.0	1.9513045793374203e+18
14042.0	1.9508930963046392e+18
14043.0	1.9504682216980477e+18
14044.0	1.9500834681257981e+18
14045.0	1.9496837308219387e+18
14046.0	1.949278284231475e+18
14047.0	1.9488662475505661e+18
14048.0	1.9484683121197053e+18
14049.0	1.948067137008435e+18
14050.0	1.9476626114871293e+18
14051.0	1.9472516485480443e+18
14052.0	1.9468535805771768e+18
14053.0	1.9464355678519293e+18
14054.0	1.9460058010091517e+18
14055.0	1.9456015623782397e+18
14056.0	1.9451973992447997e+18
14057.0	1.9447933871063037e+18
14058.0	1.94438944039895e+18
14059.0	1.943985599388057e+18
14060.0	1.9435818523295744e+18
14061.0	1.9431733355085821e+18
14062.0	1.942774619937177e+18
14063.0	1.9423593116991483e+18
14064.0	1.9416947577847805e+18
14065.0	1.941558330497433e+18
14066.0	1.9411613429792765e+18
14067.0	1.9407352939675645e+18
14068.0	1.9403553688780792e+18
14069.0	1.9399484207267837e+18
14070.0	1.9395485559160827e+18
14071.0	1.9391250150981632e+18
14072.0	1.938705232376627e+18
14073.0	1.9383026546900987e+18
14074.0	1.9379001491455997e+18
14075.0	1.9374835121520637e+18
14076.0	1.9370682005585917e+18
14077.0	1.936316093064806e+18
14078.0	1.936262511670067e+18
14079.0	1.9357978113081344e+18
14080.0	1.9353992618311675e+18
14081.0	1.9349975532044283e+18
14082.0	1.9345913214402555e+18
14083.0	1.934193235014451e+18
14084.0	1.933792553153331e+18
14085.0	1.9330208213499904e+18
14086.0	1.9329593462751227e+18
14087.0	1.9325889590329341e+18
14088.0	1.9321745181769725e+18
14089.0	1.931766502994739e+18
14090.0	1.931379702602137e+18
14091.0	1.9309527627202552e+18
14092.0	1.93054634976215e+18
14093.0	1.9301456410574843e+18
14094.0	1.9297449675849725e+18
14095.0	1.929344156539289e+18
14096.0	1.9288660427931643e+18
14097.0	1.9285183870009341e+18
14098.0	1.9279892940062723e+18
14099.0	1.9273602423586816e+18
14100.0	1.9269518295564288e+18
14101.0	1.9265607090307064e+18
14102.0	1.9261607100022784e+18
14103.0	1.9257506597437437e+18
14104.0	1.925361565905715e+18
14105.0	1.9249615031238653e+18
14106.0	1.9245624922734587e+18
14107.0	1.9241616594173947e+18
14108.0	1.9237552816914427e+18
14109.0	1.9233607235141632e+18
14110.0	1.9229588202717184e+18
14111.0	1.92255452292055e+18
14112.0	1.922161915933491e+18
14113.0	1.9217472183861243e+18
14114.0	1.9213205771386875e+18
14115.0	1.9209286445957117e+18
14116.0	1.920466163859456e+18
14117.0	1.9173735206486016e+18
14118.0	1.9197345581236224e+18
14119.0	1.9192886180446203e+18
14120.0	1.9189003899109373e+18
14121.0	1.9185253503467515e+18
14122.0	1.91808687612887e+18
14123.0	1.9176953143623675e+18
14124.0	1.917291028755251e+18
14125.0	1.916606991459942e+18
14126.0	1.9165413522800635e+18
14127.0	1.9161553253171197e+18
14128.0	1.9157570677637115e+18
14129.0	1.915351691637555e+18
14130.0	1.9149480502755325e+18
14131.0	1.9145663937773568e+18
14132.0	1.914165126391398e+18
14133.0	1.9133717486239734e+18
14134.0	1.9133747802669056e+18
14135.0	1.9129556132691965e+18
14136.0	1.9124877923450875e+18
14137.0	1.91217802453975e+18
14138.0	1.9117419192647675e+18
14139.0	1.911353520003481e+18
14140.0	1.9109482076307453e+18
14141.0	1.9105429808218107e+18
14142.0	1.909939019500749e+18
14143.0	1.9097606223298555e+18
14144.0	1.9093727616172027e+18
14145.0	1.908976911594291e+18
14146.0	1.9085760820936704e+18
14147.0	1.908181753764249e+18
14148.0	1.9077791727222781e+18
14149.0	1.907383562613555e+18
14150.0	1.906998542283571e+18
14151.0	1.9065855509790717e+18
14152.0	1.9062078539038717e+18
14153.0	1.9058124853870587e+18
14154.0	1.905398569657958e+18
14155.0	1.904819911734067e+18
14156.0	1.9045897971171325e+18
14157.0	1.9042320632512512e+18
14158.0	1.9038336446365693e+18
14159.0	1.9034427170488312e+18
14160.0	1.9030420200882173e+18
14161.0	1.9026112399015933e+18
14162.0	1.9021806291648512e+18
14163.0	1.9018630465323005e+18
14164.0	1.901375430171033e+18
14165.0	1.9009816252907515e+18
14166.0	1.90064758924247e+18
14167.0	1.9002406159253504e+18
14168.0	1.8998472908734461e+18
14169.0	1.8994635724554237e+18
14170.0	1.8990621775626237e+18
14171.0	1.8986741121679355e+18
14172.0	1.8982825621454845e+18
14173.0	1.89783875780608e+18
14174.0	1.8974896927277053e+18
14175.0	1.8971023101657083e+18
14176.0	1.8967075103965181e+18
14177.0	1.8963151902998525e+18
14178.0	1.895921299855769e+18
14179.0	1.8955196885368827e+18
14180.0	1.89513697675182e+18
14181.0	1.8947441667604477e+18
14182.0	1.8943508752629755e+18
14183.0	1.893958801791385e+18
14184.0	1.8935623746322432e+18
14185.0	1.8931731029557243e+18
14186.0	1.892266779292467e+18
14187.0	1.8923696404037632e+18
14188.0	1.8919960520687613e+18
14189.0	1.8915994839810043e+18
14190.0	1.891208707388211e+18
14191.0	1.8908146340724736e+18
14192.0	1.8904226981740541e+18
14193.0	1.8899508540735483e+18
14194.0	1.889640458800332e+18
14195.0	1.8892542758092797e+18
14196.0	1.8888626737774587e+18
14197.0	1.8884651527438333e+18
14198.0	1.8880403150471163e+18
14199.0	1.8876500350599163e+18
14200.0	1.8869561814155267e+18
14201.0	1.8868490437918715e+18
14202.0	1.886479139733504e+18
14203.0	1.8860769009467387e+18
14204.0	1.885695175661977e+18
14205.0	1.8853045550972925e+18
14206.0	1.8848227604299773e+18
14207.0	1.8845250688647165e+18
14208.0	1.8841348475977725e+18
14209.0	1.883647474506137e+18
14210.0	1.88328334852096e+18
14211.0	1.882960239473459e+18
14212.0	1.8825731068919803e+18
14213.0	1.8821785772359677e+18
14214.0	1.8817929898360827e+18
14215.0	1.8813949772300283e+18
14216.0	1.8810141797253123e+18
14217.0	1.8806243862773752e+18
14218.0	1.880226056581939e+18
14219.0	1.8798452104232955e+18
14220.0	1.879453056421068e+18
14221.0	1.8790597011701755e+18
14222.0	1.8786328367857661e+18
14223.0	1.8782866372558843e+18
14224.0	1.8778985483730941e+18
14225.0	1.876583650846311e+18
14226.0	1.8771147654955005e+18
14227.0	1.8767317668200445e+18
14228.0	1.8741909782528003e+18
14229.0	1.8754449308647404e+18
14230.0	1.8755660153880573e+18
14231.0	1.8751374279835645e+18
14232.0	1.87478920176599e+18
14233.0	1.8743969856880635e+18
14234.0	1.8739821488898045e+18
14235.0	1.8735874749497341e+18
14236.0	1.8732010201677824e+18
14237.0	1.8728121108791293e+18
14238.0	1.8724247937482747e+18
14239.0	1.8720281702957053e+18
14240.0	1.870516947465011e+18
14241.0	1.8712535125458941e+18
14242.0	1.8708699988099064e+18
14243.0	1.870371369884057e+18
14244.0	1.8700988911190013e+18
14245.0	1.8696977143300093e+18
14246.0	1.86930665923543e+18
14247.0	1.8689335859609597e+18
14248.0	1.8685386083532792e+18
14249.0	1.868161474992537e+18
14250.0	1.8677743625437181e+18
14251.0	1.867389362346393e+18
14252.0	1.8670025015558141e+18
14253.0	1.866615159259136e+18
14254.0	1.86622729519104e+18
14255.0	1.8658180049403904e+18
14256.0	1.8645038288338952e+18
14257.0	1.8650145390329853e+18
14258.0	1.864683140363059e+18
14259.0	1.8642826833166333e+18
14260.0	1.863880305278976e+18
14261.0	1.8635102418370555e+18
14262.0	1.863155286278144e+18
14263.0	1.8613903869083653e+18
14264.0	1.8620916611153912e+18
14265.0	1.8619930211516413e+18
14266.0	1.8616139667996672e+18
14267.0	1.8612286243471355e+18
14268.0	1.8608432919609341e+18
14269.0	1.8604560486498304e+18
14270.0	1.8596612464967677e+18
14271.0	1.8592236514050045e+18
14272.0	1.858839345784422e+18
14273.0	1.858451335754547e+18
14274.0	1.85597027072082e+18
14275.0	1.8574537994010621e+18
14276.0	1.8572478372642816e+18
14277.0	1.8568654140473344e+18
14278.0	1.8564943741714427e+18
14279.0	1.8561088857571323e+18
14280.0	1.8557202314821632e+18
14281.0	1.8553408986284027e+18
14282.0	1.8549566852825088e+18
14283.0	1.854572315908505e+18
14284.0	1.8541879700226043e+18
14285.0	1.853803219805798e+18
14286.0	1.8534160419258365e+18
14287.0	1.8530354608472061e+18
14288.0	1.8526514320506877e+18
14289.0	1.8515428674371569e+18
14290.0	1.8518819282616317e+18
14291.0	1.8514995838976e+18
14292.0	1.851116711051264e+18
14293.0	1.8507314776506365e+18
14294.0	1.8502467167715325e+18
14295.0	1.8499559390969856e+18
14296.0	1.8489970725486597e+18
14297.0	1.8491976961753083e+18
14298.0	1.8484616058896381e+18
14299.0	1.8484178072895483e+18
14300.0	1.8480453983928323e+18
14301.0	1.8476641663582203e+18
14302.0	1.84728312390615e+18
14303.0	1.8468754107138045e+18
14304.0	1.846505545243033e+18
14305.0	1.8461332672086013e+18
14306.0	1.8457164406325245e+18
14307.0	1.8453480381349883e+18
14308.0	1.8449793890123776e+18
14309.0	1.844584458380902e+18
14310.0	1.8440548117381112e+18
14311.0	1.8434852067999741e+18
14312.0	1.8433580891897853e+18
14313.0	1.8429958388973568e+18
14314.0	1.8426752296550397e+18
14315.0	1.842310546666291e+18
14316.0	1.841892277249638e+18
14317.0	1.8415068391669752e+18
14318.0	1.8411699140820987e+18
14319.0	1.8407896836472832e+18
14320.0	1.840408371082035e+18
14321.0	1.840027771548467e+18
14322.0	1.839617677669171e+18
14323.0	1.83923224126423e+18
14324.0	1.8388490983047165e+18
14325.0	1.8384617090318333e+18
14326.0	1.838088187805696e+18
14327.0	1.8377024007569405e+18
14328.0	1.837321757602611e+18
14329.0	1.8369459177652221e+18
14330.0	1.836565236023296e+18
14331.0	1.836180188849766e+18
14332.0	1.8358042248609787e+18
14333.0	1.835423853497548e+18
14334.0	1.8350435089776635e+18
14335.0	1.834652537769165e+18
14336.0	1.8341814603874304e+18
14337.0	1.8339024267640832e+18
14338.0	1.8335212366725115e+18
14339.0	1.8331342802518013e+18
14340.0	1.8327620257054715e+18
14341.0	1.8323757084966912e+18
14342.0	1.8320034120073213e+18
14343.0	1.8316193177796603e+18
14344.0	1.8312386226159613e+18
14345.0	1.830864076301926e+18
14346.0	1.8304793680281597e+18
14347.0	1.8300581776982013e+18
14348.0	1.829723421907353e+18
14349.0	1.8293468203843581e+18
14350.0	1.828891620959846e+18
14351.0	1.8285033190064125e+18
14352.0	1.828203729938022e+18
14353.0	1.8278299486650363e+18
14354.0	1.827442039298457e+18
14355.0	1.827045056813465e+18
14356.0	1.8266729968828413e+18
14357.0	1.826316382057267e+18
14358.0	1.8259375541977088e+18
14359.0	1.8255481197821947e+18
14360.0	1.8251738838466555e+18
14361.0	1.824799460006297e+18
14362.0	1.82442421911552e+18
14363.0	1.8240456462696445e+18
14364.0	1.8234276424187896e+18
14365.0	1.8232348151644152e+18
14366.0	1.8228684091555837e+18
14367.0	1.8225341902356477e+18
14368.0	1.8221559479009277e+18
14369.0	1.8217785595265021e+18
14370.0	1.8214010268680187e+18
14371.0	1.821023715668787e+18
14372.0	1.8206416011526141e+18
14373.0	1.8202668770000893e+18
14374.0	1.8198907821490176e+18
14375.0	1.8195126505439227e+18
14376.0	1.81913644999639e+18
14377.0	1.8187587394994168e+18
14378.0	1.8183800055922685e+18
14379.0	1.8179734735159293e+18
14380.0	1.8175928219729917e+18
14381.0	1.8172084895088635e+18
14382.0	1.816838712957337e+18
14383.0	1.81645645751255e+18
14384.0	1.8160716234096637e+18
14385.0	1.815709354662297e+18
14386.0	1.815321559380787e+18
14387.0	1.8149558563373056e+18
14388.0	1.8145777800970237e+18
14389.0	1.814202633158656e+18
14390.0	1.8138250082254845e+18
14391.0	1.813449859609395e+18
14392.0	1.813071974629376e+18
14393.0	1.8126977034616827e+18
14394.0	1.8122932886700032e+18
14395.0	1.8119279245262843e+18
14396.0	1.81156879311831e+18
14397.0	1.8111935186731003e+18
14398.0	1.81081654469591e+18
14399.0	1.810441063890944e+18
14400.0	1.810048589443891e+18
14401.0	1.809444760662835e+18
14402.0	1.809037013916057e+18
14403.0	1.8069991106543593e+18
14404.0	1.803384815144139e+18
14405.0	1.8066845378543593e+18
14406.0	1.8075349732556797e+18
14407.0	1.8048827302871048e+18
14408.0	1.8067417246728187e+18
14409.0	1.8063958640427003e+18
14410.0	1.8060167274823677e+18
14411.0	1.8056592217866235e+18
14412.0	1.8052827326709755e+18
14413.0	1.8049105049681915e+18
14414.0	1.8045335712563192e+18
14415.0	1.8041595483914237e+18
14416.0	1.8037754944290813e+18
14417.0	1.8033816073404413e+18
14418.0	1.8029936778412027e+18
14419.0	1.8026597089017853e+18
14420.0	1.802282439645593e+18
14421.0	1.8019111799881723e+18
14422.0	1.8015328453787648e+18
14423.0	1.8011449662111741e+18
14424.0	1.7912505242222546e+18
14425.0	1.800403074364211e+18
14426.0	1.8000394047193088e+18
14427.0	1.7996662291038203e+18
14428.0	1.799276195741696e+18
14429.0	1.798913801165209e+18
14430.0	1.7985440430686205e+18
14431.0	1.797748088320819e+18
14432.0	1.797788591875686e+18
14433.0	1.7956501226258422e+18
14434.0	1.7970344576942077e+18
14435.0	1.796612453669273e+18
14436.0	1.7963012849663995e+18
14437.0	1.7959283358433277e+18
14438.0	1.7954710946316285e+18
14439.0	1.7951645061087227e+18
14440.0	1.794807490307686e+18
14441.0	1.7944284527329275e+18
14442.0	1.794051982072217e+18
14443.0	1.7936227755884541e+18
14444.0	1.7932777622077437e+18
14445.0	1.7929079990779904e+18
14446.0	1.7902806216212488e+18
14447.0	1.7921466305609723e+18
14448.0	1.7917893429690363e+18
14449.0	1.7914164894760955e+18
14450.0	1.7910394601340925e+18
14451.0	1.790669143356211e+18
14452.0	1.7902951506903035e+18
14453.0	1.789893614868889e+18
14454.0	1.7895512371888125e+18
14455.0	1.789174249789849e+18
14456.0	1.788794606557593e+18
14457.0	1.788421347056025e+18
14458.0	1.7880529932124152e+18
14459.0	1.7876781449084925e+18
14460.0	1.7872984815435768e+18
14461.0	1.7868595526631421e+18
14462.0	1.7862362287570941e+18
14463.0	1.7861534935941115e+18
14464.0	1.7857469464182781e+18
14465.0	1.7853641641689088e+18
14466.0	1.7850118929645565e+18
14467.0	1.7846067097763837e+18
14468.0	1.7842662480543741e+18
14469.0	1.7838491631091712e+18
14470.0	1.7835031665836027e+18
14471.0	1.7831456072007677e+18
14472.0	1.7827776291667965e+18
14473.0	1.782409778639667e+18
14474.0	1.7820399467233277e+18
14475.0	1.7816641354072061e+18
14476.0	1.7811837215047677e+18
14477.0	1.7809242954137597e+18
14478.0	1.7805547772313595e+18
14479.0	1.7801802258841597e+18
14480.0	1.779798245585715e+18
14481.0	1.7794413321256955e+18
14482.0	1.7790670039154688e+18
14483.0	1.7786908704767997e+18
14484.0	1.7783187518259195e+18
14485.0	1.777928248701747e+18
14486.0	1.777352713017753e+18
14487.0	1.7772089054330877e+18
14488.0	1.7767956322713595e+18
14489.0	1.7764307328565243e+18
14490.0	1.776091175426457e+18
14491.0	1.7757293714079741e+18
14492.0	1.775359034497433e+18
14493.0	1.774979812373299e+18
14494.0	1.7745996003934205e+18
14495.0	1.7742467621191675e+18
14496.0	1.773771022349107e+18
14497.0	1.7735045749932027e+18
14498.0	1.7731346189254656e+18
14499.0	1.7727643524792315e+18
14500.0	1.7723934015225856e+18
14501.0	1.7719685269159933e+18
14502.0	1.7714277133582333e+18
14503.0	1.771256010296524e+18
14504.0	1.7709062707740672e+18
14505.0	1.7704889006161917e+18
14506.0	1.7700664587059195e+18
14507.0	1.7696082528043005e+18
14508.0	1.7694296576622587e+18
14509.0	1.7690594398699515e+18
14510.0	1.7686868514570237e+18
14511.0	1.7683185831772155e+18
14512.0	1.7679360525860861e+18
14513.0	1.7675783019429885e+18
14514.0	1.767178868306739e+18
14515.0	1.766837326132019e+18
14516.0	1.7646366738087946e+18
14517.0	1.7660964123967485e+18
14518.0	1.7657277062316032e+18
14519.0	1.7653578491494397e+18
14520.0	1.7649878645604347e+18
14521.0	1.7645869327187963e+18
14522.0	1.7642114485583864e+18
14523.0	1.763691655174553e+18
14524.0	1.7633562584940541e+18
14525.0	1.7631019058331648e+18
14526.0	1.7627365785993216e+18
14527.0	1.7623433592438784e+18
14528.0	1.7618941140533248e+18
14529.0	1.7616175114485752e+18
14530.0	1.7612430003666941e+18
14531.0	1.760884784994713e+18
14532.0	1.7603552021053435e+18
14533.0	1.7601455003271165e+18
14534.0	1.7597778293161981e+18
14535.0	1.759399419209318e+18
14536.0	1.7590379138252795e+18
14537.0	1.7586586178813947e+18
14538.0	1.7582986392240123e+18
14539.0	1.7579290287669243e+18
14540.0	1.7575592639594493e+18
14541.0	1.757173263840051e+18
14542.0	1.7568195548282877e+18
14543.0	1.7563692610617344e+18
14544.0	1.7560793658687485e+18
14545.0	1.7557021352001533e+18
14546.0	1.74374388257259e+18
14547.0	1.7444050810437565e+18
14548.0	1.7545890826813437e+18
14549.0	1.7541368712790013e+18
14550.0	1.753856893098393e+18
14551.0	1.7534923141283837e+18
14552.0	1.75312112493527e+18
14553.0	1.7527472446767104e+18
14554.0	1.7523834676576253e+18
14555.0	1.7520132951638013e+18
14556.0	1.7516411496693757e+18
14557.0	1.7512742252445693e+18
14558.0	1.750903547756544e+18
14559.0	1.7491668978630638e+18
14560.0	1.7501407682756603e+18
14561.0	1.749789871125299e+18
14562.0	1.7493987992535037e+18
14563.0	1.7490528010502141e+18
14564.0	1.7486468914085885e+18
14565.0	1.7483173868863488e+18
14566.0	1.7479477898510333e+18
14567.0	1.7475752635138043e+18
14568.0	1.7471547593719803e+18
14569.0	1.746836930114355e+18
14570.0	1.7460589437648896e+18
14571.0	1.7460958670618621e+18
14572.0	1.745676240368435e+18
14573.0	1.7453143944069115e+18
14574.0	1.7448913904599035e+18
14575.0	1.7446051761881085e+18
14576.0	1.7442339517628416e+18
14577.0	1.7438742834839552e+18
14578.0	1.7435066493829117e+18
14579.0	1.743139936351027e+18
14580.0	1.7427701212119035e+18
14581.0	1.742392560032153e+18
14582.0	1.7420229562859517e+18
14583.0	1.7416589578076157e+18
14584.0	1.741266172982067e+18
14585.0	1.7409188258906107e+18
14586.0	1.7405463935057915e+18
14587.0	1.7401765934661627e+18
14588.0	1.739808420816486e+18
14589.0	1.73944762007552e+18
14590.0	1.7390872018550781e+18
14591.0	1.7387213696270333e+18
14592.0	1.7383596058738685e+18
14593.0	1.737911946130227e+18
14594.0	1.737642671813427e+18
14595.0	1.737277128153497e+18
14596.0	1.7366942792810488e+18
14597.0	1.736295870732697e+18
14598.0	1.736172526318387e+18
14599.0	1.7358355962003453e+18
14600.0	1.735466918556467e+18
14601.0	1.7351088860561405e+18
14602.0	1.734730293077606e+18
14603.0	1.734384999517388e+18
14604.0	1.7339725266288637e+18
14605.0	1.7336092512485376e+18
14606.0	1.7332449306476544e+18
14607.0	1.732930193430937e+18
14608.0	1.7325753804783613e+18
14609.0	1.732200777121792e+18
14610.0	1.7317651399311357e+18
14611.0	1.7314641851973635e+18
14612.0	1.731099732056473e+18
14613.0	1.7307404211322877e+18
14614.0	1.7303763622559741e+18
14615.0	1.7300130029895677e+18
14616.0	1.7296547775512576e+18
14617.0	1.7292919853547515e+18
14618.0	1.728905052422144e+18
14619.0	1.7283868780396534e+18
14620.0	1.727635795633766e+18
14621.0	1.7278402226552827e+18
14622.0	1.727474871933337e+18
14623.0	1.7271139554295803e+18
14624.0	1.7267040477773821e+18
14625.0	1.7263843898032125e+18
14626.0	1.7260199098187776e+18
14627.0	1.725651522420736e+18
14628.0	1.7252951407984637e+18
14629.0	1.724930820197581e+18
14630.0	1.7245608121204733e+18
14631.0	1.7242015129403395e+18
14632.0	1.7230785534754816e+18
14633.0	1.723343917023232e+18
14634.0	1.723098654257971e+18
14635.0	1.7224234988208118e+18
14636.0	1.7216931983523837e+18
14637.0	1.722013931746099e+18
14638.0	1.721635177706291e+18
14639.0	1.7212635925708797e+18
14640.0	1.7209137205084157e+18
14641.0	1.7175358042275822e+18
14642.0	1.7201807088418816e+18
14643.0	1.7198171012726781e+18
14644.0	1.7194400366985213e+18
14645.0	1.7190648478171128e+18
14646.0	1.7186864695869435e+18
14647.0	1.7182967231152125e+18
14648.0	1.7179719749337085e+18
