# Flux units: erg / (cm m2 s)
# Wavelength units: Angstrom
wave	flux
14000.0	2.5316086215868406e+18
14001.0	2.5313807685386235e+18
14002.0	2.5308723652067323e+18
14003.0	2.5303259967127547e+18
14004.0	2.529776061382655e+18
14005.0	2.529224835884646e+18
14006.0	2.5286697885368315e+18
14007.0	2.5281155062300667e+18
14008.0	2.527520550918553e+18
14009.0	2.5270113305362427e+18
14010.0	2.5264548554473467e+18
14011.0	2.52562879062999e+18
14012.0	2.5253583486189563e+18
14013.0	2.5248122720485376e+18
14014.0	2.5242581206040576e+18
14015.0	2.523709790853529e+18
14016.0	2.5231600333619195e+18
14017.0	2.5226095141847035e+18
14018.0	2.522058837301657e+18
14019.0	2.5215083550343163e+18
14020.0	2.520957379516825e+18
14021.0	2.520406192606413e+18
14022.0	2.519852960553369e+18
14023.0	2.519287828421017e+18
14024.0	2.518742526957977e+18
14025.0	2.5182054362644475e+18
14026.0	2.5176560378052603e+18
14027.0	2.517106589014425e+18
14028.0	2.5165541085806587e+18
14029.0	2.5159878792183803e+18
14030.0	2.513714108432385e+18
14031.0	2.514717911076044e+18
14032.0	2.5143495505215483e+18
14033.0	2.5137823262703616e+18
14034.0	2.513263073112883e+18
14035.0	2.5127179226447867e+18
14036.0	2.5121625061982203e+18
14037.0	2.511624085071462e+18
14038.0	2.511076818996429e+18
14039.0	2.5105295193669627e+18
14040.0	2.5099788575834107e+18
14041.0	2.509433542698598e+18
14042.0	2.508881897770188e+18
14043.0	2.508322105825689e+18
14044.0	2.507789300033126e+18
14045.0	2.507245458187878e+18
14046.0	2.506696351652249e+18
14047.0	2.506143812498227e+18
14048.0	2.505606788913561e+18
14049.0	2.5050618129285115e+18
14050.0	2.5045159645282294e+18
14051.0	2.5039659201462267e+18
14052.0	2.503424036202086e+18
14053.0	2.50287896962007e+18
14054.0	2.5023335490387963e+18
14055.0	2.5017882509311995e+18
14056.0	2.5012430803304443e+18
14057.0	2.5006980372365307e+18
14058.0	2.500153119971737e+18
14059.0	2.4996041828859904e+18
14060.0	2.4990634599251963e+18
14061.0	2.498515910315213e+18
14062.0	2.497973932418662e+18
14063.0	2.4974178801156096e+18
14064.0	2.496634409294233e+18
14065.0	2.4963367831601147e+18
14066.0	2.4957982479482875e+18
14067.0	2.4952337919377403e+18
14068.0	2.494710956844646e+18
14069.0	2.494165356747161e+18
14070.0	2.493623050017177e+18
14071.0	2.4930798775828475e+18
14072.0	2.4925382905954304e+18
14073.0	2.491995270833766e+18
14074.0	2.4914520296128507e+18
14075.0	2.490896958776934e+18
14076.0	2.4903382422519803e+18
14077.0	2.4894174197186555e+18
14078.0	2.4892436077608955e+18
14079.0	2.4887328874954747e+18
14080.0	2.488197602030386e+18
14081.0	2.4876567381409787e+18
14082.0	2.4871136344932347e+18
14083.0	2.486571510634905e+18
14084.0	2.486020811941478e+18
14085.0	2.485159600534323e+18
14086.0	2.4849039291842555e+18
14087.0	2.4844044261654523e+18
14088.0	2.4838561467465723e+18
14089.0	2.4833082028720123e+18
14090.0	2.4827846446809083e+18
14091.0	2.482246819145318e+18
14092.0	2.481707007187353e+18
14093.0	2.481166353013145e+18
14094.0	2.4806245764431867e+18
14095.0	2.4800786710003707e+18
14096.0	2.4794917872074747e+18
14097.0	2.4789584177004544e+18
14098.0	2.4784380840902656e+18
14099.0	2.477923404401869e+18
14100.0	2.477383490102886e+18
14101.0	2.4768516372561915e+18
14102.0	2.476313387257037e+18
14103.0	2.475768892778086e+18
14104.0	2.4752368436379643e+18
14105.0	2.474698308426137e+18
14106.0	2.474160170834329e+18
14107.0	2.4736213369880576e+18
14108.0	2.4730758325207035e+18
14109.0	2.4725424764354555e+18
14110.0	2.47200373318615e+18
14111.0	2.4714637350010875e+18
14112.0	2.4709247216386043e+18
14113.0	2.4703800392548347e+18
14114.0	2.4698403917135867e+18
14115.0	2.469295013075353e+18
14116.0	2.4686255451144187e+18
14117.0	2.465132448212582e+18
14118.0	2.4676374895656955e+18
14119.0	2.467109257242214e+18
14120.0	2.466590975485542e+18
14121.0	2.4660762068779003e+18
14122.0	2.465546639088025e+18
14123.0	2.4649920782794747e+18
14124.0	2.464450399017369e+18
14125.0	2.4637063496204283e+18
14126.0	2.4634017458421755e+18
14127.0	2.462883725810073e+18
14128.0	2.4623497774891003e+18
14129.0	2.4618086602637307e+18
14130.0	2.4612672947355643e+18
14131.0	2.4607436107153403e+18
14132.0	2.46019928400855e+18
14133.0	2.459392387160473e+18
14134.0	2.4591304260321275e+18
14135.0	2.458579531045273e+18
14136.0	2.4580299128045563e+18
14137.0	2.4575197931634683e+18
14138.0	2.456978103835033e+18
14139.0	2.4564621792772096e+18
14140.0	2.4559187384074235e+18
14141.0	2.455330324532428e+18
14142.0	2.4547133726130176e+18
14143.0	2.4543126924296187e+18
14144.0	2.4537993029091323e+18
14145.0	2.4532716074565627e+18
14146.0	2.452736132408934e+18
14147.0	2.4522070142484475e+18
14148.0	2.4516703161417723e+18
14149.0	2.4511362570911744e+18
14150.0	2.4506148765827067e+18
14151.0	2.4500676742610944e+18
14152.0	2.449551638973645e+18
14153.0	2.449019891823411e+18
14154.0	2.4484717885652987e+18
14155.0	2.4479234168717307e+18
14156.0	2.447419142412697e+18
14157.0	2.44689339982807e+18
14158.0	2.446360641011712e+18
14159.0	2.4458312644820987e+18
14160.0	2.4452919793287163e+18
14161.0	2.444738500650598e+18
14162.0	2.4441790627053563e+18
14163.0	2.4436917097463803e+18
14164.0	2.443105028957798e+18
14165.0	2.4425973738897403e+18
14166.0	2.442104903879885e+18
14167.0	2.4415727540764667e+18
14168.0	2.4410507343560704e+18
14169.0	2.440520985372262e+18
14170.0	2.4399932966305787e+18
14171.0	2.4394660944281595e+18
14172.0	2.438938088597094e+18
14173.0	2.4383882035986427e+18
14174.0	2.4378745036996603e+18
14175.0	2.4373519705964534e+18
14176.0	2.4368230420185083e+18
14177.0	2.436295073097318e+18
14178.0	2.4357658811170816e+18
14179.0	2.4352343168385024e+18
14180.0	2.43471020499927e+18
14181.0	2.4341819424767995e+18
14182.0	2.4336530591973376e+18
14183.0	2.4331241390079995e+18
14184.0	2.4325897611902976e+18
14185.0	2.4320423978074107e+18
14186.0	2.4309841329651707e+18
14187.0	2.430941872835788e+18
14188.0	2.4304163617767424e+18
14189.0	2.4296782414479355e+18
14190.0	2.429152512285081e+18
14191.0	2.428623110589644e+18
14192.0	2.428090145413529e+18
14193.0	2.427483184326246e+18
14194.0	2.4270444165070843e+18
14195.0	2.4265241919488e+18
14196.0	2.4259987496763387e+18
14197.0	2.4254725490737147e+18
14198.0	2.424943503055257e+18
14199.0	2.4244149687418875e+18
14200.0	2.423564274971443e+18
14201.0	2.423313972330496e+18
14202.0	2.4228403381010427e+18
14203.0	2.4223124111228923e+18
14204.0	2.421790372947558e+18
14205.0	2.421264286430003e+18
14206.0	2.4206079550291963e+18
14207.0	2.4199192419237883e+18
14208.0	2.419395618301542e+18
14209.0	2.418801196505497e+18
14210.0	2.4182917697634294e+18
14211.0	2.417817305061785e+18
14212.0	2.417295894354329e+18
14213.0	2.4167691770134523e+18
14214.0	2.4162462462902267e+18
14215.0	2.415717230470758e+18
14216.0	2.415198395065958e+18
14217.0	2.414674026535321e+18
14218.0	2.4141419186749435e+18
14219.0	2.4136254908006395e+18
14220.0	2.4130983456407547e+18
14221.0	2.4125719370006523e+18
14222.0	2.4120139284742144e+18
14223.0	2.4115266224914427e+18
14224.0	2.4109948367536123e+18
14225.0	2.409511707371111e+18
14226.0	2.4097849260113915e+18
14227.0	2.409107329489305e+18
14228.0	2.406589228751258e+18
14229.0	2.407585619220888e+18
14230.0	2.407544580472832e+18
14231.0	2.4069934774484987e+18
14232.0	2.406505559097344e+18
14233.0	2.405981059704422e+18
14234.0	2.405460811658035e+18
14235.0	2.4049370957611003e+18
14236.0	2.404415681698201e+18
14237.0	2.403890672277913e+18
14238.0	2.4033676392136704e+18
14239.0	2.402835365258854e+18
14240.0	2.4016127659081723e+18
14241.0	2.4017772648333307e+18
14242.0	2.401270356351385e+18
14243.0	2.400681048250777e+18
14244.0	2.4002382991982587e+18
14245.0	2.399710754740633e+18
14246.0	2.3991883474665467e+18
14247.0	2.398672916158873e+18
14248.0	2.3981482808705024e+18
14249.0	2.3974415356133376e+18
14250.0	2.396775592545485e+18
14251.0	2.3962547774291963e+18
14252.0	2.3957322409705467e+18
14253.0	2.395208035178905e+18
14254.0	2.3946799286845435e+18
14255.0	2.394117282935603e+18
14256.0	2.392656789372928e+18
14257.0	2.3928722574802934e+18
14258.0	2.392583181015449e+18
14259.0	2.3920628994146304e+18
14260.0	2.391524417889894e+18
14261.0	2.391013018147225e+18
14262.0	2.3904920285478907e+18
14263.0	2.38857333243904e+18
14264.0	2.3888967317323766e+18
14265.0	2.388942754991309e+18
14266.0	2.388457886738022e+18
14267.0	2.387945965223936e+18
14268.0	2.387429049132646e+18
14269.0	2.3869087759204347e+18
14270.0	2.3863888952950784e+18
14271.0	2.385864078812774e+18
14272.0	2.385328758115533e+18
14273.0	2.384719483450163e+18
14274.0	2.381781006077133e+18
14275.0	2.38299473028055e+18
14276.0	2.3828703087689723e+18
14277.0	2.3823852576440315e+18
14278.0	2.381882496489881e+18
14279.0	2.381366907476377e+18
14280.0	2.3808479881854976e+18
14281.0	2.3803340584386555e+18
14282.0	2.3798165283012603e+18
14283.0	2.3792986357759995e+18
14284.0	2.378780598966681e+18
14285.0	2.3782624128401403e+18
14286.0	2.37774413276119e+18
14287.0	2.3772258963030016e+18
14288.0	2.3767025746706427e+18
14289.0	2.375731410422988e+18
14290.0	2.375667381855846e+18
14291.0	2.3751548781723643e+18
14292.0	2.3746383580233723e+18
14293.0	2.374118672013721e+18
14294.0	2.3735324777644027e+18
14295.0	2.3730694450577403e+18
14296.0	2.372199256162304e+18
14297.0	2.372026066639257e+18
14298.0	2.371179119221145e+18
14299.0	2.370988051896729e+18
14300.0	2.370494600419737e+18
14301.0	2.3699819289640955e+18
14302.0	2.369210740742553e+18
14303.0	2.3685443614670843e+18
14304.0	2.368030312602009e+18
14305.0	2.3675181058752507e+18
14306.0	2.366982112411648e+18
14307.0	2.366466464677887e+18
14308.0	2.365958608283238e+18
14309.0	2.365434709514649e+18
14310.0	2.364876590258585e+18
14311.0	2.36436867514368e+18
14312.0	2.363848118396518e+18
14313.0	2.363346412529254e+18
14314.0	2.3628565077557243e+18
14315.0	2.3623516880371707e+18
14316.0	2.361814243344384e+18
14317.0	2.361297473214873e+18
14318.0	2.3608145276305403e+18
14319.0	2.3603062702604283e+18
14320.0	2.359793665913651e+18
14321.0	2.3592804391321595e+18
14322.0	2.3587474219466747e+18
14323.0	2.3582409614163963e+18
14324.0	2.357740255471206e+18
14325.0	2.3572200057470976e+18
14326.0	2.356713716344422e+18
14327.0	2.356195766776627e+18
14328.0	2.355683617092403e+18
14329.0	2.3551734471196667e+18
14330.0	2.3546601481961467e+18
14331.0	2.3541424150544384e+18
14332.0	2.3536336644341755e+18
14333.0	2.353120456107622e+18
14334.0	2.352336747049778e+18
14335.0	2.351691988572569e+18
14336.0	2.3510788568252416e+18
14337.0	2.3506722391851003e+18
14338.0	2.350159361369702e+18
14339.0	2.3496368551100406e+18
14340.0	2.349131557240832e+18
14341.0	2.348616355781017e+18
14342.0	2.348106788110336e+18
14343.0	2.347592724145766e+18
14344.0	2.3470771737198587e+18
14345.0	2.346567161452953e+18
14346.0	2.3460509416161275e+18
14347.0	2.345523544798002e+18
14348.0	2.345022701279641e+18
14349.0	2.3445128198750203e+18
14350.0	2.3439102560960507e+18
14351.0	2.3433952224083963e+18
14352.0	2.3429729482702843e+18
14353.0	2.342466757853184e+18
14354.0	2.3419453286907904e+18
14355.0	2.3414136805261307e+18
14356.0	2.340906835797606e+18
14357.0	2.3404208602480635e+18
14358.0	2.3399110929285115e+18
14359.0	2.3393889473789947e+18
14360.0	2.338882340886937e+18
14361.0	2.338372917500313e+18
14362.0	2.337864819513753e+18
14363.0	2.3373479487209467e+18
14364.0	2.3365747958874107e+18
14365.0	2.336222947468902e+18
14366.0	2.3357728130859003e+18
14367.0	2.3353122516631547e+18
14368.0	2.3348031319441403e+18
14369.0	2.334293592794726e+18
14370.0	2.333771687159398e+18
14371.0	2.3328663449632763e+18
14372.0	2.332352145103257e+18
14373.0	2.331844253476454e+18
14374.0	2.331333585220403e+18
14375.0	2.3308228163010555e+18
14376.0	2.3303121178460155e+18
14377.0	2.3298011945762816e+18
14378.0	2.329289648871833e+18
14379.0	2.328780514053325e+18
14380.0	2.3282694800539643e+18
14381.0	2.3277525488631803e+18
14382.0	2.327248859928985e+18
14383.0	2.3267377336549376e+18
14384.0	2.3262173128032256e+18
14385.0	2.3257200965189627e+18
14386.0	2.325200309846016e+18
14387.0	2.324700451150233e+18
14388.0	2.324190269433446e+18
14389.0	2.323681000397209e+18
14390.0	2.323170956253593e+18
14391.0	2.322662480779673e+18
14392.0	2.322152587631001e+18
14393.0	2.3216437799682043e+18
14394.0	2.321109749438873e+18
14395.0	2.3206143534825467e+18
14396.0	2.320115523230105e+18
14397.0	2.3196075812716544e+18
14398.0	2.3190981729845243e+18
14399.0	2.318588902270566e+18
14400.0	2.318070128941465e+18
14401.0	2.3175640844861435e+18
14402.0	2.3170481263738875e+18
14403.0	2.3158627976085494e+18
14404.0	2.3138099508805617e+18
14405.0	2.3147207020511217e+18
14406.0	2.3150050104311803e+18
14407.0	2.313672370998477e+18
14408.0	2.313954258426265e+18
14409.0	2.313494701958758e+18
14410.0	2.312979527342489e+18
14411.0	2.3124103871332347e+18
14412.0	2.311561830780109e+18
14413.0	2.3110552377098235e+18
14414.0	2.310545302618111e+18
14415.0	2.3100368556654587e+18
14416.0	2.3095203455827963e+18
14417.0	2.308990163746816e+18
14418.0	2.308489815156326e+18
14419.0	2.307998167230054e+18
14420.0	2.3074886700236795e+18
14421.0	2.306979278513766e+18
14422.0	2.306455955203686e+18
14423.0	2.3058740106231803e+18
14424.0	2.3019488333004782e+18
14425.0	2.304857606612582e+18
14426.0	2.304432453504204e+18
14427.0	2.3039373259833341e+18
14428.0	2.3034195676758013e+18
14429.0	2.30292454417367e+18
14430.0	2.3024036468490237e+18
14431.0	2.3014481089003517e+18
14432.0	2.301384543384371e+18
14433.0	2.3002563846602742e+18
14434.0	2.3003685739036664e+18
14435.0	2.2998478560952315e+18
14436.0	2.2993757217488893e+18
14437.0	2.2988752959832061e+18
14438.0	2.298316997210931e+18
14439.0	2.297852365635584e+18
14440.0	2.2973603586768893e+18
14441.0	2.296853000565555e+18
14442.0	2.2963453807296512e+18
14443.0	2.2958193277665277e+18
14444.0	2.2953331542458365e+18
14445.0	2.29482207159255e+18
14446.0	2.2933806101037056e+18
14447.0	2.2937810000412667e+18
14448.0	2.2933124056875005e+18
14449.0	2.2928093240885243e+18
14450.0	2.2923003520090112e+18
14451.0	2.291797491869286e+18
14452.0	2.2912899156541437e+18
14453.0	2.2907784001486843e+18
14454.0	2.2902797225689083e+18
14455.0	2.2897713108484093e+18
14456.0	2.2892606912462843e+18
14457.0	2.288756344645222e+18
14458.0	2.2882486543450112e+18
14459.0	2.28773919237079e+18
14460.0	2.287227499026841e+18
14461.0	2.2863512116133885e+18
14462.0	2.2857476915331064e+18
14463.0	2.285266896787865e+18
14464.0	2.2847777906098173e+18
14465.0	2.2842707479101437e+18
14466.0	2.283779866702643e+18
14467.0	2.2832605967679485e+18
14468.0	2.2827698548113403e+18
14469.0	2.2822398155816955e+18
14470.0	2.2817455554428923e+18
14471.0	2.2812597275328504e+18
14472.0	2.280758447806873e+18
14473.0	2.2802595370237947e+18
14474.0	2.2797568480116733e+18
14475.0	2.2792499848282104e+18
14476.0	2.2787092249575421e+18
14477.0	2.278242298259046e+18
14478.0	2.2777411846275067e+18
14479.0	2.2772359572226043e+18
14480.0	2.2767218815139837e+18
14481.0	2.2762298896547837e+18
14482.0	2.2757233653710843e+18
14483.0	2.2752166984810493e+18
14484.0	2.2747086189494264e+18
14485.0	2.2741888624754683e+18
14486.0	2.2735491455516667e+18
14487.0	2.2732010451632123e+18
14488.0	2.272652614749388e+18
14489.0	2.2721555343605752e+18
14490.0	2.2716871681769467e+18
14491.0	2.2711941428412413e+18
14492.0	2.270692061164339e+18
14493.0	2.2701773026230267e+18
14494.0	2.2696718587920376e+18
14495.0	2.2691779123871744e+18
14496.0	2.268606686769971e+18
14497.0	2.2681741835632637e+18
14498.0	2.2676734860066813e+18
14499.0	2.267170719819366e+18
14500.0	2.266666802715033e+18
14501.0	2.266139390797414e+18
14502.0	2.2655246350155773e+18
14503.0	2.265136311251763e+18
14504.0	2.2646512198615037e+18
14505.0	2.2641288226537472e+18
14506.0	2.263608041091891e+18
14507.0	2.2630148473880573e+18
14508.0	2.2626443661934587e+18
14509.0	2.262145027591372e+18
14510.0	2.2616432747479037e+18
14511.0	2.261140278712729e+18
14512.0	2.2606307009757176e+18
14513.0	2.2601346238644221e+18
14514.0	2.2596155267350528e+18
14515.0	2.2591223218831355e+18
14516.0	2.257491011095757e+18
14517.0	2.257799760524083e+18
14518.0	2.2571872210124795e+18
14519.0	2.2566863875604477e+18
14520.0	2.2561836465389568e+18
14521.0	2.2556797378232315e+18
14522.0	2.2551682978152443e+18
14523.0	2.2545980217884667e+18
14524.0	2.2541172555644923e+18
14525.0	2.2536637774823421e+18
14526.0	2.253166680316313e+18
14527.0	2.2526483297730557e+18
14528.0	2.2520985370492928e+18
14529.0	2.251653450930585e+18
14530.0	2.2511476010909693e+18
14531.0	2.2506521833242614e+18
14532.0	2.2500986090160123e+18
14533.0	2.2496469512617981e+18
14534.0	2.2491493994332152e+18
14535.0	2.2486400565772283e+18
14536.0	2.2481422044364795e+18
14537.0	2.247636784093593e+18
14538.0	2.2471410794364928e+18
14539.0	2.2466392024416253e+18
14540.0	2.2461368842059773e+18
14541.0	2.2456184329994232e+18
14542.0	2.2451284728610813e+18
14543.0	2.244593796408934e+18
14544.0	2.2441202779422715e+18
14545.0	2.243598558534041e+18
14546.0	2.2395569171333102e+18
14547.0	2.239313556904343e+18
14548.0	2.242088181275033e+18
14549.0	2.2415471848456187e+18
14550.0	2.2411097290047483e+18
14551.0	2.2406164369113085e+18
14552.0	2.24011517731799e+18
14553.0	2.2396118188949501e+18
14554.0	2.2391134365941757e+18
14555.0	2.23861143544791e+18
14556.0	2.2381086893932536e+18
14557.0	2.2376063627689981e+18
14558.0	2.237093956393369e+18
14559.0	2.235756369359666e+18
14560.0	2.2360843689656315e+18
14561.0	2.2355940615389181e+18
14562.0	2.2350766521974781e+18
14563.0	2.2345852156641277e+18
14564.0	2.234072059346944e+18
14565.0	2.2335932392800248e+18
14566.0	2.2330940785164285e+18
14567.0	2.2325885172449277e+18
14568.0	2.2320729282314237e+18
14569.0	2.231581887640371e+18
14570.0	2.2308423949352955e+18
14571.0	2.2305806619770877e+18
14572.0	2.2300573973872632e+18
14573.0	2.2295411356073984e+18
14574.0	2.2290402283356155e+18
14575.0	2.2285613982023677e+18
14576.0	2.2280546625257467e+18
14577.0	2.2275800652840955e+18
14578.0	2.2270854360465403e+18
14579.0	2.22658573673431e+18
14580.0	2.226084327823769e+18
14581.0	2.2255798721708027e+18
14582.0	2.224679408789094e+18
14583.0	2.2241485206323195e+18
14584.0	2.223626962285363e+18
14585.0	2.2231424312541184e+18
14586.0	2.2226425608142843e+18
14587.0	2.2221421384040443e+18
14588.0	2.2216410818150395e+18
14589.0	2.2211449526943736e+18
14590.0	2.2206493218570237e+18
14591.0	2.2201511677263867e+18
14592.0	2.2196500121518077e+18
14593.0	2.2190973136142328e+18
14594.0	2.2186628793499645e+18
14595.0	2.2181634417623037e+18
14596.0	2.2174306951757814e+18
14597.0	2.216887430466764e+18
14598.0	2.2166475146002427e+18
14599.0	2.2161833729196027e+18
14600.0	2.2156867220275195e+18
14601.0	2.2151914921656317e+18
14602.0	2.2146940544221184e+18
14603.0	2.2141964992380923e+18
14604.0	2.21367541736407e+18
14605.0	2.213182643686604e+18
14606.0	2.2126701618135037e+18
14607.0	2.2122102731571195e+18
14608.0	2.2117185094680573e+18
14609.0	2.2112193990361083e+18
14610.0	2.2107216660135933e+18
14611.0	2.2102285551140861e+18
14612.0	2.2097386922835965e+18
14613.0	2.2092457390899195e+18
14614.0	2.2087498767269885e+18
14615.0	2.2082546703532027e+18
14616.0	2.2077607373701115e+18
14617.0	2.2072627308789757e+18
14618.0	2.2067331228237821e+18
14619.0	2.205964541781606e+18
14620.0	2.2051385289736187e+18
14621.0	2.2052663327719421e+18
14622.0	2.2047852310036475e+18
14623.0	2.2042920966160376e+18
14624.0	2.2037668925800445e+18
14625.0	2.203299283048857e+18
14626.0	2.2028067106979832e+18
14627.0	2.2023095262904315e+18
14628.0	2.2018167022813181e+18
14629.0	2.2013199171715067e+18
14630.0	2.2008213939421184e+18
14631.0	2.200326192601497e+18
14632.0	2.1995691257626621e+18
14633.0	2.1992670335336445e+18
14634.0	2.198831294001971e+18
14635.0	2.1983036656582653e+18
14636.0	2.1977393405100027e+18
14637.0	2.1973519327821821e+18
14638.0	2.1968391354974205e+18
14639.0	2.1963369632235517e+18
14640.0	2.1958393275088893e+18
14641.0	2.1942895372140536e+18
14642.0	2.1948428179210237e+18
14643.0	2.1943650799845373e+18
14644.0	2.1938601294036987e+18
14645.0	2.1933541805785085e+18
14646.0	2.192834494568857e+18
14647.0	2.1923314834341883e+18
14648.0	2.1918514252087293e+18
14649.0	2.191368806780108e+18
14650.0	2.1908692970504187e+18
