# Flux units: erg / (cm m2 s)
# Wavelength units: Angstrom
wave	flux
14000.0	2.389936833560575e+18
14001.0	2.3893735636992e+18
14002.0	2.3888208265740283e+18
14003.0	2.3882568487141376e+18
14004.0	2.387692904408678e+18
14005.0	2.387128963458662e+18
14006.0	2.386563415251353e+18
14007.0	2.3860000598261755e+18
14008.0	2.3854108741992443e+18
14009.0	2.384874409295872e+18
14010.0	2.3843073377173504e+18
14011.0	2.383605404165734e+18
14012.0	2.3831852942884864e+18
14013.0	2.3826226921603067e+18
14014.0	2.38206009338757e+18
14015.0	2.381497048340889e+18
14016.0	2.380935478011494e+18
14017.0	2.3803733842329595e+18
14018.0	2.379811194824294e+18
14019.0	2.379249676504269e+18
14020.0	2.3786741039103995e+18
14021.0	2.3780538267467776e+18
14022.0	2.3774867887226875e+18
14023.0	2.376902153076735e+18
14024.0	2.3763545111920635e+18
14025.0	2.3758078373527547e+18
14026.0	2.3752477534846976e+18
14027.0	2.374687631029043e+18
14028.0	2.3741270287450107e+18
14029.0	2.3735659231444987e+18
14030.0	2.3714056368029706e+18
14031.0	2.3724277752659963e+18
14032.0	2.371884572632678e+18
14033.0	2.3712994387034107e+18
14034.0	2.370761811138969e+18
14035.0	2.37020691646382e+18
14036.0	2.3696428815613947e+18
14037.0	2.3690874818920443e+18
14038.0	2.3685013564293115e+18
14039.0	2.367900505604096e+18
14040.0	2.3673387121377275e+18
14041.0	2.366781958547046e+18
14042.0	2.366221832735948e+18
14043.0	2.3656564422344704e+18
14044.0	2.365105597579264e+18
14045.0	2.3645491996655606e+18
14046.0	2.363990229804646e+18
14047.0	2.363425696618905e+18
14048.0	2.3628742664388603e+18
14049.0	2.3623192291573755e+18
14050.0	2.361762151766425e+18
14051.0	2.3612027054325755e+18
14052.0	2.3606481597235195e+18
14053.0	2.360091297080934e+18
14054.0	2.359534798503935e+18
14055.0	2.358978321737318e+18
14056.0	2.358422006031974e+18
14057.0	2.3578658597765115e+18
14058.0	2.357253330331238e+18
14059.0	2.356681473890713e+18
14060.0	2.3561281227194363e+18
14061.0	2.3555709077553147e+18
14062.0	2.355016878784512e+18
14063.0	2.3544569861767163e+18
14064.0	2.3537018336182267e+18
14065.0	2.3533490607751163e+18
14066.0	2.3527960451481595e+18
14067.0	2.3521985162117115e+18
14068.0	2.3516866634842107e+18
14069.0	2.351128166740787e+18
14070.0	2.350576605698457e+18
14071.0	2.3500230146129915e+18
14072.0	2.3494696483422203e+18
14073.0	2.348915760300032e+18
14074.0	2.3483619393667067e+18
14075.0	2.347801838721433e+18
14076.0	2.347207812867686e+18
14077.0	2.346316956119859e+18
14078.0	2.3461191527432187e+18
14079.0	2.345593567864422e+18
14080.0	2.345025872173465e+18
14081.0	2.3444219427291136e+18
14082.0	2.3438649676791803e+18
14083.0	2.3433163258724347e+18
14084.0	2.342764051798425e+18
14085.0	2.341898711518413e+18
14086.0	2.3416288164446203e+18
14087.0	2.3411080382382075e+18
14088.0	2.3405481640853504e+18
14089.0	2.3399653135351803e+18
14090.0	2.3394467079782395e+18
14091.0	2.338901832656486e+18
14092.0	2.338350895726592e+18
14093.0	2.3377998698774523e+18
14094.0	2.3372488725495803e+18
14095.0	2.336697524577894e+18
14096.0	2.336067367311769e+18
14097.0	2.3355641884049403e+18
14098.0	2.3350092400427003e+18
14099.0	2.334496407525785e+18
14100.0	2.333940561582489e+18
14101.0	2.333397521688166e+18
14102.0	2.3328477843292155e+18
14103.0	2.332295337449881e+18
14104.0	2.3317491333726203e+18
14105.0	2.3311744868810747e+18
14106.0	2.330583897001165e+18
14107.0	2.3300328644411387e+18
14108.0	2.3294794847485947e+18
14109.0	2.328935319103078e+18
14110.0	2.328382169258393e+18
14111.0	2.3278299539046395e+18
14112.0	2.327288751115468e+18
14113.0	2.326716007160217e+18
14114.0	2.3261891707011067e+18
14115.0	2.3256413509779456e+18
14116.0	2.325001543457177e+18
14117.0	2.3219877279956997e+18
14118.0	2.3240011314888694e+18
14119.0	2.3234081256898555e+18
14120.0	2.3228651109613563e+18
14121.0	2.3223476462551035e+18
14122.0	2.321779593209446e+18
14123.0	2.3211914444144635e+18
14124.0	2.3206388314406907e+18
14125.0	2.3200509712138235e+18
14126.0	2.319609111353753e+18
14127.0	2.3190842546061307e+18
14128.0	2.318538352518758e+18
14129.0	2.3179898130530304e+18
14130.0	2.317441176279449e+18
14131.0	2.316897980357017e+18
14132.0	2.3163558279774203e+18
14133.0	2.3156034419818486e+18
14134.0	2.3152005170069504e+18
14135.0	2.314633685342617e+18
14136.0	2.3139521377861627e+18
14137.0	2.3135587204595707e+18
14138.0	2.3129846729146363e+18
14139.0	2.3124765329850363e+18
14140.0	2.3119234166947835e+18
14141.0	2.3113671714537467e+18
14142.0	2.310605522757222e+18
14143.0	2.3102899835895803e+18
14144.0	2.3097569630486523e+18
14145.0	2.3092138409459707e+18
14146.0	2.308667066443366e+18
14147.0	2.3081237916680187e+18
14148.0	2.3075697576640507e+18
14149.0	2.307020221631693e+18
14150.0	2.3064982941859835e+18
14151.0	2.3059259344289787e+18
14152.0	2.3054131354664955e+18
14153.0	2.3048706861301755e+18
14154.0	2.304320977292492e+18
14155.0	2.3035856738582523e+18
14156.0	2.303228443308851e+18
14157.0	2.30270178468823e+18
14158.0	2.302157157669273e+18
14159.0	2.3016191912050683e+18
14160.0	2.3010769431953405e+18
14161.0	2.3005194866393083e+18
14162.0	2.2999664257138683e+18
14163.0	2.2994520530485243e+18
14164.0	2.298787853133414e+18
14165.0	2.2982018971205627e+18
14166.0	2.2977465081135101e+18
14167.0	2.2972030169120768e+18
14168.0	2.296651481035571e+18
14169.0	2.296124401306828e+18
14170.0	2.2955769926254587e+18
14171.0	2.2950445190217723e+18
14172.0	2.2945073528307704e+18
14173.0	2.2939277570605048e+18
14174.0	2.2934237913022461e+18
14175.0	2.2928887440736248e+18
14176.0	2.2923454491656187e+18
14177.0	2.2918091772002301e+18
14178.0	2.291270341676236e+18
14179.0	2.290724348991897e+18
14180.0	2.2901939591184381e+18
14181.0	2.2896554004185085e+18
14182.0	2.2891167829983227e+18
14183.0	2.288578668894617e+18
14184.0	2.288039014642483e+18
14185.0	2.2875014910967805e+18
14186.0	2.2864519671840765e+18
14187.0	2.2864179010469883e+18
14188.0	2.28588895904727e+18
14189.0	2.285346450990694e+18
14190.0	2.2848106571759613e+18
14191.0	2.2842711237197821e+18
14192.0	2.2837379421175803e+18
14193.0	2.2831155694796795e+18
14194.0	2.282661994089676e+18
14195.0	2.2821304734318587e+18
14196.0	2.2815941326798843e+18
14197.0	2.281057879169433e+18
14198.0	2.2805204713865213e+18
14199.0	2.2799841792884728e+18
14200.0	2.2791439192686592e+18
14201.0	2.278844377176473e+18
14202.0	2.2783160995545083e+18
14203.0	2.277771247720857e+18
14204.0	2.2772442283900923e+18
14205.0	2.2767090066784248e+18
14206.0	2.2761426246434813e+18
14207.0	2.2756394088267768e+18
14208.0	2.2751046652657661e+18
14209.0	2.2745339899412475e+18
14210.0	2.2740120675287037e+18
14211.0	2.2735005872553976e+18
14212.0	2.2729661221961723e+18
14213.0	2.272423870831001e+18
14214.0	2.271897814512435e+18
14215.0	2.271361118083481e+18
14216.0	2.2708303876325373e+18
14217.0	2.2702967144579072e+18
14218.0	2.2697596707405821e+18
14219.0	2.269229753984614e+18
14220.0	2.2686943695339517e+18
14221.0	2.268153500611379e+18
14222.0	2.2675597264158715e+18
14223.0	2.2670953800531965e+18
14224.0	2.266564327479705e+18
14225.0	2.2652321359986693e+18
14226.0	2.265497113670451e+18
14227.0	2.264967156649164e+18
14228.0	2.2627201321009157e+18
14229.0	2.263663634074827e+18
14230.0	2.2633713665835008e+18
14231.0	2.26277084626944e+18
14232.0	2.262308102130892e+18
14233.0	2.261774729268428e+18
14234.0	2.2612453074403323e+18
14235.0	2.2607134646599677e+18
14236.0	2.2601827023323133e+18
14237.0	2.2596506196377595e+18
14238.0	2.2591199579734008e+18
14239.0	2.258582323698073e+18
14240.0	2.2577153090519032e+18
14241.0	2.257473183626035e+18
14242.0	2.2569355208294395e+18
14243.0	2.256367051708825e+18
14244.0	2.2558782491983864e+18
14245.0	2.2553440559300598e+18
14246.0	2.2548103508787192e+18
14247.0	2.2542884653760504e+18
14248.0	2.2537556344176637e+18
14249.0	2.25322884661248e+18
14250.0	2.2526993929076733e+18
14251.0	2.2521708250398715e+18
14252.0	2.2516416850690045e+18
14253.0	2.2511124511457277e+18
14254.0	2.2505829856968701e+18
14255.0	2.2500466030018557e+18
14256.0	2.2486888682094592e+18
14257.0	2.2489774749122555e+18
14258.0	2.2484691755991037e+18
14259.0	2.2479336233762813e+18
14260.0	2.2473903452454904e+18
14261.0	2.2468789203369981e+18
14262.0	2.246366054265651e+18
14263.0	2.244611672532583e+18
14264.0	2.2451174451970043e+18
14265.0	2.2447780538613755e+18
14266.0	2.2442576061661184e+18
14267.0	2.2437305650249728e+18
14268.0	2.243203750376243e+18
14269.0	2.2426762931601403e+18
14270.0	2.2421501261119483e+18
14271.0	2.2416219793522683e+18
14272.0	2.2410957233848317e+18
14273.0	2.240567063242342e+18
14274.0	2.238239550000334e+18
14275.0	2.2393488209346555e+18
14276.0	2.2389808798105595e+18
14277.0	2.2384595932545021e+18
14278.0	2.2379407444279293e+18
14279.0	2.2374151327055867e+18
14280.0	2.2368878013186045e+18
14281.0	2.2363645501505533e+18
14282.0	2.2358394216120317e+18
14283.0	2.2353143048175608e+18
14284.0	2.2347892232552443e+18
14285.0	2.2342637440729085e+18
14286.0	2.2337373387882493e+18
14287.0	2.233214798974156e+18
14288.0	2.2326904740642813e+18
14289.0	2.2319446865477622e+18
14290.0	2.2315811913859072e+18
14291.0	2.2310585408421883e+18
14292.0	2.2305346521399296e+18
14293.0	2.2300100403396605e+18
14294.0	2.2294487384457213e+18
14295.0	2.228958233047859e+18
14296.0	2.228259339527782e+18
14297.0	2.2279152405053437e+18
14298.0	2.227082375882342e+18
14299.0	2.226854804691353e+18
14300.0	2.2263435441995776e+18
14301.0	2.2258219220991995e+18
14302.0	2.2252985232916475e+18
14303.0	2.2247643098906621e+18
14304.0	2.2242485933703165e+18
14305.0	2.2237261911293952e+18
14306.0	2.2231675115143165e+18
14307.0	2.2226592675659768e+18
14308.0	2.2221435275575293e+18
14309.0	2.2216048480616448e+18
14310.0	2.2209415323058168e+18
14311.0	2.2203593612328957e+18
14312.0	2.21995882030039e+18
14313.0	2.2195042433105917e+18
14314.0	2.2190037923790843e+18
14315.0	2.2184998165544955e+18
14316.0	2.217972048959897e+18
14317.0	2.2174146444132347e+18
14318.0	2.216947818378035e+18
14319.0	2.2164288839876605e+18
14320.0	2.21590896813015e+18
14321.0	2.2153891831349245e+18
14322.0	2.2148573873307645e+18
14323.0	2.2143449809551355e+18
14324.0	2.213815451752857e+18
14325.0	2.213274363048755e+18
14326.0	2.212757775790899e+18
14327.0	2.2122360899371005e+18
14328.0	2.2117169542201344e+18
14329.0	2.2111991355146237e+18
14330.0	2.2106797665943547e+18
14331.0	2.210151931890892e+18
14332.0	2.2096413726867456e+18
14333.0	2.2091223342776317e+18
14334.0	2.2086033898209277e+18
14335.0	2.2080803366240253e+18
14336.0	2.2074730601250816e+18
14337.0	2.2070470396346365e+18
14338.0	2.2065281740308475e+18
14339.0	2.2060026042515453e+18
14340.0	2.2054911541772285e+18
14341.0	2.2049662907187192e+18
14342.0	2.2044558204338173e+18
14343.0	2.2039342553759744e+18
14344.0	2.20341724029911e+18
14345.0	2.2028700950200315e+18
14346.0	2.2023223474388987e+18
14347.0	2.2017747357532157e+18
14348.0	2.2012884749910008e+18
14349.0	2.200774330495795e+18
14350.0	2.200187231954534e+18
14351.0	2.1996640948715515e+18
14352.0	2.1992221477699584e+18
14353.0	2.1987071107268605e+18
14354.0	2.198181502359961e+18
14355.0	2.1976476127592445e+18
14356.0	2.1971386339688445e+18
14357.0	2.1966404345397245e+18
14358.0	2.196124087196057e+18
14359.0	2.195603020421529e+18
14360.0	2.1950852470145021e+18
14361.0	2.1945733372444667e+18
14362.0	2.1940595752697853e+18
14363.0	2.1935434275749883e+18
14364.0	2.1927585055244285e+18
14365.0	2.1924508868804603e+18
14366.0	2.191936281011814e+18
14367.0	2.1914579156074493e+18
14368.0	2.1909424977215485e+18
14369.0	2.1904274422235133e+18
14370.0	2.1899125695971328e+18
14371.0	2.189397975472537e+18
14372.0	2.1888824317575165e+18
14373.0	2.1883682117648381e+18
14374.0	2.18785360421847e+18
14375.0	2.1873390436483067e+18
14376.0	2.1868245518647293e+18
14377.0	2.1863100114272246e+18
14378.0	2.185795190810214e+18
14379.0	2.1852817123704827e+18
14380.0	2.1847675041218555e+18
14381.0	2.1842500763254776e+18
14382.0	2.183739302372966e+18
14383.0	2.1832201079357437e+18
14384.0	2.1827060506820605e+18
14385.0	2.1821988033003515e+18
14386.0	2.1816808788983803e+18
14387.0	2.181171901785702e+18
14388.0	2.1806580559249405e+18
14389.0	2.1801454364786685e+18
14390.0	2.17963188757463e+18
14391.0	2.17911611401175e+18
14392.0	2.1786050061926392e+18
14393.0	2.1780937373122557e+18
14394.0	2.1775694593785848e+18
14395.0	2.1770251830034427e+18
14396.0	2.176553441243955e+18
14397.0	2.176043491052748e+18
14398.0	2.1755295193628667e+18
14399.0	2.175015499019059e+18
14400.0	2.1744837954895872e+18
14401.0	2.1739911879065595e+18
14402.0	2.1734817729085432e+18
14403.0	2.1717029836816358e+18
14404.0	2.1690781999824886e+18
14405.0	2.1716066321301486e+18
14406.0	2.171434979400089e+18
14407.0	2.1690464323239939e+18
14408.0	2.1703636853719037e+18
14409.0	2.1698676720140283e+18
14410.0	2.1693179698872315e+18
14411.0	2.168822265230131e+18
14412.0	2.168312153977651e+18
14413.0	2.167801836365414e+18
14414.0	2.167290005448294e+18
14415.0	2.1667792784719867e+18
14416.0	2.1662552840732667e+18
14417.0	2.1657074542837755e+18
14418.0	2.1652065335902205e+18
14419.0	2.1647352884363261e+18
14420.0	2.1642241420296184e+18
14421.0	2.1637143965204472e+18
14422.0	2.1632025437929464e+18
14423.0	2.1626741420195837e+18
14424.0	2.1545220558553037e+18
14425.0	2.161665515926323e+18
14426.0	2.1611628990562301e+18
14427.0	2.1606540309954555e+18
14428.0	2.1601369588760573e+18
14429.0	2.159633919220121e+18
14430.0	2.1591248464773115e+18
14431.0	2.158238408848179e+18
14432.0	2.1580988911976443e+18
14433.0	2.15620537936773e+18
14434.0	2.1570821281546232e+18
14435.0	2.156519732386201e+18
14436.0	2.1560674035433464e+18
14437.0	2.155559459907174e+18
14438.0	2.1549755406483453e+18
14439.0	2.154529511650099e+18
14440.0	2.1540325856116733e+18
14441.0	2.1535228417802237e+18
14442.0	2.1530129620533245e+18
14443.0	2.1524946417090555e+18
14444.0	2.1519967811796987e+18
14445.0	2.1514890472587261e+18
14446.0	2.1494553500450819e+18
14447.0	2.1504676218273787e+18
14448.0	2.1499641107316733e+18
14449.0	2.149455853361561e+18
14450.0	2.1489457370759163e+18
14451.0	2.1484388504043515e+18
14452.0	2.1479289153126395e+18
14453.0	2.1473932943032317e+18
14454.0	2.1469136034988027e+18
14455.0	2.1464037556486136e+18
14456.0	2.1458866113871867e+18
14457.0	2.1453753559285757e+18
14458.0	2.1448584566145021e+18
14459.0	2.1443571802439677e+18
14460.0	2.1438383112847355e+18
14461.0	2.1432652905054203e+18
14462.0	2.1426075598847995e+18
14463.0	2.14228853105623e+18
14464.0	2.1418167540645883e+18
14465.0	2.141315214291763e+18
14466.0	2.140817524890009e+18
14467.0	2.1402893647085563e+18
14468.0	2.1398045216210936e+18
14469.0	2.1392677010407424e+18
14470.0	2.13878553224151e+18
14471.0	2.1382846199365627e+18
14472.0	2.1377795535929344e+18
14473.0	2.1372756700430333e+18
14474.0	2.1367700013973501e+18
14475.0	2.1362620225290235e+18
14476.0	2.1356657300733947e+18
14477.0	2.1352486786826237e+18
14478.0	2.1347437465567227e+18
14479.0	2.1342347509891072e+18
14480.0	2.133725852729344e+18
14481.0	2.1332253179117565e+18
14482.0	2.1327181829373947e+18
14483.0	2.1322099138232317e+18
14484.0	2.1317053306634237e+18
14485.0	2.131189778559795e+18
14486.0	2.1306150364381181e+18
14487.0	2.13013712905175e+18
14488.0	2.129532260083302e+18
14489.0	2.1290852395515901e+18
14490.0	2.1286115298246648e+18
14491.0	2.1281133488504827e+18
14492.0	2.1276067255812093e+18
14493.0	2.127095449989939e+18
14494.0	2.126587769756057e+18
14495.0	2.126089907548979e+18
14496.0	2.1255476511506427e+18
14497.0	2.1250785836793853e+18
14498.0	2.1245726734417915e+18
14499.0	2.1240673168523261e+18
14500.0	2.1235613982261243e+18
14501.0	2.12300991603671e+18
14502.0	2.1224116606468093e+18
14503.0	2.1220177416814587e+18
14504.0	2.12153687647191e+18
14505.0	2.1209889627963387e+18
14506.0	2.120430885483315e+18
14507.0	2.1199555315892221e+18
14508.0	2.1195159668523005e+18
14509.0	2.1190104525570043e+18
14510.0	2.1185049080627192e+18
14511.0	2.1179993551798267e+18
14512.0	2.1174892791595005e+18
14513.0	2.1169883232337917e+18
14514.0	2.1164701119414264e+18
14515.0	2.115976636976332e+18
14516.0	2.1149315003056128e+18
14517.0	2.114966059692851e+18
14518.0	2.114460808799846e+18
14519.0	2.113955423689113e+18
14520.0	2.1134499463036925e+18
14521.0	2.1129322332946427e+18
14522.0	2.1124037224693757e+18
14523.0	2.1117564289548283e+18
14524.0	2.1112931898884093e+18
14525.0	2.1108937528967165e+18
14526.0	2.1103901663035387e+18
14527.0	2.109877776705126e+18
14528.0	2.1093312588939261e+18
14529.0	2.108871390370201e+18
14530.0	2.108364731868774e+18
14531.0	2.1078632994701304e+18
14532.0	2.107217861515673e+18
14533.0	2.1068528027172861e+18
14534.0	2.1063481876807677e+18
14535.0	2.105839547790131e+18
14536.0	2.1053373067296765e+18
14537.0	2.1048283648491515e+18
14538.0	2.1043261976084477e+18
14539.0	2.1038208158531584e+18
14540.0	2.103315167340134e+18
14541.0	2.1028031871057915e+18
14542.0	2.1023036790538235e+18
14543.0	2.1017315055239165e+18
14544.0	2.1012918954885115e+18
14545.0	2.1007838461558781e+18
14546.0	2.092620267598638e+18
14547.0	2.092953385933203e+18
14548.0	2.0992647380336637e+18
14549.0	2.0987304038367227e+18
14550.0	2.0982551891935227e+18
14551.0	2.0977511143833597e+18
14552.0	2.0972440330960896e+18
14553.0	2.0967364971462653e+18
14554.0	2.096232477700915e+18
14555.0	2.0957257269247997e+18
14556.0	2.0952167951106043e+18
14557.0	2.0947124568981501e+18
14558.0	2.094203427776102e+18
14559.0	2.093235587094936e+18
14560.0	2.0931281072160758e+18
14561.0	2.0926823248429053e+18
14562.0	2.0921632579125243e+18
14563.0	2.0916695497441275e+18
14564.0	2.091126716209561e+18
14565.0	2.090659942183731e+18
14566.0	2.0901530773225467e+18
14567.0	2.089641229628211e+18
14568.0	2.0890587095891965e+18
14569.0	2.0886260453212155e+18
14570.0	2.0879551529746427e+18
14571.0	2.0876146711199744e+18
14572.0	2.0870592865501184e+18
14573.0	2.0865752336695286e+18
14574.0	2.085991844570726e+18
14575.0	2.0855679480758272e+18
14576.0	2.0850626535620605e+18
14577.0	2.0845032592375805e+18
14578.0	2.0839717301911547e+18
14579.0	2.0834644358332416e+18
14580.0	2.0829555174408187e+18
14581.0	2.0824415373623296e+18
14582.0	2.0819332665704443e+18
14583.0	2.0814307939844093e+18
14584.0	2.0809057644314621e+18
14585.0	2.0804131333603325e+18
14586.0	2.0799033056428027e+18
14587.0	2.0793931054710784e+18
14588.0	2.0788864218038264e+18
14589.0	2.0783684051271677e+18
14590.0	2.0778713129943035e+18
14591.0	2.07737320416215e+18
14592.0	2.0768826685652987e+18
14593.0	2.0763583252004856e+18
14594.0	2.0758971111440376e+18
14595.0	2.0754013326671867e+18
14596.0	2.0747213135151096e+18
14597.0	2.0741939099860984e+18
14598.0	2.0739017280585728e+18
14599.0	2.0734237871177725e+18
14600.0	2.0729220812505083e+18
14601.0	2.0724292454973437e+18
14602.0	2.0719231138004987e+18
14603.0	2.0714340713758715e+18
14604.0	2.0709165261389821e+18
14605.0	2.0704035073949693e+18
14606.0	2.0699219291537405e+18
14607.0	2.0694553749094397e+18
14608.0	2.0689578750902272e+18
14609.0	2.068445087871795e+18
14610.0	2.067907797529395e+18
14611.0	2.067450836497203e+18
14612.0	2.0669715080806392e+18
14613.0	2.0664786605834235e+18
14614.0	2.0659821573308408e+18
14615.0	2.0654782318379003e+18
14616.0	2.0649892850434045e+18
14617.0	2.064491620807475e+18
14618.0	2.063948173226803e+18
14619.0	2.0633648512368627e+18
14620.0	2.0624267045502973e+18
14621.0	2.0624972376440827e+18
14622.0	2.0619982261977083e+18
14623.0	2.061498627548774e+18
14624.0	2.0609823456362493e+18
14625.0	2.0604980008321021e+18
14626.0	2.059994503158169e+18
14627.0	2.0594899585859584e+18
14628.0	2.0589941733982205e+18
14629.0	2.0584918551625725e+18
14630.0	2.0579848124628984e+18
14631.0	2.057486149982617e+18
14632.0	2.056384383497011e+18
14633.0	2.0563836000010235e+18
14634.0	2.055968811856691e+18
14635.0	2.0552697270763502e+18
14636.0	2.054315635323699e+18
14637.0	2.05446483846103e+18
14638.0	2.0539458789048315e+18
14639.0	2.0534412756123643e+18
14640.0	2.0529466279198715e+18
14641.0	2.0501285186830313e+18
14642.0	2.051933554186649e+18
14643.0	2.0514266238943227e+18
14644.0	2.050913408856883e+18
14645.0	2.050404780710297e+18
14646.0	2.0498523908734973e+18
14647.0	2.0493402730659837e+18
14648.0	2.0488742187827197e+18
