# Flux units: erg / (cm m2 s)
# Wavelength units: Angstrom
wave	flux
14000.0	1.801583351509811e+18
14001.0	1.8011511184162808e+18
14002.0	1.8010024806711293e+18
14003.0	1.8006826901569533e+18
14004.0	1.800361976895897e+18
14005.0	1.8000409431900155e+18
14006.0	1.799710309561139e+18
14007.0	1.7993876031668221e+18
14008.0	1.7989611699568637e+18
14009.0	1.798750367593267e+18
14010.0	1.7984169606905853e+18
14011.0	1.7973196955320317e+18
14012.0	1.7977883569946621e+18
14013.0	1.797474732107366e+18
14014.0	1.7971481719865341e+18
14015.0	1.7968322754641915e+18
14016.0	1.7965147431632893e+18
14017.0	1.7961948486303741e+18
14018.0	1.7958718503124984e+18
14019.0	1.7955547793850365e+18
14020.0	1.795233936939417e+18
14021.0	1.794913208578867e+18
14022.0	1.7945928543502333e+18
14023.0	1.794261509367398e+18
14024.0	1.793939125095628e+18
14025.0	1.7936353048133624e+18
14026.0	1.7933141704441853e+18
14027.0	1.792996663309107e+18
14028.0	1.792669515985715e+18
14029.0	1.7923513394397181e+18
14030.0	1.7914358604496896e+18
14031.0	1.791669364064256e+18
14032.0	1.7913974372696061e+18
14033.0	1.7910305933754365e+18
14034.0	1.7907611378647035e+18
14035.0	1.7904438438002685e+18
14036.0	1.7901253585534976e+18
14037.0	1.789806769287987e+18
14038.0	1.7894881800224768e+18
14039.0	1.7891646498668544e+18
14040.0	1.7888465941168125e+18
14041.0	1.7885308301344765e+18
14042.0	1.788201562170982e+18
14043.0	1.7878467274080253e+18
14044.0	1.7875604057620477e+18
14045.0	1.7872531427950587e+18
14046.0	1.7869362765496317e+18
14047.0	1.7866140550168576e+18
14048.0	1.7863043509649403e+18
14049.0	1.785987813552947e+18
14050.0	1.7856700346269693e+18
14051.0	1.78534211387392e+18
14052.0	1.785029696946176e+18
14053.0	1.7847170182938621e+18
14054.0	1.7843996990636024e+18
14055.0	1.7840822674259965e+18
14056.0	1.7837648676651005e+18
14057.0	1.78344762057687e+18
14058.0	1.78313037348864e+18
14059.0	1.7828106081402877e+18
14060.0	1.7824960806387712e+18
14061.0	1.7821704449425405e+18
14062.0	1.7818617273909243e+18
14063.0	1.7815261109288955e+18
14064.0	1.7811069288316928e+18
14065.0	1.7809006210842621e+18
14066.0	1.7805949888626685e+18
14067.0	1.7802762301472768e+18
14068.0	1.77996194423767e+18
14069.0	1.7796438280896507e+18
14070.0	1.7793286982860797e+18
14071.0	1.7790091443306493e+18
14072.0	1.7786965562753024e+18
14073.0	1.7783803879620603e+18
14074.0	1.7780642985017341e+18
14075.0	1.7777271905452032e+18
14076.0	1.7774287171616765e+18
14077.0	1.776982371074048e+18
14078.0	1.7767892032421888e+18
14079.0	1.7764725215461379e+18
14080.0	1.77616899318743e+18
14081.0	1.7758535110623227e+18
14082.0	1.7755366968262653e+18
14083.0	1.775220204712755e+18
14084.0	1.7749036320686075e+18
14085.0	1.7742612693778427e+18
14086.0	1.7742585011372027e+18
14087.0	1.7739584808943608e+18
14088.0	1.773631687570227e+18
14089.0	1.77332904001536e+18
14090.0	1.77301467693056e+18
14091.0	1.772701466440499e+18
14092.0	1.7723868013658112e+18
14093.0	1.7720720222060541e+18
14094.0	1.771757192714649e+18
14095.0	1.771441853195878e+18
14096.0	1.7711037906157563e+18
14097.0	1.7707913871097853e+18
14098.0	1.7704881674518525e+18
14099.0	1.7701841357766656e+18
14100.0	1.7698551094050808e+18
14101.0	1.7695565118701565e+18
14102.0	1.769242128652697e+18
14103.0	1.7689086680629248e+18
14104.0	1.768610884222976e+18
14105.0	1.7683004302295035e+18
14106.0	1.7679865671057403e+18
14107.0	1.7676724573569021e+18
14108.0	1.7673452362137595e+18
14109.0	1.767039563726848e+18
14110.0	1.7667295073533952e+18
14111.0	1.766408151524966e+18
14112.0	1.7660945585143805e+18
14113.0	1.765790718099456e+18
14114.0	1.7654611716341757e+18
14115.0	1.7651600206069757e+18
14116.0	1.764820775233126e+18
14117.0	1.7634626461761533e+18
14118.0	1.7642149180866557e+18
14119.0	1.7638883462217723e+18
14120.0	1.7635849856352253e+18
14121.0	1.763270085679513e+18
14122.0	1.7629577392160765e+18
14123.0	1.7626497799946237e+18
14124.0	1.7623300498784256e+18
14125.0	1.7614709490450424e+18
14126.0	1.7617169332305912e+18
14127.0	1.7614099017891837e+18
14128.0	1.7610968641044475e+18
14129.0	1.7607722367188987e+18
14130.0	1.7604485119475712e+18
14131.0	1.7601612105121787e+18
14132.0	1.7598354036883453e+18
14133.0	1.7588778843504625e+18
14134.0	1.7592175156002813e+18
14135.0	1.7588968325382141e+18
14136.0	1.7585947084324861e+18
14137.0	1.758287371645747e+18
14138.0	1.7579697319706621e+18
14139.0	1.7576668679897088e+18
14140.0	1.7573529964773376e+18
14141.0	1.7570295720181757e+18
14142.0	1.7566681203212285e+18
14143.0	1.7564186179534843e+18
14144.0	1.7561111503044603e+18
14145.0	1.7557982216716285e+18
14146.0	1.7554858030661624e+18
14147.0	1.755177065381888e+18
14148.0	1.7548665795117053e+18
14149.0	1.7545570985967613e+18
14150.0	1.7542462671159288e+18
14151.0	1.7539325600202747e+18
14152.0	1.7536226428977147e+18
14153.0	1.7533142457909248e+18
14154.0	1.7529731482124285e+18
14155.0	1.7526680075632637e+18
14156.0	1.7523796994949117e+18
14157.0	1.7520723576750077e+18
14158.0	1.7517573822218235e+18
14159.0	1.7514516896022523e+18
14160.0	1.7511300703715323e+18
14161.0	1.7507602501992443e+18
14162.0	1.7503928493015037e+18
14163.0	1.7502057900539904e+18
14164.0	1.749861107184435e+18
14165.0	1.7495579059814395e+18
14166.0	1.7492800635404285e+18
14167.0	1.7489553136812027e+18
14168.0	1.748659128709939e+18
14169.0	1.748353894108365e+18
14170.0	1.748040765826662e+18
14171.0	1.7477313100775424e+18
14172.0	1.7474255822258176e+18
14173.0	1.7470863603400704e+18
14174.0	1.7468002517647357e+18
14175.0	1.7464982786539515e+18
14176.0	1.746189425206886e+18
14177.0	1.7458805080063995e+18
14178.0	1.7455710270914557e+18
14179.0	1.7452567160160256e+18
14180.0	1.744953994641408e+18
14181.0	1.7446452754120696e+18
14182.0	1.744335614980915e+18
14183.0	1.744027826887065e+18
14184.0	1.7437128178794493e+18
14185.0	1.7434079775424507e+18
14186.0	1.7428972522438653e+18
14187.0	1.7427567279603707e+18
14188.0	1.7424803182936061e+18
14189.0	1.7421759141642235e+18
14190.0	1.7418679029334013e+18
14191.0	1.7415591988035584e+18
14192.0	1.7412426781687805e+18
14193.0	1.7409150979932157e+18
14194.0	1.740635374826291e+18
14195.0	1.740330351617638e+18
14196.0	1.7400224645382141e+18
14197.0	1.7397148257615864e+18
14198.0	1.7394007797661696e+18
14199.0	1.7390940385705981e+18
14200.0	1.7386738196414461e+18
14201.0	1.7384749626556408e+18
14202.0	1.7381752561467387e+18
14203.0	1.7378633458909181e+18
14204.0	1.7375595524521981e+18
14205.0	1.7372514942451707e+18
14206.0	1.736792409217433e+18
14207.0	1.7366265161056253e+18
14208.0	1.7363216371810304e+18
14209.0	1.7358517593702397e+18
14210.0	1.7355912561819643e+18
14211.0	1.7353929729769464e+18
14212.0	1.7350950112985085e+18
14213.0	1.7347896038916093e+18
14214.0	1.7344821144322048e+18
14215.0	1.7341606881394685e+18
14216.0	1.7338709774958587e+18
14217.0	1.733564766460313e+18
14218.0	1.7332440297111552e+18
14219.0	1.732952193394278e+18
14220.0	1.7326462189174781e+18
14221.0	1.7323389861494781e+18
14222.0	1.7320204639928315e+18
14223.0	1.7317275254128637e+18
14224.0	1.7314203916304381e+18
14225.0	1.7307380287012861e+18
14226.0	1.7308011093557243e+18
14227.0	1.7305020638691325e+18
14228.0	1.7291660991922179e+18
14229.0	1.7297072264839155e+18
14230.0	1.7295870126981115e+18
14231.0	1.7292791574953981e+18
14232.0	1.7289493174288381e+18
14233.0	1.7286317649952765e+18
14234.0	1.7283291526725627e+18
14235.0	1.7280207102672896e+18
14236.0	1.727718450266112e+18
14237.0	1.7274112091095035e+18
14238.0	1.7271058688114688e+18
14239.0	1.726786298078822e+18
14240.0	1.7244034502230026e+18
14241.0	1.7261694568890365e+18
14242.0	1.7258792345403387e+18
14243.0	1.725394403196928e+18
14244.0	1.725277511299891e+18
14245.0	1.7249628361588733e+18
14246.0	1.7246579287130107e+18
14247.0	1.724359923413811e+18
14248.0	1.7240395473747965e+18
14249.0	1.7237514590879741e+18
14250.0	1.723423711140249e+18
14251.0	1.7231103647547387e+18
14252.0	1.7228058280853504e+18
14253.0	1.7225002478731261e+18
14254.0	1.722193266763366e+18
14255.0	1.7218456596250621e+18
14256.0	1.7212002183151616e+18
14257.0	1.7212313182404603e+18
14258.0	1.720978557737369e+18
14259.0	1.7206522408861696e+18
14260.0	1.7203539889618941e+18
14261.0	1.720043224589926e+18
14262.0	1.7197842414174203e+18
14263.0	1.718915565826867e+18
14264.0	1.7190171401256957e+18
14265.0	1.7188698395246587e+18
14266.0	1.718575176246886e+18
14267.0	1.7182737400070141e+18
14268.0	1.7179707334197243e+18
14269.0	1.7176563082592253e+18
14270.0	1.7173335834099712e+18
14271.0	1.7170213376098304e+18
14272.0	1.716716366410547e+18
14273.0	1.7164001494433787e+18
14274.0	1.7152098311340035e+18
14275.0	1.715697408907673e+18
14276.0	1.7154873246089213e+18
14277.0	1.7151916395986941e+18
14278.0	1.7149005649674235e+18
14279.0	1.71459690406871e+18
14280.0	1.714287518783897e+18
14281.0	1.713993682622873e+18
14282.0	1.7136915870384125e+18
14283.0	1.7133890737012733e+18
14284.0	1.713086528487424e+18
14285.0	1.7127837165158395e+18
14286.0	1.712480371028787e+18
14287.0	1.7121778342035453e+18
14288.0	1.7118676033470461e+18
14289.0	1.7102278385205222e+18
14290.0	1.7112636017606653e+18
14291.0	1.7109679972810747e+18
14292.0	1.7106651064565757e+18
14293.0	1.7103276763774976e+18
14294.0	1.7098561124564995e+18
14295.0	1.7096986599620603e+18
14296.0	1.7083419888451592e+18
14297.0	1.709098074216857e+18
14298.0	1.7085611949162493e+18
14299.0	1.7084936280342525e+18
14300.0	1.708204727730176e+18
14301.0	1.7079083095556093e+18
14302.0	1.7076085309046781e+18
14303.0	1.7072660861157376e+18
14304.0	1.7069859753951227e+18
14305.0	1.706704557729382e+18
14306.0	1.7063943285506048e+18
14307.0	1.7060940516163581e+18
14308.0	1.7057981132701693e+18
14309.0	1.7054906741424125e+18
14310.0	1.7051450702036987e+18
14311.0	1.7048162300592125e+18
14312.0	1.7045455162572797e+18
14313.0	1.7041222841401344e+18
14314.0	1.7039894035562496e+18
14315.0	1.7036924652879872e+18
14316.0	1.7033313642348541e+18
14317.0	1.703083506034278e+18
14318.0	1.7027697821614075e+18
14319.0	1.7024572494708733e+18
14320.0	1.7021564423766013e+18
14321.0	1.7018527798001661e+18
14322.0	1.7015084324749307e+18
14323.0	1.70123078968279e+18
14324.0	1.7009559352639488e+18
14325.0	1.7006443739742203e+18
14326.0	1.7003560457732093e+18
14327.0	1.7000476956426237e+18
14328.0	1.6997475395043323e+18
14329.0	1.699455958201139e+18
14330.0	1.6991560654651387e+18
14331.0	1.698855828796211e+18
14332.0	1.698556266571366e+18
14333.0	1.698256504697651e+18
14334.0	1.6979566908145661e+18
14335.0	1.6976410459504637e+18
14336.0	1.697318532494131e+18
14337.0	1.6970538836557821e+18
14338.0	1.6967545496010747e+18
14339.0	1.6964447901843453e+18
14340.0	1.696158835959398e+18
14341.0	1.6958579953106941e+18
14342.0	1.6955576277794813e+18
14343.0	1.6952593154572285e+18
14344.0	1.6949569195606008e+18
14345.0	1.694662804897792e+18
14346.0	1.6943266515648512e+18
14347.0	1.6940062537154557e+18
14348.0	1.6937250893856765e+18
14349.0	1.693427785374105e+18
14350.0	1.693097685260697e+18
14351.0	1.6927912326332416e+18
14352.0	1.6925186397831165e+18
14353.0	1.6922301991747581e+18
14354.0	1.6919290917683197e+18
14355.0	1.691623909176115e+18
14356.0	1.69132770239447e+18
14357.0	1.6910385370103805e+18
14358.0	1.6907401710010365e+18
14359.0	1.6904232426799104e+18
14360.0	1.690140214401433e+18
14361.0	1.6898434942369787e+18
14362.0	1.6895464234287104e+18
14363.0	1.6892471480942587e+18
14364.0	1.6888539002175485e+18
14365.0	1.6886257602789376e+18
14366.0	1.68833309516759e+18
14367.0	1.6880558348959736e+18
14368.0	1.6877574135218176e+18
14369.0	1.6874601917186043e+18
14370.0	1.687162411234099e+18
14371.0	1.6868647213465595e+18
14372.0	1.6865601058242557e+18
14373.0	1.6862687761793021e+18
14374.0	1.6859708564439035e+18
14375.0	1.685670332884582e+18
14376.0	1.6853762282881021e+18
14377.0	1.6850778304020475e+18
14378.0	1.684749330835046e+18
14379.0	1.6844456313487357e+18
14380.0	1.6841470774345723e+18
14381.0	1.683835657073459e+18
14382.0	1.683551112134656e+18
14383.0	1.6832529558405115e+18
14384.0	1.6829357909606395e+18
14385.0	1.6826612100104187e+18
14386.0	1.6823416745099261e+18
14387.0	1.682066281542451e+18
14388.0	1.6817646943076347e+18
14389.0	1.681471743983616e+18
14390.0	1.681172515625369e+18
14391.0	1.6808783439200253e+18
14392.0	1.6805803470094333e+18
14393.0	1.6802846754209787e+18
14394.0	1.6799393130741752e+18
14395.0	1.679677746210406e+18
14396.0	1.6793940619427837e+18
14397.0	1.6790973115793403e+18
14398.0	1.6788001703067648e+18
14399.0	1.6785032588820475e+18
14400.0	1.6781810860031997e+18
14401.0	1.677899540830617e+18
14402.0	1.6776012989726715e+18
14403.0	1.6767574654058483e+18
14404.0	1.672881074549552e+18
14405.0	1.6744907645386693e+18
14406.0	1.6764077510492157e+18
14407.0	1.6753654933487616e+18
14408.0	1.675813807403827e+18
14409.0	1.6755118242267133e+18
14410.0	1.6752359698857984e+18
14411.0	1.6749470494490621e+18
14412.0	1.6746482237439997e+18
14413.0	1.6743577195380733e+18
14414.0	1.6740588451790848e+18
14415.0	1.673727500196249e+18
14416.0	1.673432046711603e+18
14417.0	1.6731317395783675e+18
14418.0	1.6728287162138621e+18
14419.0	1.6725421328433147e+18
14420.0	1.6722413626589181e+18
14421.0	1.6719508165099515e+18
14422.0	1.6716466590056443e+18
14423.0	1.6713186174566397e+18
14424.0	1.6679830670016494e+18
14425.0	1.6707300995629053e+18
14426.0	1.670470473823027e+18
14427.0	1.670177651005849e+18
14428.0	1.6698553237766141e+18
14429.0	1.6695852894519293e+18
14430.0	1.669292176388915e+18
14431.0	1.6688284407169021e+18
14432.0	1.6686956003983357e+18
14433.0	1.6678185680764923e+18
14434.0	1.6680884379844603e+18
14435.0	1.667788949579366e+18
14436.0	1.6675237118607357e+18
14437.0	1.6672299562303485e+18
14438.0	1.6669067851071488e+18
14439.0	1.6666313132867581e+18
14440.0	1.6663447148167165e+18
14441.0	1.6660380625403904e+18
14442.0	1.665733770818355e+18
14443.0	1.6653856888848384e+18
14444.0	1.6651573878849533e+18
14445.0	1.6648648502804477e+18
14446.0	1.6630295755227144e+18
14447.0	1.664248056066867e+18
14448.0	1.6639868046147581e+18
14449.0	1.663694424716083e+18
14450.0	1.6633929599549437e+18
14451.0	1.663101353485926e+18
14452.0	1.662810476825804e+18
14453.0	1.662509421428736e+18
14454.0	1.662222608210329e+18
14455.0	1.6619167780175872e+18
14456.0	1.6615938803630083e+18
14457.0	1.6612975846621181e+18
14458.0	1.661006199652352e+18
14459.0	1.6607083705139197e+18
14460.0	1.6604099155853307e+18
14461.0	1.6600790940516347e+18
14462.0	1.659756567173529e+18
14463.0	1.6595164734685184e+18
14464.0	1.6592377821003776e+18
14465.0	1.658914366029824e+18
14466.0	1.658652148210073e+18
14467.0	1.658332699951104e+18
14468.0	1.6580633836912637e+18
14469.0	1.657739455915622e+18
14470.0	1.6574402829221888e+18
14471.0	1.6571755065769981e+18
14472.0	1.6568886262497277e+18
14473.0	1.656600262816563e+18
14474.0	1.656310355879526e+18
14475.0	1.6560146859687933e+18
14476.0	1.6556874967023613e+18
14477.0	1.6554297382666235e+18
14478.0	1.6551337646882816e+18
14479.0	1.654840316080947e+18
14480.0	1.654526607307571e+18
14481.0	1.6542577708761085e+18
14482.0	1.6539589401378813e+18
14483.0	1.6536573898129405e+18
14484.0	1.653360193175552e+18
14485.0	1.65302825427927e+18
14486.0	1.6523901865558016e+18
14487.0	1.6524950122790907e+18
14488.0	1.6522006174367744e+18
14489.0	1.6518975152193533e+18
14490.0	1.6516130222899197e+18
14491.0	1.6513212329492477e+18
14492.0	1.651028108142182e+18
14493.0	1.650726349779763e+18
14494.0	1.6504138456104957e+18
14495.0	1.6501448816721915e+18
14496.0	1.6496775623868413e+18
14497.0	1.6495609137594365e+18
14498.0	1.649271429608243e+18
14499.0	1.6489790044110843e+18
14500.0	1.648685624590336e+18
14501.0	1.6483661410992125e+18
14502.0	1.6477976753340413e+18
14503.0	1.647784842441523e+18
14504.0	1.6475049749905405e+18
14505.0	1.647178629618073e+18
14506.0	1.6468382920474624e+18
14507.0	1.6462516582350848e+18
14508.0	1.646287274586931e+18
14509.0	1.6459976025309181e+18
14510.0	1.6457005854097405e+18
14511.0	1.6454120894365693e+18
14512.0	1.6451002530004987e+18
14513.0	1.6448255680315387e+18
14514.0	1.644491352467046e+18
14515.0	1.6442272925089792e+18
14516.0	1.6404671543377943e+18
14517.0	1.6436159961890813e+18
14518.0	1.6433624723226621e+18
14519.0	1.6430739662831613e+18
14520.0	1.642781368280678e+18
14521.0	1.6424907852218365e+18
14522.0	1.642198373446451e+18
14523.0	1.6418621093838848e+18
14524.0	1.6415765125136384e+18
14525.0	1.6413154456109053e+18
14526.0	1.6410275301294077e+18
14527.0	1.6407068554559485e+18
14528.0	1.6402598919667712e+18
14529.0	1.640139570806784e+18
14530.0	1.6398389348401147e+18
14531.0	1.6395681774174203e+18
14532.0	1.6392320307953661e+18
14533.0	1.638986445907558e+18
14534.0	1.6386971026849792e+18
14535.0	1.638390842995507e+18
14536.0	1.6381081032851453e+18
14537.0	1.637802863650406e+18
14538.0	1.637529928545075e+18
14539.0	1.6372385116585981e+18
14540.0	1.636946680374886e+18
14541.0	1.6366249537699837e+18
14542.0	1.6363595583455232e+18
14543.0	1.6360325905383421e+18
14544.0	1.6357750183297021e+18
14545.0	1.6354672302358525e+18
14546.0	1.6309405964304356e+18
14547.0	1.6308758699311066e+18
14548.0	1.6345775311159293e+18
14549.0	1.6341539198337021e+18
14550.0	1.6340149457649661e+18
14551.0	1.6337388716425213e+18
14552.0	1.6334466779709437e+18
14553.0	1.6331444632682493e+18
14554.0	1.6328658843074557e+18
14555.0	1.6325741738196987e+18
14556.0	1.6322815791726592e+18
14557.0	1.631989024790937e+18
14558.0	1.631682817110835e+18
14559.0	1.6288313816121298e+18
14560.0	1.6310972352299003e+18
14561.0	1.630806326693068e+18
14562.0	1.6304641033633787e+18
14563.0	1.6302030918254592e+18
14564.0	1.6299052626870272e+18
14565.0	1.6296257895006203e+18
14566.0	1.6293348390207488e+18
14567.0	1.629042418856755e+18
14568.0	1.6287417963118587e+18
14569.0	1.628453897607577e+18
14570.0	1.6274545644142587e+18
14571.0	1.6278695136198656e+18
14572.0	1.6275343602089981e+18
14573.0	1.6272285602152443e+18
14574.0	1.6269800258928637e+18
14575.0	1.626706443186995e+18
14576.0	1.6264134744080381e+18
14577.0	1.6261221078532093e+18
14578.0	1.625836502594355e+18
14579.0	1.625549603812147e+18
14580.0	1.6252586818535421e+18
14581.0	1.6249626864648187e+18
14582.0	1.6246754118729725e+18
14583.0	1.6243848690794493e+18
14584.0	1.6240759283908605e+18
14585.0	1.6238018742452221e+18
14586.0	1.6235059258327035e+18
14587.0	1.6232034410168315e+18
14588.0	1.6229131951800315e+18
14589.0	1.6226243972169725e+18
14590.0	1.6223354130268157e+18
14591.0	1.622044695750246e+18
14592.0	1.6217438618124288e+18
14593.0	1.6213091658235901e+18
14594.0	1.6211738944864253e+18
14595.0	1.6208782782627837e+18
14596.0	1.6205048778326013e+18
14597.0	1.620196571322777e+18
14598.0	1.620009439933235e+18
14599.0	1.6197334396305403e+18
14600.0	1.6194432390922235e+18
14601.0	1.619154513271193e+18
14602.0	1.618859678865817e+18
14603.0	1.6185752882774013e+18
14604.0	1.6182276928831485e+18
14605.0	1.6179791837265915e+18
14606.0	1.617600547127296e+18
14607.0	1.6174108689563643e+18
14608.0	1.617125176455987e+18
14609.0	1.6168340363935744e+18
14610.0	1.6165306741293053e+18
14611.0	1.6162501423005693e+18
14612.0	1.6159750479675392e+18
14613.0	1.615687979735449e+18
14614.0	1.6153920279674877e+18
14615.0	1.6151086104575997e+18
14616.0	1.614821713353113e+18
14617.0	1.6145270567862267e+18
14618.0	1.6142332491464701e+18
14619.0	1.6138709703327741e+18
14620.0	1.6134272448462848e+18
14621.0	1.6133740442943485e+18
14622.0	1.6130825150005243e+18
14623.0	1.6127970775138301e+18
14624.0	1.6124308292108285e+18
14625.0	1.6122135491641341e+18
14626.0	1.611917023615385e+18
14627.0	1.6116003536633853e+18
14628.0	1.6113175132897277e+18
14629.0	1.6110280006172672e+18
14630.0	1.6107349177532413e+18
14631.0	1.6104461969653757e+18
14632.0	1.609897014932275e+18
14633.0	1.609832048518758e+18
14634.0	1.6095760802119675e+18
14635.0	1.6092608161906685e+18
14636.0	1.6089095281311741e+18
14637.0	1.6087113170681853e+18
14638.0	1.608413674156851e+18
14639.0	1.608112702645862e+18
14640.0	1.6078279865794557e+18
14641.0	1.6065642713055224e+18
14642.0	1.6072457332981757e+18
14643.0	1.6069692598779901e+18
14644.0	1.606664854070886e+18
14645.0	1.606358057510502e+18
14646.0	1.6060868638801912e+18
14647.0	1.6057907929939963e+18
