# Flux units: erg / (cm m2 s)
# Wavelength units: Angstrom
wave	flux
14000.0	1.5631399306395635e+18
14001.0	1.562810759983923e+18
14002.0	1.5627316839317501e+18
14003.0	1.5624596514406397e+18
14004.0	1.562178495499468e+18
14005.0	1.5618971902410747e+18
14006.0	1.56160577503232e+18
14007.0	1.5613242231488507e+18
14008.0	1.5609311027789821e+18
14009.0	1.560769601942323e+18
14010.0	1.560476863011225e+18
14011.0	1.5593802907516925e+18
14012.0	1.5599292915908603e+18
14013.0	1.5596487446626301e+18
14014.0	1.5593615858335744e+18
14015.0	1.5590845101113341e+18
14016.0	1.5588065368080381e+18
14017.0	1.5585260586663933e+18
14018.0	1.5582381750616064e+18
14019.0	1.5579649698430973e+18
14020.0	1.5576837870583803e+18
14021.0	1.5574025438756864e+18
14022.0	1.5571078017449981e+18
14023.0	1.5567987553599485e+18
14024.0	1.5565243237269501e+18
14025.0	1.5562799618981885e+18
14026.0	1.5560009769287683e+18
14027.0	1.5557231881748475e+18
14028.0	1.5554364756197376e+18
14029.0	1.5551591834714107e+18
14030.0	1.5509109558214687e+18
14031.0	1.5544438885449715e+18
14032.0	1.554319243896422e+18
14033.0	1.5539583324258304e+18
14034.0	1.553759639856742e+18
14035.0	1.5534852149346304e+18
14036.0	1.5531956485750781e+18
14037.0	1.55292432072704e+18
14038.0	1.552647424521011e+18
14039.0	1.5523636932771835e+18
14040.0	1.5520799536447485e+18
14041.0	1.551805243509965e+18
14042.0	1.5515147091050493e+18
14043.0	1.5511995759460347e+18
14044.0	1.5509521539530747e+18
14045.0	1.5506843392540667e+18
14046.0	1.5504109863960576e+18
14047.0	1.5501144390369277e+18
14048.0	1.549848538618265e+18
14049.0	1.5495788230606848e+18
14050.0	1.5493003044978688e+18
14051.0	1.5490114427813885e+18
14052.0	1.5487430559793147e+18
14053.0	1.5484648578613248e+18
14054.0	1.5481865490137085e+18
14055.0	1.5479082502324221e+18
14056.0	1.547629983327846e+18
14057.0	1.5473518472855547e+18
14058.0	1.5470736307126267e+18
14059.0	1.54678922838016e+18
14060.0	1.5465176924946432e+18
14061.0	1.5462307450585085e+18
14062.0	1.5459618348072957e+18
14063.0	1.545665124709171e+18
14064.0	1.5445421652443133e+18
14065.0	1.5451173435736064e+18
14066.0	1.5448504130338813e+18
14067.0	1.5445353419505664e+18
14068.0	1.544295847192166e+18
14069.0	1.5440095607783421e+18
14070.0	1.5437385684746235e+18
14071.0	1.5434598167085053e+18
14072.0	1.5431863380213757e+18
14073.0	1.5429091163373563e+18
14074.0	1.5426319919611901e+18
14075.0	1.542332436447232e+18
14076.0	1.5420351022366715e+18
14077.0	1.5408793483476995e+18
14078.0	1.5414589340516347e+18
14079.0	1.5412354934112256e+18
14080.0	1.5409703446118397e+18
14081.0	1.5406936430215165e+18
14082.0	1.5404129652310013e+18
14083.0	1.5401372031647741e+18
14084.0	1.539659523948544e+18
14085.0	1.5385801282027523e+18
14086.0	1.53880444796928e+18
14087.0	1.5385961353445379e+18
14088.0	1.538299799378329e+18
14089.0	1.538018843086028e+18
14090.0	1.5377559139123197e+18
14091.0	1.5374962193858552e+18
14092.0	1.5372203012915197e+18
14093.0	1.5369443546759165e+18
14094.0	1.5366684281929723e+18
14095.0	1.5363924228571133e+18
14096.0	1.5359438453997565e+18
14097.0	1.535804968638873e+18
14098.0	1.5354871276371965e+18
14099.0	1.5352897906671613e+18
14100.0	1.534998437534105e+18
14101.0	1.534739098684621e+18
14102.0	1.534463443992576e+18
14103.0	1.5341671281590267e+18
14104.0	1.5339099971911677e+18
14105.0	1.5336374177628152e+18
14106.0	1.5333624962351101e+18
14107.0	1.5330807077928957e+18
14108.0	1.5327957551677435e+18
14109.0	1.5325307791736835e+18
14110.0	1.5322545423122424e+18
14111.0	1.5319751077134333e+18
14112.0	1.5317022615273467e+18
14113.0	1.531418922870374e+18
14114.0	1.531147187335987e+18
14115.0	1.530882395891302e+18
14116.0	1.5305098443882493e+18
14117.0	1.5234091578294272e+18
14118.0	1.5300620084838397e+18
14119.0	1.5296844473040893e+18
14120.0	1.529429643336089e+18
14121.0	1.5292216025022464e+18
14122.0	1.5287971087384568e+18
14123.0	1.5286146263154688e+18
14124.0	1.528314433267302e+18
14125.0	1.527584230106726e+18
14126.0	1.5278544087154685e+18
14127.0	1.5275971301081085e+18
14128.0	1.5273217371406336e+18
14129.0	1.5270358164701181e+18
14130.0	1.526753516322816e+18
14131.0	1.5265023244894205e+18
14132.0	1.5262227489619965e+18
14133.0	1.525299586007039e+18
14134.0	1.5256758872178685e+18
14135.0	1.525371471344435e+18
14136.0	1.524978884490035e+18
14137.0	1.5248471900553213e+18
14138.0	1.524510796808192e+18
14139.0	1.5243139061121027e+18
14140.0	1.5240332266438653e+18
14141.0	1.5237367380049915e+18
14142.0	1.5229916182216704e+18
14143.0	1.5232157467279357e+18
14144.0	1.5229490275811323e+18
14145.0	1.5226743359012864e+18
14146.0	1.522390691898982e+18
14147.0	1.5221234627248125e+18
14148.0	1.5218392516526077e+18
14149.0	1.5215704907186173e+18
14150.0	1.5213132926418941e+18
14151.0	1.5210142672879613e+18
14152.0	1.5207683619553275e+18
14153.0	1.5204957909155837e+18
14154.0	1.5201956314218493e+18
14155.0	1.5190957439844355e+18
14156.0	1.5195064032559096e+18
14157.0	1.5194061409353723e+18
14158.0	1.5191282984943616e+18
14159.0	1.518862087697203e+18
14160.0	1.5185789637885947e+18
14161.0	1.5182513735467005e+18
14162.0	1.5179199161565181e+18
14163.0	1.5177680722853885e+18
14164.0	1.5172956812476406e+18
14165.0	1.5171432971501565e+18
14166.0	1.5169572864786432e+18
14167.0	1.5166721442709504e+18
14168.0	1.516399318217523e+18
14169.0	1.5161450460872701e+18
14170.0	1.515860341764915e+18
14171.0	1.5155970317484032e+18
14172.0	1.5153309266477053e+18
14173.0	1.5150065005887485e+18
14174.0	1.514777380860723e+18
14175.0	1.5145157250777085e+18
14176.0	1.514243680842547e+18
14177.0	1.5139740659482621e+18
14178.0	1.5137029411045373e+18
14179.0	1.5134224294084605e+18
14180.0	1.5131625687875581e+18
14181.0	1.5128917576777723e+18
14182.0	1.5126199634231293e+18
14183.0	1.5123502730313725e+18
14184.0	1.5120733852139515e+18
14185.0	1.511808295134822e+18
14186.0	1.5103522357903363e+18
14187.0	1.5112372255457275e+18
14188.0	1.510992843584307e+18
14189.0	1.5107160329420797e+18
14190.0	1.5104472116101115e+18
14191.0	1.510171786765926e+18
14192.0	1.509906242024243e+18
14193.0	1.5094447695986688e+18
14194.0	1.5093646500036603e+18
14195.0	1.5091063513415677e+18
14196.0	1.5088361123348475e+18
14197.0	1.5085662256496637e+18
14198.0	1.5082903008444413e+18
14199.0	1.5080233250062336e+18
14200.0	1.506992094969856e+18
14201.0	1.5074232459329528e+18
14202.0	1.5072128663551997e+18
14203.0	1.5069352386625536e+18
14204.0	1.5066752320798715e+18
14205.0	1.5064059611185147e+18
14206.0	1.5059882587717632e+18
14207.0	1.5058700213420024e+18
14208.0	1.5056012604080125e+18
14209.0	1.5051757918879741e+18
14210.0	1.5049458869862395e+18
14211.0	1.5047882902077437e+18
14212.0	1.5045237772648443e+18
14213.0	1.5042472384135163e+18
14214.0	1.503985666516582e+18
14215.0	1.5036966689046525e+18
14216.0	1.5034409119907835e+18
14217.0	1.5031685221449725e+18
14218.0	1.5028871246118912e+18
14219.0	1.5026311227506685e+18
14220.0	1.5023542198337536e+18
14221.0	1.5020829641277437e+18
14222.0	1.5017569308114941e+18
14223.0	1.5015531295801341e+18
14224.0	1.5012881351311357e+18
14225.0	1.4984955306180626e+18
14226.0	1.5007315375685624e+18
14227.0	1.5004805202182141e+18
14228.0	1.4935609554501645e+18
14229.0	1.4982044610199503e+18
14230.0	1.4996788612169725e+18
14231.0	1.499347043116646e+18
14232.0	1.4991431227670523e+18
14233.0	1.4988701205528576e+18
14234.0	1.4986002506448893e+18
14235.0	1.4983248140566525e+18
14236.0	1.4980601601851392e+18
14237.0	1.497788587389747e+18
14238.0	1.4975219655507965e+18
14239.0	1.497238865130291e+18
14240.0	1.4948133729468413e+18
14241.0	1.496705004050841e+18
14242.0	1.4964459420254205e+18
14243.0	1.4959994667532288e+18
14244.0	1.495919546807091e+18
14245.0	1.4956321178648573e+18
14246.0	1.4953602850226176e+18
14247.0	1.495112982147891e+18
14248.0	1.4948276302249981e+18
14249.0	1.494581417869312e+18
14250.0	1.4943142088278013e+18
14251.0	1.4940501941682173e+18
14252.0	1.49378316632064e+18
14253.0	1.4935152073375741e+18
14254.0	1.4932376383651837e+18
14255.0	1.4929257465643005e+18
14256.0	1.490344055144449e+18
14257.0	1.4922755086483448e+18
14258.0	1.4921704530771965e+18
14259.0	1.491882460420505e+18
14260.0	1.4915554859024381e+18
14261.0	1.4913501713661947e+18
14262.0	1.4911214073151485e+18
14263.0	1.4874571291230228e+18
14264.0	1.4898226947686387e+18
14265.0	1.490315193299763e+18
14266.0	1.4900566178136064e+18
14267.0	1.489792750793523e+18
14268.0	1.4895237264572413e+18
14269.0	1.4892503652106235e+18
14270.0	1.4889946770833403e+18
14271.0	1.4887274193879037e+18
14272.0	1.4884622202568701e+18
14273.0	1.4881925114101752e+18
14274.0	1.482640682332981e+18
14275.0	1.4871827327221763e+18
14276.0	1.487380950496051e+18
14277.0	1.4871046750470141e+18
14278.0	1.486856644041113e+18
14279.0	1.4865896010940416e+18
14280.0	1.4863178236166141e+18
14281.0	1.4860606976819197e+18
14282.0	1.4857957166546941e+18
14283.0	1.4855303933722621e+18
14284.0	1.4852650633789437e+18
14285.0	1.4849991042400256e+18
14286.0	1.484723900855091e+18
14287.0	1.4844693904883707e+18
14288.0	1.4842042400112635e+18
14289.0	1.4825451209883633e+18
14290.0	1.4836726723772413e+18
14291.0	1.4834084782014464e+18
14292.0	1.4831448376737792e+18
14293.0	1.4828771169271805e+18
14294.0	1.482446194134221e+18
14295.0	1.4823351893622784e+18
14296.0	1.480966985587098e+18
14297.0	1.4818155805278203e+18
14298.0	1.4807710109270013e+18
14299.0	1.4812678631456763e+18
14300.0	1.4810199680352253e+18
14301.0	1.4807606207971328e+18
14302.0	1.4804897710997504e+18
14303.0	1.4801844442234875e+18
14304.0	1.4799372839550973e+18
14305.0	1.4796928902496253e+18
14306.0	1.4793782218194941e+18
14307.0	1.479130204235366e+18
14308.0	1.4788959372574715e+18
14309.0	1.4786188497911803e+18
14310.0	1.478190386538086e+18
14311.0	1.4770296984698875e+18
14312.0	1.4776852514078715e+18
14313.0	1.477370878256742e+18
14314.0	1.4772842356801536e+18
14315.0	1.4770503042465787e+18
14316.0	1.476728206865203e+18
14317.0	1.4764411185004541e+18
14318.0	1.4762663250755581e+18
14319.0	1.4760040753790973e+18
14320.0	1.4757400422645757e+18
14321.0	1.4754746283851776e+18
14322.0	1.475168908922061e+18
14323.0	1.4749266325012477e+18
14324.0	1.4746869330608123e+18
14325.0	1.4744153267109885e+18
14326.0	1.4741624638668797e+18
14327.0	1.4738921745285115e+18
14328.0	1.4736280642387965e+18
14329.0	1.4733736780234747e+18
14330.0	1.4731006053449723e+18
14331.0	1.4728300911919104e+18
14332.0	1.472573762174976e+18
14333.0	1.4720013151764472e+18
14334.0	1.4715406598012925e+18
14335.0	1.471257852982067e+18
14336.0	1.4707601518362627e+18
14337.0	1.4707501274497016e+18
14338.0	1.4704868711202813e+18
14339.0	1.4702126676574205e+18
14340.0	1.4699645125001213e+18
14341.0	1.4696869166841856e+18
14342.0	1.4694398134583293e+18
14343.0	1.4691752535392253e+18
14344.0	1.4689082894450685e+18
14345.0	1.468654171665203e+18
14346.0	1.4683861808054272e+18
14347.0	1.4680062322278397e+18
14348.0	1.4678668571836416e+18
14349.0	1.4676084595359744e+18
14350.0	1.467149183247974e+18
14351.0	1.4668681883680763e+18
14352.0	1.466812179310182e+18
14353.0	1.4665587074531325e+18
14354.0	1.4662751423037435e+18
14355.0	1.4659691443388413e+18
14356.0	1.4657219639377915e+18
14357.0	1.465514802230067e+18
14358.0	1.4652544802357245e+18
14359.0	1.4649784363122685e+18
14360.0	1.4647156463894525e+18
14361.0	1.4644636643491837e+18
14362.0	1.4642007955734525e+18
14363.0	1.463937247320473e+18
14364.0	1.4631057634623488e+18
14365.0	1.4632763206402045e+18
14366.0	1.463033656665702e+18
14367.0	1.462894451071385e+18
14368.0	1.4626329278283773e+18
14369.0	1.4623726930755581e+18
14370.0	1.4621123173941245e+18
14371.0	1.4618523057782781e+18
14372.0	1.4615530237329403e+18
14373.0	1.4610492911779837e+18
14374.0	1.4607941902532603e+18
14375.0	1.4605305547587581e+18
14376.0	1.4602749471621115e+18
14377.0	1.4600135631699965e+18
14378.0	1.4597504007929853e+18
14379.0	1.4594932899577853e+18
14380.0	1.4592301443579901e+18
14381.0	1.4589599707824123e+18
14382.0	1.458710005363507e+18
14383.0	1.4584454169231357e+18
14384.0	1.4581707403427837e+18
14385.0	1.4579311163998208e+18
14386.0	1.4576547788750848e+18
14387.0	1.4574106536050685e+18
14388.0	1.457148321700249e+18
14389.0	1.4568901505449984e+18
14390.0	1.456628125663232e+18
14391.0	1.456370430980915e+18
14392.0	1.456108528572825e+18
14393.0	1.4558512935862272e+18
14394.0	1.4555479984308221e+18
14395.0	1.455309599224627e+18
14396.0	1.4550716412592123e+18
14397.0	1.4548128275365885e+18
14398.0	1.454551148265472e+18
14399.0	1.4542818001289216e+18
14400.0	1.4539941212061693e+18
14401.0	1.4537543546568701e+18
14402.0	1.4535020303613947e+18
14403.0	1.4514638385315817e+18
14404.0	1.446525872688331e+18
14405.0	1.4502601320038367e+18
14406.0	1.4524652202229757e+18
14407.0	1.449777193130394e+18
14408.0	1.4518848174686208e+18
14409.0	1.4516614321930237e+18
14410.0	1.451382162010931e+18
14411.0	1.4511667090030587e+18
14412.0	1.4509067728846848e+18
14413.0	1.4506531802316797e+18
14414.0	1.450391153672192e+18
14415.0	1.4501337374916608e+18
14416.0	1.4498592689487867e+18
14417.0	1.449573729121075e+18
14418.0	1.4492726921789437e+18
14419.0	1.4490976403849213e+18
14420.0	1.4488342448046075e+18
14421.0	1.4485818332676093e+18
14422.0	1.4483182950809597e+18
14423.0	1.4480434003967997e+18
14424.0	1.437838645343023e+18
14425.0	1.4475387350286336e+18
14426.0	1.4472903013695488e+18
14427.0	1.447030613553971e+18
14428.0	1.4467505565204475e+18
14429.0	1.4465084948479997e+18
14430.0	1.4462571469864957e+18
14431.0	1.444887223546675e+18
14432.0	1.4457347984326653e+18
14433.0	1.4436380960620534e+18
14434.0	1.4452032677085184e+18
14435.0	1.4448265168683003e+18
14436.0	1.444709292782387e+18
14437.0	1.4444521920135165e+18
14438.0	1.4440486211158016e+18
14439.0	1.443910026212147e+18
14440.0	1.4436669763616763e+18
14441.0	1.4433938634178557e+18
14442.0	1.4431289494994941e+18
14443.0	1.4428173596884992e+18
14444.0	1.4426296461295613e+18
14445.0	1.442379368654438e+18
14446.0	1.4393251368796173e+18
14447.0	1.4418430849449981e+18
14448.0	1.4416075009556477e+18
14449.0	1.4413484657737725e+18
14450.0	1.4410869509193725e+18
14451.0	1.4408332391481341e+18
14452.0	1.4405761769668603e+18
14453.0	1.4402927544238077e+18
14454.0	1.440059403481907e+18
14455.0	1.4397941020098557e+18
14456.0	1.4395320486068221e+18
14457.0	1.4392815177957376e+18
14458.0	1.4390281029812221e+18
14459.0	1.4387688882831357e+18
14460.0	1.438504709206835e+18
14461.0	1.438148000428851e+18
14462.0	1.4370327735828477e+18
14463.0	1.437706658984755e+18
14464.0	1.437483369339289e+18
14465.0	1.437197394981683e+18
14466.0	1.4369751337795581e+18
14467.0	1.4366817657028608e+18
14468.0	1.4364598668886013e+18
14469.0	1.4360949204975613e+18
14470.0	1.4359127752966141e+18
14471.0	1.4356816305586173e+18
14472.0	1.435431415159193e+18
14473.0	1.435180513571635e+18
14474.0	1.4349279963381757e+18
14475.0	1.4346668640043003e+18
14476.0	1.4342966244016125e+18
14477.0	1.4341551505276925e+18
14478.0	1.433901363258982e+18
14479.0	1.4336404859387901e+18
14480.0	1.4333683712393216e+18
14481.0	1.4331371241603072e+18
14482.0	1.4328758022438907e+18
14483.0	1.432612165071667e+18
14484.0	1.432353863054131e+18
14485.0	1.4320677460901885e+18
14486.0	1.4314635113005053e+18
14487.0	1.431592764650291e+18
14488.0	1.4312782270824445e+18
14489.0	1.4309764401987581e+18
14490.0	1.4307981655015421e+18
14491.0	1.4305659185004541e+18
14492.0	1.4303101011886077e+18
14493.0	1.4300381425172475e+18
14494.0	1.4297695493554176e+18
14495.0	1.4295457144504315e+18
14496.0	1.4291147983683581e+18
14497.0	1.4290333097525245e+18
14498.0	1.4287796516683773e+18
14499.0	1.428397230129152e+18
14500.0	1.4279726273134587e+18
14501.0	1.4276637436674045e+18
14502.0	1.4270897112219648e+18
14503.0	1.4271654267977725e+18
14504.0	1.4269435900592125e+18
14505.0	1.4266488798052347e+18
14506.0	1.4263466734911485e+18
14507.0	1.4258621525262336e+18
14508.0	1.425931640399462e+18
14509.0	1.4256767273795581e+18
14510.0	1.425417155326771e+18
14511.0	1.4251661497204736e+18
14512.0	1.4248918170730493e+18
14513.0	1.4246568320303101e+18
14514.0	1.4243562363289597e+18
14515.0	1.424145467519795e+18
14516.0	1.4202966298853394e+18
14517.0	1.4236349133488125e+18
14518.0	1.4233828625219581e+18
14519.0	1.423124451452518e+18
14520.0	1.4228720785031165e+18
14521.0	1.4226168987254781e+18
14522.0	1.4223575816863741e+18
14523.0	1.4219117171048445e+18
14524.0	1.4217423225880573e+18
14525.0	1.4215934080188413e+18
14526.0	1.4213399042850816e+18
14527.0	1.4210467341795323e+18
14528.0	1.4206483424083965e+18
14529.0	1.4205673940189181e+18
14530.0	1.4203062298083325e+18
14531.0	1.4200707699703808e+18
14532.0	1.4196597382447101e+18
14533.0	1.4195626988273664e+18
14534.0	1.4193116831547387e+18
14535.0	1.4190441486352381e+18
14536.0	1.4187986560221181e+18
14537.0	1.4185329820958717e+18
14538.0	1.4182947506618365e+18
14539.0	1.418040691602227e+18
14540.0	1.4177865302015997e+18
14541.0	1.417505901065011e+18
14542.0	1.4172761354141693e+18
14543.0	1.416943691523686e+18
14544.0	1.416769523888947e+18
14545.0	1.4164966206603264e+18
14546.0	1.402291230238305e+18
14547.0	1.4031613117595576e+18
14548.0	1.4157245281468413e+18
14549.0	1.4153295203401725e+18
14550.0	1.4152250368720893e+18
14551.0	1.4149813947858941e+18
14552.0	1.4147244450119675e+18
14553.0	1.4144607608635392e+18
14554.0	1.4142202057850877e+18
14555.0	1.4139659269439485e+18
14556.0	1.413709846229811e+18
14557.0	1.4134586426523648e+18
14558.0	1.4132039057932285e+18
14559.0	1.4102756491001828e+18
14560.0	1.4126626207956992e+18
14561.0	1.4124336000532477e+18
14562.0	1.4121389317423101e+18
14563.0	1.4119295772524541e+18
14564.0	1.4115832720261117e+18
14565.0	1.4114293393915901e+18
14566.0	1.4111758255915003e+18
14567.0	1.4109180520562685e+18
14568.0	1.4105741812039677e+18
14569.0	1.4104136735784957e+18
14570.0	1.4093663223152635e+18
14571.0	1.4099030606872573e+18
14572.0	1.4095593374744576e+18
14573.0	1.409326840492851e+18
14574.0	1.4089217814560765e+18
14575.0	1.4088704935067645e+18
14576.0	1.408609513845555e+18
14577.0	1.408378944566067e+18
14578.0	1.408122847074713e+18
14579.0	1.4078789029986301e+18
14580.0	1.4076245788590077e+18
14581.0	1.4073590626385917e+18
14582.0	1.4071045547884544e+18
14583.0	1.4068651497881595e+18
14584.0	1.406559411870105e+18
14585.0	1.406358804181811e+18
14586.0	1.4061025523400701e+18
14587.0	1.4058512111894523e+18
14588.0	1.4056000680099837e+18
14589.0	1.4053532038594557e+18
14590.0	1.4051064361779195e+18
14591.0	1.404847239934771e+18
14592.0	1.4046020233068544e+18
14593.0	1.404208904614707e+18
14594.0	1.4041159789707261e+18
14595.0	1.4038587917991933e+18
14596.0	1.4030021194678264e+18
14597.0	1.4026410704240632e+18
14598.0	1.4030585664110587e+18
14599.0	1.40287898812416e+18
14600.0	1.4026139458600957e+18
14601.0	1.402379407930163e+18
14602.0	1.4020775304495101e+18
14603.0	1.4018851192700925e+18
14604.0	1.4015302098485245e+18
14605.0	1.401240633422643e+18
14606.0	1.4010325682618365e+18
14607.0	1.400874038670131e+18
14608.0	1.4006406684344317e+18
14609.0	1.4003796929675261e+18
14610.0	1.3998653278519293e+18
14611.0	1.3998608055533565e+18
14612.0	1.3996481837006845e+18
14613.0	1.3994037488910333e+18
14614.0	1.399146471961395e+18
14615.0	1.3988990273191936e+18
14616.0	1.3986621707780093e+18
14617.0	1.3984031171411965e+18
14618.0	1.3981235030261757e+18
14619.0	1.397457719341874e+18
14620.0	1.3962880135200768e+18
14621.0	1.3974238696308733e+18
14622.0	1.3971728480862208e+18
14623.0	1.3969289736355837e+18
14624.0	1.3966045626761213e+18
14625.0	1.396430018392883e+18
14626.0	1.396175888030105e+18
14627.0	1.3955913488531456e+18
14628.0	1.3953064742420477e+18
14629.0	1.3950581739618301e+18
14630.0	1.3947914648813565e+18
14631.0	1.3945570469085181e+18
14632.0	1.3935023052816387e+18
14633.0	1.3939135559499773e+18
14634.0	1.3937950760894461e+18
14635.0	1.392088319839434e+18
14636.0	1.3903879246708726e+18
14637.0	1.39307157291008e+18
14638.0	1.3927891393839101e+18
14639.0	1.3925284088643581e+18
14640.0	1.392320456110899e+18
14641.0	1.3888946895323118e+18
14642.0	1.3918192023896061e+18
14643.0	1.3915711344738301e+18
14644.0	1.391303836513075e+18
14645.0	1.3910395811004413e+18
14646.0	1.390772787295027e+18
