# Flux units: erg / (cm m2 s)
# Wavelength units: Angstrom
wave	flux
14000.0	1.5056484480057341e+18
14001.0	1.5052754317737981e+18
14002.0	1.5051614071029757e+18
14003.0	1.5048996791779323e+18
14004.0	1.504621427372851e+18
14005.0	1.5043430145064957e+18
14006.0	1.5040557315260416e+18
14007.0	1.5037782028189693e+18
14008.0	1.503409684558643e+18
14009.0	1.50322433490944e+18
14010.0	1.5029392598106107e+18
14011.0	1.501936675192832e+18
14012.0	1.5023955807043584e+18
14013.0	1.5021181811818496e+18
14014.0	1.5018347351506944e+18
14015.0	1.5015602112430077e+18
14016.0	1.501284673991475e+18
14017.0	1.5010072409145341e+18
14018.0	1.5007294521606144e+18
14019.0	1.5004521231024123e+18
14020.0	1.5001769331392504e+18
14021.0	1.4996461506789373e+18
14022.0	1.4992819626180603e+18
14023.0	1.498989758880153e+18
14024.0	1.4987123392249853e+18
14025.0	1.4984533828960256e+18
14026.0	1.4981751948443643e+18
14027.0	1.4979001139331072e+18
14028.0	1.4976233871769595e+18
14029.0	1.4973462175023101e+18
14030.0	1.4961963792596995e+18
14031.0	1.4967179510284285e+18
14032.0	1.4965106702024701e+18
14033.0	1.4961941915107328e+18
14034.0	1.4959621156372472e+18
14035.0	1.4956869290295296e+18
14036.0	1.4954105747275773e+18
14037.0	1.4951342606909435e+18
14038.0	1.4948579617538043e+18
14039.0	1.4945778929762304e+18
14040.0	1.4942968276320253e+18
14041.0	1.4940244713406464e+18
14042.0	1.4937376597999613e+18
14043.0	1.4934319235596285e+18
14044.0	1.4931870567366653e+18
14045.0	1.4929207838638077e+18
14046.0	1.492646605566771e+18
14047.0	1.4923648926220283e+18
14048.0	1.4920946385158141e+18
14049.0	1.4918229935783939e+18
14050.0	1.491547468070912e+18
14051.0	1.491263156335411e+18
14052.0	1.4909960529903613e+18
14053.0	1.4907211650170875e+18
14054.0	1.4904459230445565e+18
14055.0	1.490170687782912e+18
14056.0	1.489895469298483e+18
14057.0	1.489620398453555e+18
14058.0	1.4893453343195136e+18
14059.0	1.489070344005222e+18
14060.0	1.4887953989894141e+18
14061.0	1.488512615658291e+18
14062.0	1.4882456381423613e+18
14063.0	1.4879542346776573e+18
14064.0	1.4875027044302848e+18
14065.0	1.4874117215879165e+18
14066.0	1.4871470022852605e+18
14067.0	1.4868633767378941e+18
14068.0	1.4865980182233088e+18
14069.0	1.4863213015334907e+18
14070.0	1.4860487153942525e+18
14071.0	1.4857716212170747e+18
14072.0	1.4855007547424765e+18
14073.0	1.4852265949003773e+18
14074.0	1.484952579342336e+18
14075.0	1.4846617093931005e+18
14076.0	1.4843925055406077e+18
14077.0	1.4839244849676288e+18
14078.0	1.483840863967641e+18
14079.0	1.4835729184063488e+18
14080.0	1.48330927620096e+18
14081.0	1.4830355978649597e+18
14082.0	1.4827573527707648e+18
14083.0	1.4824868285513725e+18
14084.0	1.4822148044488707e+18
14085.0	1.4816056539348992e+18
14086.0	1.4816515463315453e+18
14087.0	1.481394713998131e+18
14088.0	1.4811076591878144e+18
14089.0	1.4808072916566016e+18
14090.0	1.480201194595942e+18
14091.0	1.4799331550822395e+18
14092.0	1.4796600622710781e+18
14093.0	1.4793870114029563e+18
14094.0	1.4791140091887613e+18
14095.0	1.4788410841497597e+18
14096.0	1.4785273971867645e+18
14097.0	1.4782819431612413e+18
14098.0	1.4780051476185085e+18
14099.0	1.477749892343398e+18
14100.0	1.477463194887782e+18
14101.0	1.4772047821406205e+18
14102.0	1.476932028229222e+18
14103.0	1.476641144858214e+18
14104.0	1.4763874129543163e+18
14105.0	1.4761145852231675e+18
14106.0	1.47584266010624e+18
14107.0	1.4755690119692285e+18
14108.0	1.475287446663987e+18
14109.0	1.4750211536584701e+18
14110.0	1.4747474434457595e+18
14111.0	1.4744690456788987e+18
14112.0	1.4742030496301053e+18
14113.0	1.4739380736360448e+18
14114.0	1.4736538608861181e+18
14115.0	1.4733930775183357e+18
14116.0	1.473083262736793e+18
14117.0	1.4712778195468285e+18
14118.0	1.4725795536699392e+18
14119.0	1.472281018210713e+18
14120.0	1.4720184514248701e+18
14121.0	1.4717539200270336e+18
14122.0	1.471454069234073e+18
14123.0	1.471201679507456e+18
14124.0	1.470925504721715e+18
14125.0	1.4701876847050747e+18
14126.0	1.470405055348736e+18
14127.0	1.470138393244467e+18
14128.0	1.469865979910553e+18
14129.0	1.4695841444921341e+18
14130.0	1.4693062500417536e+18
14131.0	1.4690548904361981e+18
14132.0	1.468779168635289e+18
14133.0	1.4679362829811707e+18
14134.0	1.4682425409929213e+18
14135.0	1.4679519965216765e+18
14136.0	1.467660675265331e+18
14137.0	1.467427383043686e+18
14138.0	1.467144715475353e+18
14139.0	1.466889836009881e+18
14140.0	1.4666109315710973e+18
14141.0	1.4663395047374848e+18
14142.0	1.465969380897587e+18
14143.0	1.4658025667166205e+18
14144.0	1.465539105705164e+18
14145.0	1.465267589952307e+18
14146.0	1.4649955775938557e+18
14147.0	1.4647277226295293e+18
14148.0	1.464455299229286e+18
14149.0	1.464186352068198e+18
14150.0	1.463920522113843e+18
14151.0	1.4636420253614075e+18
14152.0	1.4633813980217341e+18
14153.0	1.4631117445398525e+18
14154.0	1.4628179570327547e+18
14155.0	1.4623080907276288e+18
14156.0	1.4622298753466363e+18
14157.0	1.4620343134060541e+18
14158.0	1.4617608548515837e+18
14159.0	1.4614951943471101e+18
14160.0	1.461212855612211e+18
14161.0	1.4609023328321536e+18
14162.0	1.460577363191398e+18
14163.0	1.460418100435353e+18
14164.0	1.4600967597064187e+18
14165.0	1.4597841397743613e+18
14166.0	1.4596089571180541e+18
14167.0	1.4593307220901885e+18
14168.0	1.4590705041145853e+18
14169.0	1.4588072813395965e+18
14170.0	1.4585328983605245e+18
14171.0	1.4582668217810941e+18
14172.0	1.458001763578675e+18
14173.0	1.4576787736494077e+18
14174.0	1.457456812759449e+18
14175.0	1.4571968598638587e+18
14176.0	1.4569278237835264e+18
14177.0	1.4566600711602173e+18
14178.0	1.456390520019353e+18
14179.0	1.4561130701651965e+18
14180.0	1.4558564660019197e+18
14181.0	1.4555885271515136e+18
14182.0	1.455319791383347e+18
14183.0	1.455052882654003e+18
14184.0	1.4547797730656253e+18
14185.0	1.4545173522415616e+18
14186.0	1.4539701046214653e+18
14187.0	1.4539565620527101e+18
14188.0	1.4537134333493245e+18
14189.0	1.4534440013266941e+18
14190.0	1.4531774365302781e+18
14191.0	1.4529091923345403e+18
14192.0	1.4526287964012541e+18
14193.0	1.4523257092833277e+18
14194.0	1.4520996530749435e+18
14195.0	1.451835775988531e+18
14196.0	1.4515684377624573e+18
14197.0	1.4513013612609536e+18
14198.0	1.4510293942009853e+18
14199.0	1.4507640977620992e+18
14200.0	1.4503385738772477e+18
14201.0	1.450212202853171e+18
14202.0	1.449966243833446e+18
14203.0	1.4496877571473403e+18
14204.0	1.4494308056956925e+18
14205.0	1.4491644204154877e+18
14206.0	1.4487679026593787e+18
14207.0	1.4486340020207613e+18
14208.0	1.4483676955934715e+18
14209.0	1.447967560669593e+18
14210.0	1.447721804654182e+18
14211.0	1.4475565859864573e+18
14212.0	1.4472941131530237e+18
14213.0	1.4470267732492285e+18
14214.0	1.4467616898809853e+18
14215.0	1.446480908071731e+18
14216.0	1.4462310701596672e+18
14217.0	1.4459645993156603e+18
14218.0	1.4456883708428288e+18
14219.0	1.4454333101834237e+18
14220.0	1.445165831028736e+18
14221.0	1.4448984844140541e+18
14222.0	1.444614518289203e+18
14223.0	1.4443694786609147e+18
14224.0	1.4441051737554944e+18
14225.0	1.443282638864384e+18
14226.0	1.4435619929325565e+18
14227.0	1.4433089220509693e+18
14228.0	1.441601707782963e+18
14229.0	1.4422983799996403e+18
14230.0	1.4425054242668541e+18
14231.0	1.4422244998512637e+18
14232.0	1.441974774346547e+18
14233.0	1.4417050067795965e+18
14234.0	1.441445248499712e+18
14235.0	1.441177485810073e+18
14236.0	1.4409152294027264e+18
14237.0	1.4406489699516413e+18
14238.0	1.4403852388270077e+18
14239.0	1.4401141206941693e+18
14240.0	1.4379364112138235e+18
14241.0	1.4395870543871997e+18
14242.0	1.4393241638010877e+18
14243.0	1.4388987439349757e+18
14244.0	1.4387976612085757e+18
14245.0	1.4385129602416637e+18
14246.0	1.4382446086717437e+18
14247.0	1.438000592453632e+18
14248.0	1.4377202787287035e+18
14249.0	1.4374744136613885e+18
14250.0	1.4372102429736957e+18
14251.0	1.4369487163752445e+18
14252.0	1.4366824367915003e+18
14253.0	1.436412001491353e+18
14254.0	1.4361467805499392e+18
14255.0	1.4358463308103675e+18
14256.0	1.4351250631950336e+18
14257.0	1.4352953720700923e+18
14258.0	1.435094060577587e+18
14259.0	1.4348114819284987e+18
14260.0	1.434543774603673e+18
14261.0	1.4342858886610944e+18
14262.0	1.4340541181329408e+18
14263.0	1.433075888999629e+18
14264.0	1.4333184757989373e+18
14265.0	1.433260814185267e+18
14266.0	1.4330005190344701e+18
14267.0	1.4327394185773053e+18
14268.0	1.432476289754726e+18
14269.0	1.4322071764991997e+18
14270.0	1.4319500220432381e+18
14271.0	1.4316857171378176e+18
14272.0	1.4314240915537915e+18
14273.0	1.431159558478233e+18
14274.0	1.429725135031501e+18
14275.0	1.4305307651997693e+18
14276.0	1.4303551178145792e+18
14277.0	1.4300697977683965e+18
14278.0	1.4296493036929021e+18
14279.0	1.4293851246166013e+18
14280.0	1.4291179877171197e+18
14281.0	1.4288623952199675e+18
14282.0	1.4286003485278208e+18
14283.0	1.4283380401111037e+18
14284.0	1.4280757803483136e+18
14285.0	1.4278134350217213e+18
14286.0	1.4275489153679357e+18
14287.0	1.427289323182489e+18
14288.0	1.4270271171067901e+18
14289.0	1.4255364077780982e+18
14290.0	1.4265012889583613e+18
14291.0	1.4262404200267776e+18
14292.0	1.4259796198817792e+18
14293.0	1.4257153367867387e+18
14294.0	1.4253100093145088e+18
14295.0	1.4251807257657341e+18
14296.0	1.4239620304732165e+18
14297.0	1.4246515774062587e+18
14298.0	1.4241242577633275e+18
14299.0	1.4241324836323325e+18
14300.0	1.4238788138041344e+18
14301.0	1.4236215335190525e+18
14302.0	1.4233613709082621e+18
14303.0	1.4230679306895357e+18
14304.0	1.4228219817361403e+18
14305.0	1.422575715693363e+18
14306.0	1.4222853557714941e+18
14307.0	1.4220368969465853e+18
14308.0	1.4217897182232573e+18
14309.0	1.4215261867474944e+18
14310.0	1.421153657054822e+18
14311.0	1.420752706758246e+18
14312.0	1.4206713624264701e+18
14313.0	1.4203236110041085e+18
14314.0	1.4202190134509565e+18
14315.0	1.4199643856437248e+18
14316.0	1.4196489739829248e+18
14317.0	1.4194208373997565e+18
14318.0	1.4191834699923453e+18
14319.0	1.418923550651187e+18
14320.0	1.4186623629524987e+18
14321.0	1.418400353170227e+18
14322.0	1.4181045557526525e+18
14323.0	1.4178590933385213e+18
14324.0	1.4176225748582397e+18
14325.0	1.4173537786920957e+18
14326.0	1.4171023653994493e+18
14327.0	1.4168360237400064e+18
14328.0	1.4165751061544957e+18
14329.0	1.4163226593853437e+18
14330.0	1.416062855806976e+18
14331.0	1.4158027099734013e+18
14332.0	1.4155432939487232e+18
14333.0	1.4152836631756797e+18
14334.0	1.415024084412006e+18
14335.0	1.4147451413856253e+18
14336.0	1.414444210139955e+18
14337.0	1.4142420899856381e+18
14338.0	1.413976511689523e+18
14339.0	1.4137092590272507e+18
14340.0	1.4134589245095936e+18
14341.0	1.4131971445751808e+18
14342.0	1.4129396059209725e+18
14343.0	1.4126766230601725e+18
14344.0	1.4124179720765437e+18
14345.0	1.4121644431769597e+18
14346.0	1.4119022740111357e+18
14347.0	1.4116121607143421e+18
14348.0	1.4113867789500413e+18
14349.0	1.411128809121382e+18
14350.0	1.4108266179067904e+18
14351.0	1.4105597662199803e+18
14352.0	1.4103428082958336e+18
14353.0	1.4100905762750464e+18
14354.0	1.4098288366059517e+18
14355.0	1.4095618607677437e+18
14356.0	1.4093062263275517e+18
14357.0	1.4090599082754048e+18
14358.0	1.40880048553984e+18
14359.0	1.408530291831603e+18
14360.0	1.4082810713210877e+18
14361.0	1.4080248412897277e+18
14362.0	1.4077684619411453e+18
14363.0	1.407510072682086e+18
14364.0	1.4071334141165565e+18
14365.0	1.4069572441210875e+18
14366.0	1.406709557048115e+18
14367.0	1.4064785129734141e+18
14368.0	1.4062200742215677e+18
14369.0	1.405962803163955e+18
14370.0	1.4057051168702461e+18
14371.0	1.4054475513724925e+18
14372.0	1.405183680996966e+18
14373.0	1.4047587090825213e+18
14374.0	1.4042037187772413e+18
14375.0	1.403942121714483e+18
14376.0	1.4036879452143613e+18
14377.0	1.4034296935284733e+18
14378.0	1.4031699058884605e+18
14379.0	1.4029153577730045e+18
14380.0	1.4026554946355195e+18
14381.0	1.4023904800538621e+18
14382.0	1.402141360206643e+18
14383.0	1.4018793730736128e+18
14384.0	1.4016104250736637e+18
14385.0	1.4013711878455293e+18
14386.0	1.4011007676448765e+18
14387.0	1.4008572169945085e+18
14388.0	1.4005982556323837e+18
14389.0	1.400342800708403e+18
14390.0	1.4000844122882045e+18
14391.0	1.3998289506533373e+18
14392.0	1.3995702216556544e+18
14393.0	1.399316278358835e+18
14394.0	1.3990219363647485e+18
14395.0	1.398789029180211e+18
14396.0	1.398546145424179e+18
14397.0	1.3982897996300285e+18
14398.0	1.3980322987245565e+18
14399.0	1.3977766819004413e+18
14400.0	1.3974989543833597e+18
14401.0	1.3972554960076795e+18
14402.0	1.3970061790281723e+18
14403.0	1.3945713998168044e+18
14404.0	1.390036478066687e+18
14405.0	1.3939918074019822e+18
14406.0	1.3959822579859453e+18
14407.0	1.392924976113255e+18
14408.0	1.395409589528166e+18
14409.0	1.3951908775460864e+18
14410.0	1.394948128846643e+18
14411.0	1.3947010390425595e+18
14412.0	1.394442593579827e+18
14413.0	1.3941914923433981e+18
14414.0	1.3939330015821821e+18
14415.0	1.3936721494278141e+18
14416.0	1.3934122493804541e+18
14417.0	1.393148235559731e+18
14418.0	1.3928775720894461e+18
14419.0	1.3926479876325373e+18
14420.0	1.3923881639215104e+18
14421.0	1.3921383335591936e+18
14422.0	1.391878728790835e+18
14423.0	1.3916173196328955e+18
14424.0	1.380060343618762e+18
14425.0	1.391100882531123e+18
14426.0	1.3908625906991101e+18
14427.0	1.3906059185881085e+18
14428.0	1.3903328316489728e+18
14429.0	1.3900895653724157e+18
14430.0	1.3898419152093181e+18
14431.0	1.3893421328498685e+18
14432.0	1.3893232995860477e+18
14433.0	1.38693511825326e+18
14434.0	1.388802256299622e+18
14435.0	1.3885275612643323e+18
14436.0	1.3883132004532221e+18
14437.0	1.388058743773593e+18
14438.0	1.3877391042543613e+18
14439.0	1.3875306515398653e+18
14440.0	1.3872942605664253e+18
14441.0	1.3870254585282557e+18
14442.0	1.3867659401625597e+18
14443.0	1.3864653947928573e+18
14444.0	1.3862690300624893e+18
14445.0	1.3860229116592123e+18
14446.0	1.3828080330080264e+18
14447.0	1.3854702609367032e+18
14448.0	1.385260704281395e+18
14449.0	1.3850066603212797e+18
14450.0	1.3847477434187773e+18
14451.0	1.3844962806333437e+18
14452.0	1.3842415362244603e+18
14453.0	1.3839592209776637e+18
14454.0	1.3837354531815421e+18
14455.0	1.3834757309726717e+18
14456.0	1.3832192341835773e+18
14457.0	1.3829646684520445e+18
14458.0	1.3827186968494077e+18
14459.0	1.3824637645357053e+18
14460.0	1.3822110107435005e+18
14461.0	1.381927105016627e+18
14462.0	1.3814860076810237e+18
14463.0	1.381444263451033e+18
14464.0	1.3811937217347581e+18
14465.0	1.3809084536979453e+18
14466.0	1.3806858066198523e+18
14467.0	1.380392740533043e+18
14468.0	1.3801715908214781e+18
14469.0	1.3798833356013565e+18
14470.0	1.3796388588486653e+18
14471.0	1.3794045549608955e+18
14472.0	1.3791586596945917e+18
14473.0	1.3789108535033853e+18
14474.0	1.3786586743308285e+18
14475.0	1.3783975621296128e+18
14476.0	1.3780200890302461e+18
14477.0	1.3779006226694141e+18
14478.0	1.3776457322987517e+18
14479.0	1.3773917302816765e+18
14480.0	1.3771236387586045e+18
14481.0	1.3768909832323067e+18
14482.0	1.3766330075316221e+18
14483.0	1.3763749714329597e+18
14484.0	1.3761170494193661e+18
14485.0	1.3758434490974205e+18
14486.0	1.375284644492083e+18
14487.0	1.3753722752466941e+18
14488.0	1.3751082580705277e+18
14489.0	1.3748484653973501e+18
14490.0	1.3746100796129275e+18
14491.0	1.374363839574835e+18
14492.0	1.3741130722050045e+18
14493.0	1.3738569923297277e+18
14494.0	1.373586454688563e+18
14495.0	1.3733564533178365e+18
14496.0	1.3729526802546688e+18
14497.0	1.3728511948750845e+18
14498.0	1.372600903139328e+18
14499.0	1.3723493715673085e+18
14500.0	1.372097162195763e+18
14501.0	1.371783923184435e+18
14502.0	1.3712767756271616e+18
14503.0	1.3713183025922045e+18
14504.0	1.3710823411154944e+18
14505.0	1.3707798789488637e+18
14506.0	1.3704797907582973e+18
14507.0	1.3700520799633405e+18
14508.0	1.3700834902671357e+18
14509.0	1.3698319595339773e+18
14510.0	1.3695766405054461e+18
14511.0	1.3693279920979965e+18
14512.0	1.3690601144844285e+18
14513.0	1.3688254490476541e+18
14514.0	1.368532561638195e+18
14515.0	1.3683215269101568e+18
14516.0	1.3649154114846728e+18
14517.0	1.367808889847808e+18
14518.0	1.3675692961038333e+18
14519.0	1.3673179281096704e+18
14520.0	1.3670630251560957e+18
14521.0	1.3668059797520381e+18
14522.0	1.3665554497798141e+18
14523.0	1.3661659910373373e+18
14524.0	1.3659278392950781e+18
14525.0	1.3657980373303293e+18
14526.0	1.3655506405031933e+18
14527.0	1.365253012691353e+18
14528.0	1.3649029376245757e+18
14529.0	1.3647865272336381e+18
14530.0	1.3645311436128253e+18
14531.0	1.3642959295610875e+18
14532.0	1.363861856006963e+18
14533.0	1.3637917809311744e+18
14534.0	1.3635469820559357e+18
14535.0	1.3632847751413757e+18
14536.0	1.3630451964968957e+18
14537.0	1.3627811793207293e+18
14538.0	1.3625445232672765e+18
14539.0	1.362294138417971e+18
14540.0	1.362043633611571e+18
14541.0	1.3617721103089661e+18
14542.0	1.361542552695603e+18
14543.0	1.3612037477236733e+18
14544.0	1.3610412855525373e+18
14545.0	1.3607837687087101e+18
14546.0	1.3440523956125658e+18
14547.0	1.3450057080635338e+18
14548.0	1.3600248437932027e+18
14549.0	1.3596514207137787e+18
14550.0	1.359531786580787e+18
14551.0	1.359290022703923e+18
14552.0	1.3590364610887677e+18
14553.0	1.3587791531212797e+18
14554.0	1.358540123091763e+18
14555.0	1.3582894362525696e+18
14556.0	1.358037062464307e+18
14557.0	1.3577900775178237e+18
14558.0	1.3575397153177595e+18
14559.0	1.3549602737225713e+18
14560.0	1.3570291720519677e+18
14561.0	1.3567821954940925e+18
14562.0	1.3565122215673853e+18
14563.0	1.3562870746841085e+18
14564.0	1.356021057663795e+18
14565.0	1.355791439652454e+18
14566.0	1.3555417359581181e+18
14567.0	1.3552909190955005e+18
14568.0	1.3550134574972925e+18
14569.0	1.3547920812933117e+18
14570.0	1.353888631567155e+18
14571.0	1.3542899375407104e+18
14572.0	1.3539893837823997e+18
14573.0	1.3537368959090685e+18
14574.0	1.3534947394453501e+18
14575.0	1.3532884845461501e+18
14576.0	1.3530378279059453e+18
14577.0	1.35278895300608e+18
14578.0	1.352542494864179e+18
14579.0	1.3522971691843581e+18
14580.0	1.3520482942844925e+18
14581.0	1.351413551805235e+18
14582.0	1.3509815410098173e+18
14583.0	1.3507332122083325e+18
14584.0	1.350465244836659e+18
14585.0	1.3502292095401981e+18
14586.0	1.3499731833520128e+18
14587.0	1.3497248939769853e+18
14588.0	1.3494776187846653e+18
14589.0	1.3492354321219581e+18
14590.0	1.3489929954787323e+18
14591.0	1.3487479013244925e+18
14592.0	1.3485013987229693e+18
14593.0	1.3481302774775805e+18
14594.0	1.3480214428385277e+18
14595.0	1.3477732885200893e+18
14596.0	1.3473932770279421e+18
14597.0	1.347134359286579e+18
14598.0	1.3470351782576125e+18
14599.0	1.3468090247413757e+18
14600.0	1.3465629205987325e+18
14601.0	1.3463233973190653e+18
14602.0	1.346067605173043e+18
14603.0	1.3458383520661501e+18
14604.0	1.3455378679332861e+18
14605.0	1.3453200283664381e+18
14606.0	1.3450294276915195e+18
14607.0	1.3448424833679357e+18
14608.0	1.344621274936115e+18
14609.0	1.344374037492531e+18
14610.0	1.3440785143824384e+18
14611.0	1.3438913251115005e+18
14612.0	1.343655733572403e+18
14613.0	1.3434139646623741e+18
14614.0	1.3431665401528317e+18
14615.0	1.3429254146490365e+18
14616.0	1.3426864450174973e+18
14617.0	1.3424436979957757e+18
14618.0	1.3421928433844221e+18
14619.0	1.3418443948687355e+18
14620.0	1.3414290128109565e+18
14621.0	1.3414738599870461e+18
14622.0	1.341228222251008e+18
14623.0	1.3409888491274237e+18
14624.0	1.3406796408422397e+18
14625.0	1.3405007848144893e+18
14626.0	1.3402565932744701e+18
14627.0	1.3400090068647933e+18
14628.0	1.3397754940227584e+18
14629.0	1.3395328896073725e+18
14630.0	1.3392864205602813e+18
14631.0	1.3390461171400701e+18
14632.0	1.3379080841854979e+18
14633.0	1.3383774033149947e+18
14634.0	1.3383126910763008e+18
14635.0	1.3375379276300278e+18
14636.0	1.336895555711795e+18
14637.0	1.3375907003629565e+18
14638.0	1.337340777725952e+18
14639.0	1.337087407371059e+18
14640.0	1.3368561258987517e+18
14641.0	1.3329106791825395e+18
14642.0	1.3363680959791101e+18
14643.0	1.3361312201441275e+18
14644.0	1.335876792824627e+18
14645.0	1.3356164850909181e+18
14646.0	1.3353852187181053e+18
