# Flux units: erg / (cm m2 s)
# Wavelength units: Angstrom
wave	flux
14000.0	2.33485399878533e+18
14001.0	2.334658160020685e+18
14002.0	2.3342312184610806e+18
14003.0	2.3337513330409467e+18
14004.0	2.333267795220889e+18
14005.0	2.332782846436966e+18
14006.0	2.3322931463454715e+18
14007.0	2.331804773331763e+18
14008.0	2.331269435857305e+18
14009.0	2.3308311646437376e+18
14010.0	2.330340129085849e+18
14011.0	2.329506809800294e+18
14012.0	2.3293757227007995e+18
14013.0	2.3289000349401083e+18
14014.0	2.328411836409446e+18
14015.0	2.3279303772864507e+18
14016.0	2.327446940129689e+18
14017.0	2.326962674178457e+18
14018.0	2.3264781800570875e+18
14019.0	2.325993789954457e+18
14020.0	2.32550885794775e+18
14021.0	2.325023820244582e+18
14022.0	2.3245376635011067e+18
14023.0	2.324041735707033e+18
14024.0	2.323560078612889e+18
14025.0	2.3230874543718395e+18
14026.0	2.322603532353536e+18
14027.0	2.3221199660122107e+18
14028.0	2.321633354606182e+18
14029.0	2.321132797978214e+18
14030.0	2.319421463225959e+18
14031.0	2.320007516546662e+18
14032.0	2.319692463918284e+18
14033.0	2.3191869999546363e+18
14034.0	2.318738009777766e+18
14035.0	2.318258240120422e+18
14036.0	2.317770949237145e+18
14037.0	2.3172955248787456e+18
14038.0	2.3168138459742203e+18
14039.0	2.316328813304217e+18
14040.0	2.315847183053619e+18
14041.0	2.315367316088422e+18
14042.0	2.314879948029951e+18
14043.0	2.314382285471744e+18
14044.0	2.313918142113382e+18
14045.0	2.3134412514263035e+18
14046.0	2.3129574518816763e+18
14047.0	2.312472078634189e+18
14048.0	2.3119992950095867e+18
14049.0	2.3115196344041467e+18
14050.0	2.3110391114498043e+18
14051.0	2.310553697936998e+18
14052.0	2.3100741447057403e+18
14053.0	2.3095980324814843e+18
14054.0	2.309118090018816e+18
14055.0	2.3086380804472827e+18
14056.0	2.3081581597949947e+18
14057.0	2.307678371682713e+18
14058.0	2.3071986724896763e+18
14059.0	2.3067190706044923e+18
14060.0	2.3062394888519675e+18
14061.0	2.305756147325337e+18
14062.0	2.3052798740398077e+18
14063.0	2.3047871825707005e+18
14064.0	2.3041191809384445e+18
14065.0	2.3038370603073528e+18
14066.0	2.303364773288345e+18
14067.0	2.3028763700756477e+18
14068.0	2.3024077723664384e+18
14069.0	2.301927720851865e+18
14070.0	2.3014502144409595e+18
14071.0	2.3009712802889723e+18
14072.0	2.300494946605465e+18
14073.0	2.3000168580251645e+18
14074.0	2.2995385983172605e+18
14075.0	2.2990464269418493e+18
14076.0	2.2985661724229627e+18
14077.0	2.297816222479155e+18
14078.0	2.2975952967434237e+18
14079.0	2.297140968056422e+18
14080.0	2.2966730900897787e+18
14081.0	2.2961968537141245e+18
14082.0	2.2957188406312957e+18
14083.0	2.295240658098585e+18
14084.0	2.2947543772037117e+18
14085.0	2.2940112169992184e+18
14086.0	2.293774800859955e+18
14087.0	2.2933326524317693e+18
14088.0	2.2928493377486843e+18
14089.0	2.2923755240030205e+18
14090.0	2.291907454776115e+18
14091.0	2.2914335235899387e+18
14092.0	2.2909581562740733e+18
14093.0	2.2904821698789373e+18
14094.0	2.2900053815328765e+18
14095.0	2.2895255011459072e+18
14096.0	2.2890170525155328e+18
14097.0	2.2885439971000315e+18
14098.0	2.2880849422712824e+18
14099.0	2.2876269729284088e+18
14100.0	2.2871487920734203e+18
14101.0	2.286682273061273e+18
14102.0	2.2862080700841981e+18
14103.0	2.2857258559864827e+18
14104.0	2.2852599174660093e+18
14105.0	2.2847856910008315e+18
14106.0	2.2843116641845245e+18
14107.0	2.2838372162600952e+18
14108.0	2.283354329396019e+18
14109.0	2.2828862836572155e+18
14110.0	2.282412724925235e+18
14111.0	2.2819370002546683e+18
14112.0	2.2814602320412667e+18
14113.0	2.280986386418892e+18
14114.0	2.2805042763399168e+18
14115.0	2.2800271860039675e+18
14116.0	2.2794326752886781e+18
14117.0	2.2768185954533376e+18
14118.0	2.2785604932599803e+18
14119.0	2.278106654467686e+18
14120.0	2.27765067490263e+18
14121.0	2.2771906218295293e+18
14122.0	2.2767251329384443e+18
14123.0	2.2762449270734845e+18
14124.0	2.2757619043139581e+18
14125.0	2.2750285487144957e+18
14126.0	2.274835372494028e+18
14127.0	2.2743785305800701e+18
14128.0	2.2739083591679995e+18
14129.0	2.2734295927881723e+18
14130.0	2.272950482475417e+18
14131.0	2.272494596862771e+18
14132.0	2.2720072841691133e+18
14133.0	2.271213745340415e+18
14134.0	2.2710671896477693e+18
14135.0	2.2705925135532027e+18
14136.0	2.270120125870899e+18
14137.0	2.2696581786501115e+18
14138.0	2.2691822425866237e+18
14139.0	2.2687239561543677e+18
14140.0	2.2682468691738621e+18
14141.0	2.2677369944801277e+18
14142.0	2.267210829109657e+18
14143.0	2.26683268408279e+18
14144.0	2.2663774158716923e+18
14145.0	2.2659116300238843e+18
14146.0	2.2654395594309627e+18
14147.0	2.264973491725926e+18
14148.0	2.2645026592915448e+18
14149.0	2.2640334324367355e+18
14150.0	2.2635698662146043e+18
14151.0	2.2630930308923387e+18
14152.0	2.2626329459425277e+18
14153.0	2.262164353266483e+18
14154.0	2.2616762906312701e+18
14155.0	2.26120346674135e+18
14156.0	2.2607551510085627e+18
14157.0	2.2602903852154877e+18
14158.0	2.259820339632537e+18
14159.0	2.2593541712642043e+18
14160.0	2.2588752320790523e+18
14161.0	2.2583823510274043e+18
14162.0	2.2578816165609467e+18
14163.0	2.2574690832744445e+18
14164.0	2.256961369486131e+18
14165.0	2.2565128406827005e+18
14166.0	2.2560748127387645e+18
14167.0	2.2556026733592573e+18
14168.0	2.2551464119369723e+18
14169.0	2.2546819431006205e+18
14170.0	2.2542133873344515e+18
14171.0	2.2537477222825984e+18
14172.0	2.2532826159120381e+18
14173.0	2.2527984774676477e+18
14174.0	2.2523441924014075e+18
14175.0	2.2518846694883323e+18
14176.0	2.2514191587868667e+18
14177.0	2.2509533679058944e+18
14178.0	2.2504868304388093e+18
14179.0	2.250018205886054e+18
14180.0	2.2495562368548861e+18
14181.0	2.2490906070351872e+18
14182.0	2.2486243111600128e+18
14183.0	2.2481581981564928e+18
14184.0	2.2476864731742205e+18
14185.0	2.247205245576806e+18
14186.0	2.2463689349136381e+18
14187.0	2.246231831504486e+18
14188.0	2.2458271365332987e+18
14189.0	2.2453646490861565e+18
14190.0	2.244901477128601e+18
14191.0	2.244435573840281e+18
14192.0	2.24396420621271e+18
14193.0	2.2434481071718392e+18
14194.0	2.2430444540657661e+18
14195.0	2.242586016638566e+18
14196.0	2.2421231231827965e+18
14197.0	2.2416596039368696e+18
14198.0	2.241192761124454e+18
14199.0	2.2407272722333696e+18
14200.0	2.2400320193691645e+18
14201.0	2.2397588107952123e+18
14202.0	2.2393408752451584e+18
14203.0	2.238731384153702e+18
14204.0	2.238252669783244e+18
14205.0	2.2377880801509368e+18
14206.0	2.2372499861798912e+18
14207.0	2.2368611188342781e+18
14208.0	2.2364012872204285e+18
14209.0	2.235856326334873e+18
14210.0	2.2354113845002237e+18
14211.0	2.2350109979181053e+18
14212.0	2.234553583901081e+18
14213.0	2.2340912893919227e+18
14214.0	2.2336296844263421e+18
14215.0	2.2331618702131192e+18
14216.0	2.2327071824936955e+18
14217.0	2.2322455708172283e+18
14218.0	2.2317745940987901e+18
14219.0	2.2313222417678333e+18
14220.0	2.2308582343049213e+18
14221.0	2.2302489126633464e+18
14222.0	2.2297412995383293e+18
14223.0	2.229299563829657e+18
14224.0	2.2288292095459323e+18
14225.0	2.2276459846434813e+18
14226.0	2.2278649709330427e+18
14227.0	2.2274409653862395e+18
14228.0	2.2253709706657792e+18
14229.0	2.2261109264220142e+18
14230.0	2.2260668258320384e+18
14231.0	2.2255975620673533e+18
14232.0	2.2251543231201277e+18
14233.0	2.2246926275575805e+18
14234.0	2.2242347924324342e+18
14235.0	2.223773341817241e+18
14236.0	2.223314644343193e+18
14237.0	2.22285343531991e+18
14238.0	2.222392278305996e+18
14239.0	2.221918243101081e+18
14240.0	2.220551069446963e+18
14241.0	2.220794917892915e+18
14242.0	2.2203557591646205e+18
14243.0	2.2198162089312248e+18
14244.0	2.2194497844674555e+18
14245.0	2.2189850136412155e+18
14246.0	2.2185253716099072e+18
14247.0	2.2180709674254333e+18
14248.0	2.2176068408442875e+18
14249.0	2.2171551713460221e+18
14250.0	2.2166960460529661e+18
14251.0	2.216238116975411e+18
14252.0	2.2157782333521912e+18
14253.0	2.2153166099316733e+18
14254.0	2.214851209959833e+18
14255.0	2.2143489454112765e+18
14256.0	2.213210136510464e+18
14257.0	2.2132656724508667e+18
14258.0	2.213005729621606e+18
14259.0	2.212544616228454e+18
14260.0	2.2120769228111867e+18
14261.0	2.2116200607645693e+18
14262.0	2.2111674819411965e+18
14263.0	2.2096513081540608e+18
14264.0	2.2096067881336822e+18
14265.0	2.2096081185669115e+18
14266.0	2.2091829369372672e+18
14267.0	2.2087325156638717e+18
14268.0	2.2082773179170816e+18
14269.0	2.2078133070987261e+18
14270.0	2.2073608960475133e+18
14271.0	2.2068983582687227e+18
14272.0	2.206425621620326e+18
14273.0	2.2058835833257976e+18
14274.0	2.203733646848819e+18
14275.0	2.2047017526099968e+18
14276.0	2.2045710463533056e+18
14277.0	2.2041473327300605e+18
14278.0	2.2037062714654715e+18
14279.0	2.2032527212412923e+18
14280.0	2.2027959397253115e+18
14281.0	2.2023449916473336e+18
14282.0	2.2018899197296632e+18
14283.0	2.2014344116043773e+18
14284.0	2.2009787457732603e+18
14285.0	2.2005228534497275e+18
14286.0	2.2000666910130168e+18
14287.0	2.1996101594775552e+18
14288.0	2.1991442293456893e+18
14289.0	2.1979090588270584e+18
14290.0	2.1980260044111867e+18
14291.0	2.1975794905513981e+18
14292.0	2.197125297759846e+18
14293.0	2.196666541565542e+18
14294.0	2.1961296387768315e+18
14295.0	2.1957352399831032e+18
14296.0	2.1948303608381443e+18
14297.0	2.1948115116359675e+18
14298.0	2.1941137723883515e+18
14299.0	2.193909028277452e+18
14300.0	2.1934756107124733e+18
14301.0	2.1930254142537723e+18
14302.0	2.192573274993459e+18
14303.0	2.1920919416995837e+18
14304.0	2.1916525715783675e+18
14305.0	2.191205695330713e+18
14306.0	2.1907381495529467e+18
14307.0	2.1902834299568123e+18
14308.0	2.189835142745292e+18
14309.0	2.189373930366566e+18
14310.0	2.1888876226281467e+18
14311.0	2.1884329885958144e+18
14312.0	2.1879822183563261e+18
14313.0	2.1875219119472637e+18
14314.0	2.1871096823283704e+18
14315.0	2.1866629889523704e+18
14316.0	2.1861377530396667e+18
14317.0	2.1855250189123581e+18
14318.0	2.1850931599507453e+18
14319.0	2.1846451562741755e+18
14320.0	2.184193605894144e+18
14321.0	2.183741458245222e+18
14322.0	2.183266483516211e+18
14323.0	2.182821845349171e+18
14324.0	2.182385436406579e+18
14325.0	2.181925643380326e+18
14326.0	2.18148195312599e+18
14327.0	2.1810244770332667e+18
14328.0	2.180573958452019e+18
14329.0	2.1801259681972221e+18
14330.0	2.1796741208604672e+18
14331.0	2.1792200236990461e+18
14332.0	2.1787704261869565e+18
14333.0	2.17831860904919e+18
14334.0	2.177866468111155e+18
14335.0	2.177403890067046e+18
14336.0	2.1768833316421627e+18
14337.0	2.1765079766663165e+18
14338.0	2.1760586358456317e+18
14339.0	2.175600297404006e+18
14340.0	2.175157073556275e+18
14341.0	2.1747048067891195e+18
14342.0	2.1742563987816443e+18
14343.0	2.1738047678709757e+18
14344.0	2.17335095927767e+18
14345.0	2.1729033934864381e+18
14346.0	2.172449502684774e+18
14347.0	2.1719871410667517e+18
14348.0	2.171503522716057e+18
14349.0	2.1708697600262144e+18
14350.0	2.1703519127994365e+18
14351.0	2.1698975321030653e+18
14352.0	2.1695127231660027e+18
14353.0	2.1690691100868603e+18
14354.0	2.1686119225622525e+18
14355.0	2.1681468782673915e+18
14356.0	2.1677002218012672e+18
14357.0	2.167269409737932e+18
14358.0	2.1668208205365243e+18
14359.0	2.1663581619617787e+18
14360.0	2.1659163239120893e+18
14361.0	2.1654677414215677e+18
14362.0	2.1650200414126075e+18
14363.0	2.1645648302440445e+18
14364.0	2.1639275325947901e+18
14365.0	2.1635843596746747e+18
14366.0	2.1631842952151037e+18
14367.0	2.1627738607583227e+18
14368.0	2.1623260298870784e+18
14369.0	2.161877871860121e+18
14370.0	2.1614294219096064e+18
14371.0	2.1609811263094781e+18
14372.0	2.160528513931673e+18
14373.0	2.1600836492722173e+18
14374.0	2.159635320117657e+18
14375.0	2.1591868718448632e+18
14376.0	2.1587384789368827e+18
14377.0	2.1582897471291387e+18
14378.0	2.157840267057561e+18
14379.0	2.1573936844111872e+18
14380.0	2.1569448284520443e+18
14381.0	2.1564887582900221e+18
14382.0	2.1560486382272504e+18
14383.0	2.1556003409494008e+18
14384.0	2.155139566456012e+18
14385.0	2.1545873259364352e+18
14386.0	2.15400298053632e+18
14387.0	2.153566616892211e+18
14388.0	2.1531179454824443e+18
14389.0	2.1526702035304443e+18
14390.0	2.152221666338406e+18
14391.0	2.1517750132277245e+18
14392.0	2.151326783058739e+18
14393.0	2.1508796668968955e+18
14394.0	2.1504025413287933e+18
14395.0	2.1499751434289147e+18
14396.0	2.1495365534482427e+18
14397.0	2.1490894691631096e+18
14398.0	2.1486415292399616e+18
14399.0	2.1481935708618742e+18
14400.0	2.1477340731146237e+18
14401.0	2.1472895943311357e+18
14402.0	2.1468336080551936e+18
14403.0	2.1458511577743352e+18
14404.0	2.1437347841179638e+18
14405.0	2.1444325518868462e+18
14406.0	2.1450298207764477e+18
14407.0	2.1439726565195773e+18
14408.0	2.1441205795553277e+18
14409.0	2.1437104756097021e+18
14410.0	2.143265052268953e+18
14411.0	2.1428326363037693e+18
14412.0	2.1423876693032955e+18
14413.0	2.1419442239963133e+18
14414.0	2.1414967538352125e+18
14415.0	2.1410511342010365e+18
14416.0	2.1406017984135163e+18
14417.0	2.1401434582941693e+18
14418.0	2.1396979711999995e+18
14419.0	2.139263540291174e+18
14420.0	2.1388155802353661e+18
14421.0	2.138369398564454e+18
14422.0	2.1379086257487872e+18
14423.0	2.1373884901097467e+18
14424.0	2.1343726865481715e+18
14425.0	2.13649279984599e+18
14426.0	2.1359855927295992e+18
14427.0	2.135457217799782e+18
14428.0	2.1349975271145467e+18
14429.0	2.1345670237519867e+18
14430.0	2.1341075847249915e+18
14431.0	2.1333332407091195e+18
14432.0	2.1332111612968952e+18
14433.0	2.1322959591309304e+18
14434.0	2.1323172578066427e+18
14435.0	2.1318692625186816e+18
14436.0	2.131452065166131e+18
14437.0	2.1310117420990461e+18
14438.0	2.1305287394721787e+18
14439.0	2.1301136828923901e+18
14440.0	2.1296806780469243e+18
14441.0	2.1292332565397501e+18
14442.0	2.128786251107532e+18
14443.0	2.128316655153971e+18
14444.0	2.127897320384102e+18
14445.0	2.1274466306752504e+18
14446.0	2.1261207054843907e+18
14447.0	2.1265213353361405e+18
14448.0	2.1261242505101304e+18
14449.0	2.1256838301351933e+18
14450.0	2.125236011008e+18
14451.0	2.1247958439690235e+18
14452.0	2.124350860191334e+18
14453.0	2.1239030880403453e+18
14454.0	2.1234636877201408e+18
14455.0	2.1230136070242307e+18
14456.0	2.1225702170820608e+18
14457.0	2.1221277347872765e+18
14458.0	2.1216822695034877e+18
14459.0	2.121234374878822e+18
14460.0	2.1207844149788664e+18
14461.0	2.1203192163336187e+18
14462.0	2.119864045430374e+18
14463.0	2.1194448599777275e+18
14464.0	2.119016784278323e+18
14465.0	2.1185684920336381e+18
14466.0	2.1181398240985088e+18
14467.0	2.1176850306826237e+18
14468.0	2.1172551950532603e+18
14469.0	2.1167916120539133e+18
14470.0	2.1163554514141181e+18
14471.0	2.1159328484425725e+18
14472.0	2.115494218196582e+18
14473.0	2.1150565408964605e+18
14474.0	2.1146178049540093e+18
14475.0	2.1141258550378493e+18
14476.0	2.113456009589555e+18
14477.0	2.11304173315031e+18
14478.0	2.1125996182765563e+18
14479.0	2.1121590250962936e+18
14480.0	2.1117041578606587e+18
14481.0	2.1112759915642877e+18
14482.0	2.110830467560243e+18
14483.0	2.1103851432050683e+18
14484.0	2.1099367570079744e+18
14485.0	2.1094737964433403e+18
14486.0	2.1088692948959227e+18
14487.0	2.1086178379825147e+18
14488.0	2.1081571003990016e+18
14489.0	2.1077092309401597e+18
14490.0	2.1072917886402552e+18
14491.0	2.1068588710363133e+18
14492.0	2.1064189640441853e+18
14493.0	2.1059676519006203e+18
14494.0	2.1055193177128955e+18
14495.0	2.1050878731485181e+18
14496.0	2.104566489284608e+18
14497.0	2.1042094332182525e+18
14498.0	2.1037718968467453e+18
14499.0	2.103331189581414e+18
14500.0	2.102889182081843e+18
14501.0	2.1024256645136381e+18
14502.0	2.1018606330445821e+18
14503.0	2.1015473856446461e+18
14504.0	2.10112059843543e+18
14505.0	2.1006672394715133e+18
14506.0	2.1002095586967547e+18
14507.0	2.0996426699898877e+18
14508.0	2.0993608379269115e+18
14509.0	2.098925160470937e+18
14510.0	2.09848347173847e+18
14511.0	2.0980440428969981e+18
14512.0	2.0975952909565947e+18
14513.0	2.0971612643786752e+18
14514.0	2.096701030111641e+18
14515.0	2.0962648812158973e+18
14516.0	2.094353201338778e+18
14517.0	2.095351252752793e+18
14518.0	2.0949597446733821e+18
14519.0	2.0945244212166653e+18
14520.0	2.094085715473203e+18
14521.0	2.0936456323203067e+18
14522.0	2.0932005965332477e+18
14523.0	2.0927138056110075e+18
14524.0	2.0922878807506936e+18
14525.0	2.091882606965555e+18
14526.0	2.091448639107891e+18
14527.0	2.090987352909414e+18
14528.0	2.0904920743935997e+18
14529.0	2.0901233095081981e+18
14530.0	2.089680491669094e+18
14531.0	2.0892480153059325e+18
14532.0	2.0885158274007037e+18
14533.0	2.0881115115945976e+18
14534.0	2.0876762569244667e+18
14535.0	2.0872279713906683e+18
14536.0	2.0867936193347581e+18
14537.0	2.0863504005201915e+18
14538.0	2.0859184845160445e+18
14539.0	2.085479426451046e+18
14540.0	2.0850398063493115e+18
14541.0	2.0845811491405821e+18
14542.0	2.0841564490170363e+18
14543.0	2.0836901564973053e+18
14544.0	2.0832726571548672e+18
14545.0	2.082808666469171e+18
14546.0	2.0794108054339569e+18
14547.0	2.0791449721241577e+18
14548.0	2.081482464454246e+18
14549.0	2.0809978562478077e+18
14550.0	2.0806343577305083e+18
14551.0	2.0802088271347712e+18
14552.0	2.0797706045751293e+18
14553.0	2.0793292748750843e+18
14554.0	2.0788948104118267e+18
14555.0	2.0784556919488512e+18
14556.0	2.0780158235443192e+18
14557.0	2.0775750911131643e+18
14558.0	2.077117373428531e+18
14559.0	2.0755924637450225e+18
14560.0	2.076235544500633e+18
14561.0	2.0758145554972667e+18
14562.0	2.0753600959479805e+18
14563.0	2.074936632305254e+18
14564.0	2.074490420435353e+18
14565.0	2.0740681429417984e+18
14566.0	2.0736316803121147e+18
14567.0	2.073191120686285e+18
14568.0	2.0727431270760443e+18
14569.0	2.0723070067015677e+18
14570.0	2.0715666801688573e+18
14571.0	2.0714318551056381e+18
14572.0	2.0709722550173693e+18
14573.0	2.0705191594557437e+18
14574.0	2.0700947881656317e+18
14575.0	2.0696728864817147e+18
14576.0	2.0692299696570365e+18
14577.0	2.0688093849845755e+18
14578.0	2.0683780578607101e+18
14579.0	2.067942407248281e+18
14580.0	2.0675052215205883e+18
14581.0	2.0670627811688443e+18
14582.0	2.0666215454212093e+18
14583.0	2.0661915051098107e+18
14584.0	2.0657376445071355e+18
14585.0	2.0653145466077181e+18
14586.0	2.064878510119321e+18
14587.0	2.0644430239236093e+18
14588.0	2.0640062660149243e+18
14589.0	2.0635724558630907e+18
14590.0	2.0631388436824061e+18
14591.0	2.0627032148803576e+18
14592.0	2.0622617375408125e+18
14593.0	2.0617596038545403e+18
14594.0	2.0613996688179197e+18
14595.0	2.0609631525011453e+18
14596.0	2.0603040276938747e+18
14597.0	2.0596238625800187e+18
14598.0	2.059387129351372e+18
14599.0	2.058979508433715e+18
14600.0	2.0585451161124864e+18
14601.0	2.0581113999130621e+18
14602.0	2.0576757610446845e+18
14603.0	2.0572404812087293e+18
14604.0	2.0567768411668475e+18
14605.0	2.0563543589912573e+18
14606.0	2.0558887560151037e+18
14607.0	2.0555006906204155e+18
14608.0	2.0550703382527992e+18
14609.0	2.054634442693017e+18
14610.0	2.0541970959040512e+18
14611.0	2.0537659566850045e+18
14612.0	2.0533382031081472e+18
14613.0	2.0529069498040317e+18
14614.0	2.0524723913883643e+18
14615.0	2.052040049242931e+18
14616.0	2.051607410140774e+18
14617.0	2.0511713753300987e+18
14618.0	2.0507162061045755e+18
14619.0	2.0500604669394936e+18
14620.0	2.0494023621869563e+18
14621.0	2.0494237850140664e+18
14622.0	2.049001782666854e+18
14623.0	2.048572743955251e+18
14624.0	2.0481040539713533e+18
14625.0	2.0477034106978301e+18
14626.0	2.0472748769804288e+18
14627.0	2.046840197768806e+18
14628.0	2.0464092430991355e+18
14629.0	2.0459750722371581e+18
14630.0	2.0455394300133373e+18
14631.0	2.0451056198615035e+18
14632.0	2.04447241249751e+18
14633.0	2.0441870085652475e+18
14634.0	2.043800468219494e+18
14635.0	2.0433455271641083e+18
14636.0	2.042859726097612e+18
14637.0	2.0425065740894203e+18
14638.0	2.042060657498521e+18
14639.0	2.041619131505049e+18
14640.0	2.0411791188164603e+18
14641.0	2.0399496072527862e+18
14642.0	2.0403085021020155e+18
14643.0	2.0398968630411261e+18
14644.0	2.0394544411443197e+18
14645.0	2.0390183308361728e+18
14646.0	2.038578504374681e+18
14647.0	2.0381373273473016e+18
14648.0	2.037715637056307e+18
