# Flux units: erg / (cm m2 s)
# Wavelength units: Angstrom
wave	flux
14000.0	1.6416339627343867e+18
14001.0	1.6416640577044477e+18
14002.0	1.6416334745174013e+18
14003.0	1.6413660037513213e+18
14004.0	1.6410859299405821e+18
14005.0	1.640803540874035e+18
14006.0	1.6405098624188413e+18
14007.0	1.640217744244736e+18
14008.0	1.6398432180633597e+18
14009.0	1.6396316775022592e+18
14010.0	1.6393215523422205e+18
14011.0	1.6385495252598781e+18
14012.0	1.6387356282060797e+18
14013.0	1.6385131623219197e+18
14014.0	1.6382304343556093e+18
14015.0	1.6379523838771197e+18
14016.0	1.63766888080343e+18
14017.0	1.6373847049633784e+18
14018.0	1.6370512947052541e+18
14019.0	1.636814522889011e+18
14020.0	1.6365287548911613e+18
14021.0	1.6362428912631803e+18
14022.0	1.635957067900518e+18
14023.0	1.6356610574123003e+18
14024.0	1.6353785374834685e+18
14025.0	1.6351005591470075e+18
14026.0	1.6348141519372285e+18
14027.0	1.6345259982192637e+18
14028.0	1.6342247297515512e+18
14029.0	1.6338955104419837e+18
14030.0	1.6330380084772861e+18
14031.0	1.6331221546041341e+18
14032.0	1.6330716417622013e+18
14033.0	1.632773831078707e+18
14034.0	1.6325366868082685e+18
14035.0	1.6322538162356221e+18
14036.0	1.63194717905879e+18
14037.0	1.631682833888051e+18
14038.0	1.631408118720102e+18
14039.0	1.631120574015078e+18
14040.0	1.6308396512772093e+18
14041.0	1.6305557119959037e+18
14042.0	1.6302625804779512e+18
14043.0	1.6299579129462784e+18
14044.0	1.6296690042535933e+18
14045.0	1.6293892861198333e+18
14046.0	1.6291351381409792e+18
14047.0	1.62884868898816e+18
14048.0	1.6285698382364672e+18
14049.0	1.6282900932591616e+18
14050.0	1.628006647228006e+18
14051.0	1.6277174583558141e+18
14052.0	1.6274355138854907e+18
14053.0	1.6271578509606907e+18
14054.0	1.6268752035250176e+18
14055.0	1.6265923866394621e+18
14056.0	1.6263095512989693e+18
14057.0	1.6260267595792381e+18
14058.0	1.625743850418995e+18
14059.0	1.625417156080435e+18
14060.0	1.6251777502412795e+18
14061.0	1.6248891452162043e+18
14062.0	1.624607863445913e+18
14063.0	1.624300347142963e+18
14064.0	1.6238574554841085e+18
14065.0	1.6237504302678008e+18
14066.0	1.623479639290675e+18
14067.0	1.6232012817891323e+18
14068.0	1.6229194967023616e+18
14069.0	1.6226371764223997e+18
14070.0	1.622355413146009e+18
14071.0	1.6220714335993853e+18
14072.0	1.6217916902998013e+18
14073.0	1.621509673687449e+18
14074.0	1.6212269591429115e+18
14075.0	1.6209255128367104e+18
14076.0	1.6206471888895997e+18
14077.0	1.6202313974677504e+18
14078.0	1.6200556477415421e+18
14079.0	1.619805464218828e+18
14080.0	1.6195147620417533e+18
14081.0	1.6192515543662587e+18
14082.0	1.6189726616715256e+18
14083.0	1.6186855548518397e+18
14084.0	1.61837945454592e+18
14085.0	1.6179385828638715e+18
14086.0	1.617779150657945e+18
14087.0	1.617527819573657e+18
14088.0	1.6172745289105403e+18
14089.0	1.617008076521472e+18
14090.0	1.6167284607287293e+18
14091.0	1.6164487291731965e+18
14092.0	1.616168457391308e+18
14093.0	1.6158876688711677e+18
14094.0	1.615606091821875e+18
14095.0	1.6153227430985725e+18
14096.0	1.615033753875251e+18
14097.0	1.614740144206643e+18
14098.0	1.6144784045375485e+18
14099.0	1.614201625772032e+18
14100.0	1.613915594371891e+18
14101.0	1.613645823449497e+18
14102.0	1.613363909178163e+18
14103.0	1.6130729603760123e+18
14104.0	1.6128040165703677e+18
14105.0	1.612527883727667e+18
14106.0	1.612248081707827e+18
14107.0	1.6119308228755453e+18
14108.0	1.611672059484569e+18
14109.0	1.6114051926982656e+18
14110.0	1.611125649047552e+18
14111.0	1.6108413993877501e+18
14112.0	1.6105530275659779e+18
14113.0	1.610277681574707e+18
14114.0	1.6099745323810816e+18
14115.0	1.6096714821730301e+18
14116.0	1.6091625352593405e+18
14117.0	1.6079221755478016e+18
14118.0	1.6087208364605435e+18
14119.0	1.608553988725145e+18
14120.0	1.6083026375081981e+18
14121.0	1.6080266539827195e+18
14122.0	1.6077587872743421e+18
14123.0	1.6074749771775995e+18
14124.0	1.6071472762060797e+18
14125.0	1.6066373411143677e+18
14126.0	1.6066108733784061e+18
14127.0	1.6063722711678976e+18
14128.0	1.6061010624380925e+18
14129.0	1.6058140999024635e+18
14130.0	1.6055150242168832e+18
14131.0	1.6052485164630008e+18
14132.0	1.6049231794012157e+18
14133.0	1.6043661590527997e+18
14134.0	1.6043354466811896e+18
14135.0	1.6041392371400701e+18
14136.0	1.6038754774941693e+18
14137.0	1.6035999066882048e+18
14138.0	1.6033214619451387e+18
14139.0	1.603046020323737e+18
14140.0	1.6027646261460992e+18
14141.0	1.6024731908046848e+18
14142.0	1.6021871778594813e+18
14143.0	1.601930885752422e+18
14144.0	1.6016622321926141e+18
14145.0	1.6013861614256123e+18
14146.0	1.6011082468425728e+18
14147.0	1.6008366941798397e+18
14148.0	1.6005607140098048e+18
14149.0	1.600284730484326e+18
14150.0	1.600007918164377e+18
14151.0	1.5997303458365435e+18
14152.0	1.599453251659366e+18
14153.0	1.5991785599795197e+18
14154.0	1.598876689209753e+18
14155.0	1.598604844623462e+18
14156.0	1.5983471834955776e+18
14157.0	1.5980706983313405e+18
14158.0	1.5977922384887805e+18
14159.0	1.5975145101328381e+18
14160.0	1.597218858677043e+18
14161.0	1.596918996140032e+18
14162.0	1.5966192158113787e+18
14163.0	1.5963615379062781e+18
14164.0	1.596108879744205e+18
14165.0	1.5958477155336187e+18
14166.0	1.5955819862425597e+18
14167.0	1.5952951847682043e+18
14168.0	1.5950323663241213e+18
14169.0	1.59475986071552e+18
14170.0	1.5944819427770363e+18
14171.0	1.5942039610851325e+18
14172.0	1.5939322893041664e+18
14173.0	1.5936495495938043e+18
14174.0	1.5933756246327293e+18
14175.0	1.5931062613966843e+18
14176.0	1.5928325578948603e+18
14177.0	1.5925575105380347e+18
14178.0	1.5922818608791547e+18
14179.0	1.5920046224179195e+18
14180.0	1.5917314205548541e+18
14181.0	1.591455843038003e+18
14182.0	1.591179223656038e+18
14183.0	1.5909017503137787e+18
14184.0	1.5906176382271485e+18
14185.0	1.5903190255927293e+18
14186.0	1.5898939949580285e+18
14187.0	1.5897235501875195e+18
14188.0	1.5895032435310587e+18
14189.0	1.5892444482633725e+18
14190.0	1.5889779304431616e+18
14191.0	1.588702529087078e+18
14192.0	1.5884145095868413e+18
14193.0	1.5881354088546301e+18
14194.0	1.5878799304425472e+18
14195.0	1.5876111040774141e+18
14196.0	1.5873380917968896e+18
14197.0	1.587063633320345e+18
14198.0	1.5867843463610365e+18
14199.0	1.5864996101619707e+18
14200.0	1.586122857644032e+18
14201.0	1.5859074197356544e+18
14202.0	1.585683321428377e+18
14203.0	1.5854153473458176e+18
14204.0	1.5851417260523515e+18
14205.0	1.5848586541531133e+18
14206.0	1.5845202912608256e+18
14207.0	1.5843046587367421e+18
14208.0	1.5840386559770621e+18
14209.0	1.5836827340505088e+18
14210.0	1.5834214960201725e+18
14211.0	1.5832166848004093e+18
14212.0	1.582958921331507e+18
14213.0	1.5826886806470653e+18
14214.0	1.5824146902548475e+18
14215.0	1.5821336114888701e+18
14216.0	1.5818697964781563e+18
14217.0	1.581599158173696e+18
14218.0	1.5813141216624635e+18
14219.0	1.581051242820403e+18
14220.0	1.5807763498139643e+18
14221.0	1.580505377642905e+18
14222.0	1.5802211699261435e+18
14223.0	1.5799481173803003e+18
14224.0	1.5796474763804667e+18
14225.0	1.578938340370022e+18
14226.0	1.579005417357312e+18
14227.0	1.578777685105049e+18
14228.0	1.5771402271457283e+18
14229.0	1.5776414649286643e+18
14230.0	1.5780087836180475e+18
14231.0	1.577765440166297e+18
14232.0	1.5775049353003005e+18
14233.0	1.5772348925870077e+18
14234.0	1.5769655729717243e+18
14235.0	1.5766922536681467e+18
14236.0	1.5764200534048765e+18
14237.0	1.576142286461337e+18
14238.0	1.5758550823337981e+18
14239.0	1.5754894329774077e+18
14240.0	1.573866173575987e+18
14241.0	1.574857098028646e+18
14242.0	1.574729755603763e+18
14243.0	1.5744198435143675e+18
14244.0	1.5742343109935101e+18
14245.0	1.5739708281716733e+18
14246.0	1.573704567042867e+18
14247.0	1.5734324825423867e+18
14248.0	1.5731527677640701e+18
14249.0	1.5728928702332925e+18
14250.0	1.572624391156531e+18
14251.0	1.5723522714238976e+18
14252.0	1.572077026095923e+18
14253.0	1.5717927714029568e+18
14254.0	1.5715061796438013e+18
14255.0	1.5711528179204093e+18
14256.0	1.5705841273405435e+18
14257.0	1.570462789481267e+18
14258.0	1.570383955021005e+18
14259.0	1.5701243309588477e+18
14260.0	1.5698547127091195e+18
14261.0	1.569561962033971e+18
14262.0	1.5692433392140285e+18
14263.0	1.5684807056949243e+18
14264.0	1.568375284380467e+18
14265.0	1.5684589020250107e+18
14266.0	1.5682636789841915e+18
14267.0	1.5680161345175547e+18
14268.0	1.5677510880591872e+18
14269.0	1.5674765154975741e+18
14270.0	1.567208621945651e+18
14271.0	1.5669213540646907e+18
14272.0	1.5666076100591613e+18
14273.0	1.5661602825043965e+18
14274.0	1.5651287219568637e+18
14275.0	1.5654035176554493e+18
14276.0	1.5654708429455352e+18
14277.0	1.5652857248219139e+18
14278.0	1.5650451110232064e+18
14279.0	1.5647863476322301e+18
14280.0	1.5645222457311232e+18
14281.0	1.5642604490194941e+18
14282.0	1.5639941459476475e+18
14283.0	1.5637263782248448e+18
14284.0	1.5634575803809787e+18
14285.0	1.5631875208904701e+18
14286.0	1.562914959917056e+18
14287.0	1.562634267027046e+18
14288.0	1.5622849888780288e+18
14289.0	1.5611706411581437e+18
14290.0	1.5617541174984704e+18
14291.0	1.5615577989054464e+18
14292.0	1.561294106368409e+18
14293.0	1.561019312347545e+18
14294.0	1.5606764934266877e+18
14295.0	1.5604096568393725e+18
14296.0	1.559512305631232e+18
14297.0	1.5597685608284157e+18
14298.0	1.5594771959513088e+18
14299.0	1.559359899723366e+18
14300.0	1.5591369573662715e+18
14301.0	1.5588806434488315e+18
14302.0	1.5586155768578043e+18
14303.0	1.55831328833536e+18
14304.0	1.5580692687618043e+18
14305.0	1.5578123424759805e+18
14306.0	1.557542385326489e+18
14307.0	1.557271931571404e+18
14308.0	1.5570038836690941e+18
14309.0	1.556731836078489e+18
14310.0	1.5564553710469115e+18
14311.0	1.556166428799795e+18
14312.0	1.5558839961124864e+18
14313.0	1.5555125770715133e+18
14314.0	1.5553962069458941e+18
14315.0	1.5551249764057085e+18
14316.0	1.5548410320912381e+18
14317.0	1.554595774359142e+18
14318.0	1.554337636758323e+18
14319.0	1.5540699277557757e+18
14320.0	1.5538044551561213e+18
14321.0	1.5535333303123965e+18
14322.0	1.5532494967275515e+18
14323.0	1.5529886143741947e+18
14324.0	1.5527366725992448e+18
14325.0	1.5524632375328765e+18
14326.0	1.552209030833766e+18
14327.0	1.55193545148334e+18
14328.0	1.5516724853997565e+18
14329.0	1.5514129234132992e+18
14330.0	1.5511472981409787e+18
14331.0	1.5508811477417981e+18
14332.0	1.5506151667924992e+18
14333.0	1.550348793256345e+18
14334.0	1.5500811480072192e+18
14335.0	1.5497975425925115e+18
14336.0	1.5495067934392315e+18
14337.0	1.5492770059780093e+18
14338.0	1.549016600097587e+18
14339.0	1.5487430241026043e+18
14340.0	1.5484876664864765e+18
14341.0	1.5482207225249792e+18
14342.0	1.547945475519283e+18
14343.0	1.547690356139622e+18
14344.0	1.5473925370675197e+18
14345.0	1.5471392262717435e+18
14346.0	1.5468829391978493e+18
14347.0	1.5466118344867837e+18
14348.0	1.5463504890822653e+18
14349.0	1.5460830384488448e+18
14350.0	1.545781078759833e+18
14351.0	1.545510514275123e+18
14352.0	1.5452745980968957e+18
14353.0	1.5450223526543357e+18
14354.0	1.5447583480610813e+18
14355.0	1.5444873507241981e+18
14356.0	1.5442146941206525e+18
14357.0	1.5439564860555264e+18
14358.0	1.5437068914130941e+18
14359.0	1.5434279064436733e+18
14360.0	1.5431729665802235e+18
14361.0	1.5429103930834944e+18
14362.0	1.5426438786187256e+18
14363.0	1.5423661016088573e+18
14364.0	1.5420144998154235e+18
14365.0	1.5417763858219003e+18
14366.0	1.5415536397582339e+18
14367.0	1.5413231895969792e+18
14368.0	1.5410591044730877e+18
14369.0	1.540800772256563e+18
14370.0	1.5405374471405565e+18
14371.0	1.5402735264333821e+18
14372.0	1.5399950330363901e+18
14373.0	1.5397351690600448e+18
14374.0	1.539470845699686e+18
14375.0	1.5392000496893947e+18
14376.0	1.538948867922329e+18
14377.0	1.538684620059443e+18
14378.0	1.538419825259315e+18
14379.0	1.538156253518233e+18
14380.0	1.5378920845082621e+18
14381.0	1.5376199228325888e+18
14382.0	1.537366289914265e+18
14383.0	1.5371038221139965e+18
14384.0	1.5368228624662523e+18
14385.0	1.5365780073873405e+18
14386.0	1.5362964353712128e+18
14387.0	1.5360511826722813e+18
14388.0	1.5357857453047803e+18
14389.0	1.5355240341569533e+18
14390.0	1.5352605026811901e+18
14391.0	1.5349987227467773e+18
14392.0	1.534734092363366e+18
14393.0	1.5344717285818365e+18
14394.0	1.5341685106016256e+18
14395.0	1.5339356881420285e+18
14396.0	1.5336775555743741e+18
14397.0	1.5334184297955325e+18
14398.0	1.5331535024553981e+18
14399.0	1.5328818155749373e+18
14400.0	1.5326041174179837e+18
14401.0	1.5323350645604347e+18
14402.0	1.532042595742515e+18
14403.0	1.5315803985412093e+18
14404.0	1.5292325462802424e+18
14405.0	1.5292093819781107e+18
14406.0	1.5308664306925563e+18
14407.0	1.5306267228635133e+18
14408.0	1.5304717617856512e+18
14409.0	1.5302285122863104e+18
14410.0	1.5299825935319037e+18
14411.0	1.5297308061073405e+18
14412.0	1.529472074593075e+18
14413.0	1.5292151365631997e+18
14414.0	1.5289533918609405e+18
14415.0	1.5286923568349181e+18
14416.0	1.5284290333966333e+18
14417.0	1.5281665538523136e+18
14418.0	1.5279041212841981e+18
14419.0	1.527642819500441e+18
14420.0	1.5273780515438592e+18
14421.0	1.5271149948633085e+18
14422.0	1.5268404474675197e+18
14423.0	1.5265307971026941e+18
14424.0	1.525922676709785e+18
14425.0	1.5260016034447357e+18
14426.0	1.5258019562520573e+18
14427.0	1.5255488383942653e+18
14428.0	1.525265553424384e+18
14429.0	1.5250200943656957e+18
14430.0	1.5247267464216573e+18
14431.0	1.5243142366232576e+18
14432.0	1.524212518040371e+18
14433.0	1.5238905901088765e+18
14434.0	1.5237011736625147e+18
14435.0	1.5234514045370365e+18
14436.0	1.5232047408742397e+18
14437.0	1.5229466569605115e+18
14438.0	1.5226687960645624e+18
14439.0	1.5224147336495104e+18
14440.0	1.5221654527410173e+18
14441.0	1.5218858839244797e+18
14442.0	1.5216181631778813e+18
14443.0	1.52132714055598e+18
14444.0	1.5210917595709437e+18
14445.0	1.5208051879444477e+18
14446.0	1.5198606977925123e+18
14447.0	1.520187033098649e+18
14448.0	1.520059137025638e+18
14449.0	1.5198141527621632e+18
14450.0	1.5195522017001472e+18
14451.0	1.5192967165771773e+18
14452.0	1.5190407835025403e+18
14453.0	1.5187805453942781e+18
14454.0	1.5185183393185792e+18
14455.0	1.518253063012352e+18
14456.0	1.5179942962659325e+18
14457.0	1.517733281372569e+18
14458.0	1.517474096873472e+18
14459.0	1.5172099513516024e+18
14460.0	1.5169459736018941e+18
14461.0	1.5166718909349888e+18
14462.0	1.5164073763143677e+18
14463.0	1.5161626873298941e+18
14464.0	1.515905631859507e+18
14465.0	1.5156314099417085e+18
14466.0	1.5153966446804987e+18
14467.0	1.515126955966464e+18
14468.0	1.5148783729901563e+18
14469.0	1.5145823927009277e+18
14470.0	1.5143427469475835e+18
14471.0	1.5141011416154107e+18
14472.0	1.5138497803321341e+18
14473.0	1.5135973335629821e+18
14474.0	1.513343348323123e+18
14475.0	1.513084467491635e+18
14476.0	1.512822801642291e+18
14477.0	1.5125678768783357e+18
14478.0	1.512307907205529e+18
14479.0	1.5120496454533115e+18
14480.0	1.5117756835823613e+18
14481.0	1.5115320851169275e+18
14482.0	1.5112616733048832e+18
14483.0	1.5109979522465792e+18
14484.0	1.5107245155024893e+18
14485.0	1.5104163817979901e+18
14486.0	1.5100259625598976e+18
14487.0	1.5099440863903741e+18
14488.0	1.5097067105943547e+18
14489.0	1.509443273071001e+18
14490.0	1.5091945592324093e+18
14491.0	1.508946160805478e+18
14492.0	1.5086901757214715e+18
14493.0	1.5084207403433981e+18
14494.0	1.5081472952107003e+18
14495.0	1.507891239662387e+18
14496.0	1.507573885199974e+18
14497.0	1.507385498874675e+18
14498.0	1.5071388737994747e+18
14499.0	1.506885457307238e+18
14500.0	1.506625279596953e+18
14501.0	1.5063261451911163e+18
14502.0	1.5059216465133565e+18
14503.0	1.505829932184371e+18
14504.0	1.5055864008278016e+18
14505.0	1.5053304929189885e+18
14506.0	1.5050384150102016e+18
14507.0	1.504657555429785e+18
14508.0	1.5045415426588667e+18
14509.0	1.5043070693212157e+18
14510.0	1.5040494266482683e+18
14511.0	1.5037935942369277e+18
14512.0	1.5035279488319483e+18
14513.0	1.503262053446451e+18
14514.0	1.5029713814683648e+18
14515.0	1.5025966657044477e+18
14516.0	1.500093089002292e+18
14517.0	1.501852795823718e+18
14518.0	1.5019429347721213e+18
14519.0	1.5017001198026747e+18
14520.0	1.5014822307430397e+18
14521.0	1.5012322670018557e+18
14522.0	1.500976870798131e+18
14523.0	1.5007154515738621e+18
14524.0	1.5004598087450621e+18
14525.0	1.500206976099942e+18
14526.0	1.499947466122854e+18
14527.0	1.4996400001515515e+18
14528.0	1.4993382887653373e+18
14529.0	1.4991745565589504e+18
14530.0	1.498919814666649e+18
14531.0	1.4986709800321021e+18
14532.0	1.4984115270975488e+18
14533.0	1.4981568271482877e+18
14534.0	1.497903343547187e+18
14535.0	1.497638386008064e+18
14536.0	1.4973888148537341e+18
14537.0	1.4971277294960637e+18
14538.0	1.496882054011289e+18
14539.0	1.4966261209366525e+18
14540.0	1.496370942836736e+18
14541.0	1.496088708120576e+18
14542.0	1.4958550233120763e+18
14543.0	1.4955841518043136e+18
14544.0	1.4953332166623224e+18
14545.0	1.495039450965606e+18
14546.0	1.493978619209318e+18
14547.0	1.4936720843735035e+18
14548.0	1.4942389026160637e+18
14549.0	1.4939664339173373e+18
14550.0	1.493781783878041e+18
14551.0	1.4935559004749821e+18
14552.0	1.493298979222323e+18
14553.0	1.4930421854765053e+18
14554.0	1.4927956761640957e+18
14555.0	1.4925380754341885e+18
14556.0	1.4922740322533373e+18
14557.0	1.491997218255667e+18
14558.0	1.4915934544199677e+18
14559.0	1.4897031571046392e+18
14560.0	1.4910719195611136e+18
14561.0	1.4909714005491707e+18
14562.0	1.4907166687231995e+18
14563.0	1.4904948923826176e+18
14564.0	1.4902093307445248e+18
14565.0	1.4899956779319293e+18
14566.0	1.4897429761490941e+18
14567.0	1.4894855448690685e+18
14568.0	1.489220973205913e+18
14569.0	1.4889179716517885e+18
14570.0	1.4882364022849536e+18
14571.0	1.4884254479548416e+18
14572.0	1.4881777726259197e+18
14573.0	1.4879137629995005e+18
14574.0	1.4877003853332477e+18
14575.0	1.4874529801175037e+18
14576.0	1.4871908109516797e+18
14577.0	1.4869437043703805e+18
14578.0	1.486696839380992e+18
14579.0	1.486448300025446e+18
14580.0	1.486195203978035e+18
14581.0	1.4859390712545277e+18
14582.0	1.4856815594438656e+18
14583.0	1.4854322433032187e+18
14584.0	1.4851704717574141e+18
14585.0	1.4849239439900672e+18
14586.0	1.4846732185632768e+18
14587.0	1.484419352441651e+18
14588.0	1.4841598240096253e+18
14589.0	1.483906484692582e+18
14590.0	1.4836524138889213e+18
14591.0	1.4833924962254845e+18
14592.0	1.483118522610483e+18
14593.0	1.4828135631552512e+18
14594.0	1.4826174995759101e+18
14595.0	1.4823640226856957e+18
14596.0	1.4819789151141885e+18
14597.0	1.481706659486105e+18
14598.0	1.4815918563524605e+18
14599.0	1.4813687915216893e+18
14600.0	1.4811206900514813e+18
14601.0	1.4808689261150203e+18
14602.0	1.4806116508631037e+18
14603.0	1.4803585246167037e+18
14604.0	1.480075714442035e+18
14605.0	1.4798057572925435e+18
14606.0	1.4794994841812992e+18
14607.0	1.4793482694557693e+18
14608.0	1.4790701485129725e+18
14609.0	1.4787964785655805e+18
14610.0	1.478540909556531e+18
14611.0	1.478271106757427e+18
14612.0	1.4780946439995387e+18
14613.0	1.4778441584869376e+18
14614.0	1.4775539243941885e+18
14615.0	1.4773123022847997e+18
14616.0	1.4770847713591293e+18
14617.0	1.476744883417907e+18
14618.0	1.4764838886572024e+18
14619.0	1.4761195059806203e+18
14620.0	1.4758078993924099e+18
14621.0	1.4757800961900541e+18
14622.0	1.4755600260923387e+18
14623.0	1.4753166742519805e+18
14624.0	1.4750423164387325e+18
14625.0	1.4748133342838781e+18
14626.0	1.4745412447502336e+18
14627.0	1.4742932909195264e+18
14628.0	1.474075435414323e+18
14629.0	1.4738246059687936e+18
14630.0	1.4735443459309563e+18
14631.0	1.4732903204257787e+18
14632.0	1.4729758281564152e+18
14633.0	1.4727889803018237e+18
14634.0	1.4725651403636736e+18
14635.0	1.47229832726446e+18
14636.0	1.471996422940262e+18
14637.0	1.471812925495705e+18
14638.0	1.471552090118553e+18
14639.0	1.4712956436611072e+18
14640.0	1.4710364658728957e+18
14641.0	1.4706779753545725e+18
14642.0	1.4705345016365053e+18
14643.0	1.470300543359385e+18
14644.0	1.4700382282317821e+18
14645.0	1.4697566310498304e+18
14646.0	1.46950825443328e+18
14647.0	1.4692876172656635e+18
