# Flux units: erg / (cm m2 s)
# Wavelength units: Angstrom
wave	flux
14000.0	1.2323328488374272e+18
14001.0	1.2319425235517437e+18
14002.0	1.2318656125992957e+18
14003.0	1.2316308053950461e+18
14004.0	1.2313952071450624e+18
14005.0	1.2311608822857725e+18
14006.0	1.2309192576598013e+18
14007.0	1.2306843690860541e+18
14008.0	1.2303819723505664e+18
14009.0	1.2302211610574845e+18
14010.0	1.2299775181324285e+18
14011.0	1.229215387929805e+18
14012.0	1.2295163200143357e+18
14013.0	1.2292822652682237e+18
14014.0	1.2290430498504701e+18
14015.0	1.2288114185732093e+18
14016.0	1.2285783654268925e+18
14017.0	1.2283435104075773e+18
14018.0	1.2281088399376381e+18
14019.0	1.2278756316020733e+18
14020.0	1.2276401306599424e+18
14021.0	1.2274061799325693e+18
14022.0	1.2271691128373245e+18
14023.0	1.226915385966592e+18
14024.0	1.2266894161608701e+18
14025.0	1.2264699978579965e+18
14026.0	1.226235371008819e+18
14027.0	1.2260020586545152e+18
14028.0	1.2257649445830653e+18
14029.0	1.225532875420467e+18
14030.0	1.2242471308230664e+18
14031.0	1.225054955451187e+18
14032.0	1.2248339273744381e+18
14033.0	1.224561915854848e+18
14034.0	1.2243666835865597e+18
14035.0	1.2241325441155072e+18
14036.0	1.2238976135987197e+18
14037.0	1.2236645612912637e+18
14038.0	1.2234333309894653e+18
14039.0	1.2231973074370557e+18
14040.0	1.2229576734277632e+18
14041.0	1.2227308672778237e+18
14042.0	1.222493108122419e+18
14043.0	1.222230485971763e+18
14044.0	1.222022540768051e+18
14045.0	1.2217976564482045e+18
14046.0	1.2215656686551037e+18
14047.0	1.2213258534518781e+18
14048.0	1.2211004037398525e+18
14049.0	1.2208699930050557e+18
14050.0	1.2206372737253373e+18
14051.0	1.2203964711829501e+18
14052.0	1.220169668388454e+18
14053.0	1.2199387325267965e+18
14054.0	1.2197069041172475e+18
14055.0	1.2194739491176445e+18
14056.0	1.2192419973955581e+18
14057.0	1.2190096648306685e+18
14058.0	1.2187773482041341e+18
14059.0	1.218544284152627e+18
14060.0	1.2183128860786688e+18
14061.0	1.2180746689052667e+18
14062.0	1.2178482444369917e+18
14063.0	1.217605351453491e+18
14064.0	1.217156314300416e+18
14065.0	1.2171454325981181e+18
14066.0	1.2169193201860605e+18
14067.0	1.2166748333670397e+18
14068.0	1.2164566641278973e+18
14069.0	1.2162225078796283e+18
14070.0	1.2159933562748925e+18
14071.0	1.215759333405491e+18
14072.0	1.2155280947150845e+18
14073.0	1.215297238545203e+18
14074.0	1.2150658035613693e+18
14075.0	1.214821604471603e+18
14076.0	1.2145863266664445e+18
14077.0	1.2141283925557245e+18
14078.0	1.2141237050015744e+18
14079.0	1.2139017768271867e+18
14080.0	1.2136775333969917e+18
14081.0	1.2134465371373565e+18
14082.0	1.2132108264800253e+18
14083.0	1.2129831395262461e+18
14084.0	1.212753594495795e+18
14085.0	1.2122310035111933e+18
14086.0	1.2122734381236224e+18
14087.0	1.2120604085846016e+18
14088.0	1.2118200489607168e+18
14089.0	1.2115868683075581e+18
14090.0	1.2113619797934077e+18
14091.0	1.2111366122897405e+18
14092.0	1.2109057838022653e+18
14093.0	1.2106753705508861e+18
14094.0	1.210445008470016e+18
14095.0	1.210214601929523e+18
14096.0	1.2099408749395965e+18
14097.0	1.2097369873055741e+18
14098.0	1.2095043208740861e+18
14099.0	1.2092933406719997e+18
14100.0	1.2090528787070973e+18
14101.0	1.2088330636230653e+18
14102.0	1.2086015506251773e+18
14103.0	1.2083592398110717e+18
14104.0	1.208140979974963e+18
14105.0	1.207912516236083e+18
14106.0	1.2076830550917117e+18
14107.0	1.2074508978487293e+18
14108.0	1.2072130539683837e+18
14109.0	1.2069892769447933e+18
14110.0	1.2067564452577277e+18
14111.0	1.2065169429495805e+18
14112.0	1.2062970733395965e+18
14113.0	1.2060658489098237e+18
14114.0	1.2058352670474237e+18
14115.0	1.205612120847155e+18
14116.0	1.2053365668184061e+18
14117.0	1.2033935370354696e+18
14118.0	1.204926138233651e+18
14119.0	1.2046729163571197e+18
14120.0	1.2044452201758717e+18
14121.0	1.2042305481474045e+18
14122.0	1.2039650503819261e+18
14123.0	1.2037556455604224e+18
14124.0	1.203514684473344e+18
14125.0	1.2029732988125181e+18
14126.0	1.2030882764292093e+18
14127.0	1.2028656855547901e+18
14128.0	1.2026357890416637e+18
14129.0	1.2024005221416957e+18
14130.0	1.20216397849559e+18
14131.0	1.201950870942515e+18
14132.0	1.2017168732389373e+18
14133.0	1.201081888328907e+18
14134.0	1.201258794005299e+18
14135.0	1.2010190215839741e+18
14136.0	1.2007341721387008e+18
14137.0	1.2005736745795581e+18
14138.0	1.2003246604287997e+18
14139.0	1.2001175775739901e+18
14140.0	1.1998800365223933e+18
14141.0	1.1996608757497853e+18
14142.0	1.1993020261990397e+18
14143.0	1.1991977599959037e+18
14144.0	1.1989775489695741e+18
14145.0	1.1987478688825341e+18
14146.0	1.1985174866690045e+18
14147.0	1.1982920445067261e+18
14148.0	1.1980607487737853e+18
14149.0	1.1978317028655101e+18
14150.0	1.1976102578749437e+18
14151.0	1.1973713360584701e+18
14152.0	1.1971541566750717e+18
14153.0	1.1969277867327485e+18
14154.0	1.1966834156765181e+18
14155.0	1.1956978574163973e+18
14156.0	1.196226916017766e+18
14157.0	1.196016608582041e+18
14158.0	1.1957852423847933e+18
14159.0	1.1955611298168827e+18
14160.0	1.1953343840649213e+18
14161.0	1.195058202568294e+18
14162.0	1.1948021419868155e+18
14163.0	1.1946516654587901e+18
14164.0	1.1943719573913597e+18
14165.0	1.1940962204909568e+18
14166.0	1.1939711664783357e+18
14167.0	1.1937363953451008e+18
14168.0	1.1935105522073597e+18
14169.0	1.1932924165226493e+18
14170.0	1.193059655299891e+18
14171.0	1.1928334799732733e+18
14172.0	1.1926124183420928e+18
14173.0	1.1923306869424125e+18
14174.0	1.1921556871577597e+18
14175.0	1.1919324386164733e+18
14176.0	1.19170446393344e+18
14177.0	1.1914795636752381e+18
14178.0	1.191252859027456e+18
14179.0	1.1910157743161341e+18
14180.0	1.1908013497516032e+18
14181.0	1.1905751752638461e+18
14182.0	1.1903483867299837e+18
14183.0	1.1901229814775805e+18
14184.0	1.1898925145391101e+18
14185.0	1.189669491651379e+18
14186.0	1.1891439730425856e+18
14187.0	1.1891995937079293e+18
14188.0	1.1889889826045947e+18
14189.0	1.1887624465678336e+18
14190.0	1.1885374968168445e+18
14191.0	1.1883108072685565e+18
14192.0	1.1880815147352061e+18
14193.0	1.187814032225075e+18
14194.0	1.1876344111562747e+18
14195.0	1.187412184347443e+18
14196.0	1.1871864645222397e+18
14197.0	1.1869599200968701e+18
14198.0	1.1867310327332861e+18
14199.0	1.1865072657760253e+18
14200.0	1.1860808384380928e+18
14201.0	1.1860584735703037e+18
14202.0	1.1858327621337085e+18
14203.0	1.1855967570362365e+18
14204.0	1.185382636978176e+18
14205.0	1.185157733364531e+18
14206.0	1.1848410743177216e+18
14207.0	1.1847096701288448e+18
14208.0	1.184484975391539e+18
14209.0	1.184150646580838e+18
14210.0	1.1839754052042747e+18
14211.0	1.1838058554982397e+18
14212.0	1.1835854532116477e+18
14213.0	1.1833580137218045e+18
14214.0	1.183136175305523e+18
14215.0	1.182899608171315e+18
14216.0	1.1826859905908733e+18
14217.0	1.1824621028376573e+18
14218.0	1.182229958177587e+18
14219.0	1.1820133953568765e+18
14220.0	1.1817870992343037e+18
14221.0	1.1815614096080893e+18
14222.0	1.1813105692573693e+18
14223.0	1.1811157346091003e+18
14224.0	1.1808925632430077e+18
14225.0	1.180023216563815e+18
14226.0	1.1804444320595965e+18
14227.0	1.180219489858355e+18
14228.0	1.177951580192769e+18
14229.0	1.1795925848555502e+18
14230.0	1.1795490689515517e+18
14231.0	1.1793002695491581e+18
14232.0	1.1791016214396925e+18
14233.0	1.1788722693472253e+18
14234.0	1.1786543215673341e+18
14235.0	1.1784286596235261e+18
14236.0	1.1782070988701696e+18
14237.0	1.1779816038596605e+18
14238.0	1.1777594114441213e+18
14239.0	1.1775289075957757e+18
14240.0	1.1759271557464072e+18
14241.0	1.1770861124059133e+18
14242.0	1.1768660003651581e+18
14243.0	1.176527969661747e+18
14244.0	1.176420931023667e+18
14245.0	1.176183691961958e+18
14246.0	1.1759505012424701e+18
14247.0	1.1757485706706941e+18
14248.0	1.1755136116326397e+18
14249.0	1.1753027908141053e+18
14250.0	1.1750813315629053e+18
14251.0	1.1748595065683965e+18
14252.0	1.1746370029355005e+18
14253.0	1.1742011442855933e+18
14254.0	1.1739137505755133e+18
14255.0	1.1736650233151488e+18
14256.0	1.1729301250506755e+18
14257.0	1.1732381731913725e+18
14258.0	1.1730256301916157e+18
14259.0	1.1727901040836605e+18
14260.0	1.1725578193338365e+18
14261.0	1.1723454533337085e+18
14262.0	1.1721463245570045e+18
14263.0	1.1710910217322504e+18
14264.0	1.1715831520034813e+18
14265.0	1.1714741420425216e+18
14266.0	1.1712561649025024e+18
14267.0	1.1710359178051584e+18
14268.0	1.170812110582579e+18
14269.0	1.170585702052659e+18
14270.0	1.1703701550923773e+18
14271.0	1.1701456960749565e+18
14272.0	1.1699264195395581e+18
14273.0	1.1697043865075712e+18
14274.0	1.1682522815528968e+18
14275.0	1.1691483635646464e+18
14276.0	1.1690250988421117e+18
14277.0	1.168801915731968e+18
14278.0	1.1685965374423037e+18
14279.0	1.1683749741723645e+18
14280.0	1.1681474340192256e+18
14281.0	1.1679321949208573e+18
14282.0	1.1677111072849917e+18
14283.0	1.1674896882991101e+18
14284.0	1.16726844882944e+18
14285.0	1.1670472051654653e+18
14286.0	1.1668231571898365e+18
14287.0	1.1666044611461117e+18
14288.0	1.166383173861376e+18
14289.0	1.1652790183002079e+18
14290.0	1.1659396731895805e+18
14291.0	1.1657203463225344e+18
14292.0	1.165498728526643e+18
14293.0	1.1652763272347645e+18
14294.0	1.1649529598181373e+18
14295.0	1.1648262456999933e+18
14296.0	1.163903351180493e+18
14297.0	1.1643951895281661e+18
14298.0	1.1639134099603456e+18
14299.0	1.1639400530182141e+18
14300.0	1.163726791114752e+18
14301.0	1.163510150279987e+18
14302.0	1.1632887715594237e+18
14303.0	1.1630481359503357e+18
14304.0	1.162837954343731e+18
14305.0	1.1626301039312893e+18
14306.0	1.1623795404046336e+18
14307.0	1.1621809325604861e+18
14308.0	1.1619705655656445e+18
14309.0	1.1617499049099261e+18
14310.0	1.1614220395216893e+18
14311.0	1.161008454303744e+18
14312.0	1.1610523627945981e+18
14313.0	1.1607140561059837e+18
14314.0	1.1606445338394624e+18
14315.0	1.1604297225601021e+18
14316.0	1.1601733272731645e+18
14317.0	1.1599666797871101e+18
14318.0	1.1597726655447037e+18
14319.0	1.1595536851271677e+18
14320.0	1.1593337526026237e+18
14321.0	1.159111873082163e+18
14322.0	1.158859862520627e+18
14323.0	1.1586669069205501e+18
14324.0	1.1584554083024893e+18
14325.0	1.1582311816495101e+18
14326.0	1.1580178459262973e+18
14327.0	1.1577942089924603e+18
14328.0	1.1575728856367101e+18
14329.0	1.1573602906275837e+18
14330.0	1.1571411952861181e+18
14331.0	1.1569196076892157e+18
14332.0	1.156702467732275e+18
14333.0	1.1564839847591933e+18
14334.0	1.156265274454835e+18
14335.0	1.1560274129584125e+18
14336.0	1.1557606837452797e+18
14337.0	1.1556067032956928e+18
14338.0	1.1553881179815933e+18
14339.0	1.155162558378803e+18
14340.0	1.1549527978803197e+18
14341.0	1.1547285603221501e+18
14342.0	1.1545210278379517e+18
14343.0	1.154308983960371e+18
14344.0	1.154089999348531e+18
14345.0	1.1538768221700096e+18
14346.0	1.1536566052716544e+18
14347.0	1.153404472236441e+18
14348.0	1.1532219092828157e+18
14349.0	1.1530038516121597e+18
14350.0	1.1527363229646847e+18
14351.0	1.1525115586019324e+18
14352.0	1.1523410408505341e+18
14353.0	1.1521290674372604e+18
14354.0	1.1519067852636159e+18
14355.0	1.1516775648722941e+18
14356.0	1.1514664261255167e+18
14357.0	1.151259536208691e+18
14358.0	1.1510418912575485e+18
14359.0	1.1508147277529087e+18
14360.0	1.1506014968872957e+18
14361.0	1.1503877383782397e+18
14362.0	1.1501711277424639e+18
14363.0	1.1499533091471357e+18
14364.0	1.1495778551857151e+18
14365.0	1.1495046880690173e+18
14366.0	1.1492695855857661e+18
14367.0	1.1490830413987839e+18
14368.0	1.1488652001542141e+18
14369.0	1.1486491658158077e+18
14370.0	1.1484319981764605e+18
14371.0	1.1482149496553471e+18
14372.0	1.1479923378094077e+18
14373.0	1.1477784610209788e+18
14374.0	1.1475628805062652e+18
14375.0	1.1473417073065983e+18
14376.0	1.1471283296403455e+18
14377.0	1.14691196059648e+18
14378.0	1.1466934776233983e+18
14379.0	1.1464787183534076e+18
14380.0	1.1462616127897597e+18
14381.0	1.1460364432572415e+18
14382.0	1.1458272708001791e+18
14383.0	1.1456042764337151e+18
14384.0	1.1453824724107261e+18
14385.0	1.1451784430092287e+18
14386.0	1.1449501050994685e+18
14387.0	1.1447442872467452e+18
14388.0	1.1445260081168383e+18
14389.0	1.1443123896975359e+18
14390.0	1.144094009065472e+18
14391.0	1.143879591211827e+18
14392.0	1.1436593172709373e+18
14393.0	1.1434472499052541e+18
14394.0	1.1432040901640191e+18
14395.0	1.1430034522767357e+18
14396.0	1.1427984942563328e+18
14397.0	1.1425824691453951e+18
14398.0	1.1423642588020736e+18
14399.0	1.142148487865958e+18
14400.0	1.1419147107827711e+18
14401.0	1.1417131526651901e+18
14402.0	1.141500045112115e+18
14403.0	1.139403622082146e+18
14404.0	1.134136481388951e+18
14405.0	1.1396425472540603e+18
14406.0	1.1406376140013565e+18
14407.0	1.137364297790261e+18
14408.0	1.1401882580811775e+18
14409.0	1.1399748015620093e+18
14410.0	1.1397639991984128e+18
14411.0	1.1395591426801661e+18
14412.0	1.1393421612679165e+18
14413.0	1.1391296702775293e+18
14414.0	1.1389129539452925e+18
14415.0	1.1386985495134205e+18
14416.0	1.1384785599463423e+18
14417.0	1.1382473447440383e+18
14418.0	1.1380228236509184e+18
14419.0	1.1378373121015805e+18
14420.0	1.1376184935841788e+18
14421.0	1.137408027603763e+18
14422.0	1.1371910336086015e+18
14423.0	1.1369726781423615e+18
14424.0	1.124878654216592e+18
14425.0	1.1365464496144383e+18
14426.0	1.136334130590515e+18
14427.0	1.1361182975787007e+18
14428.0	1.1358867803865087e+18
14429.0	1.135688911578726e+18
14430.0	1.1354757704712191e+18
14431.0	1.1349862440239104e+18
14432.0	1.1350390477946879e+18
14433.0	1.1325270095036397e+18
14434.0	1.1346067660472316e+18
14435.0	1.1343641280774141e+18
14436.0	1.134188567933747e+18
14437.0	1.1339746156478461e+18
14438.0	1.1336846122418175e+18
14439.0	1.1335328581287933e+18
14440.0	1.1333313302102013e+18
14441.0	1.133109360931635e+18
14442.0	1.1328853196668925e+18
14443.0	1.1326393799409664e+18
14444.0	1.1324715633213435e+18
14445.0	1.1322616442781695e+18
14446.0	1.1291530039918609e+18
14447.0	1.1318290420858876e+18
14448.0	1.1316202328555516e+18
14449.0	1.1314060146507773e+18
14450.0	1.1311883772493823e+18
14451.0	1.1309767603519487e+18
14452.0	1.1307639875043328e+18
14453.0	1.130516760127078e+18
14454.0	1.1303366953009151e+18
14455.0	1.1301175253008384e+18
14456.0	1.1299015647821821e+18
14457.0	1.1296849398857728e+18
14458.0	1.1294819095674877e+18
14459.0	1.1292671351980031e+18
14460.0	1.1290558035132415e+18
14461.0	1.1288268951781375e+18
14462.0	1.1283660133105665e+18
14463.0	1.1284115701628928e+18
14464.0	1.128201844896563e+18
14465.0	1.1279666501386237e+18
14466.0	1.1277741399736319e+18
14467.0	1.1275271197949951e+18
14468.0	1.1273468368650239e+18
14469.0	1.1271040353173501e+18
14470.0	1.126896820761395e+18
14471.0	1.1267004652584957e+18
14472.0	1.1264931718496256e+18
14473.0	1.1262841738756093e+18
14474.0	1.1260735602556925e+18
14475.0	1.1258577423433725e+18
14476.0	1.1254960213721088e+18
14477.0	1.1254342468239357e+18
14478.0	1.1252212307066877e+18
14479.0	1.1250039548542975e+18
14480.0	1.1247844954472447e+18
14481.0	1.1245864471232512e+18
14482.0	1.1243716316495872e+18
14483.0	1.1241529817432061e+18
14484.0	1.1239464609251324e+18
14485.0	1.1237029522178045e+18
14486.0	1.1232837130780673e+18
14487.0	1.1233123878567932e+18
14488.0	1.1230730877140991e+18
14489.0	1.1228626695487485e+18
14490.0	1.1226680840421373e+18
14491.0	1.1224634053623805e+18
14492.0	1.1222504278327296e+18
14493.0	1.1220332090228733e+18
14494.0	1.1218120702164991e+18
14495.0	1.121616770839347e+18
14496.0	1.1212973636845567e+18
14497.0	1.1211922703646719e+18
14498.0	1.1209808245948413e+18
14499.0	1.1207702537568252e+18
14500.0	1.1205585672339455e+18
14501.0	1.1202879289294847e+18
14502.0	1.1198788802707456e+18
14503.0	1.1199040486113277e+18
14504.0	1.119708042913382e+18
14505.0	1.1194532037132285e+18
14506.0	1.1191677662265343e+18
14507.0	1.1188804857626624e+18
14508.0	1.1188669037674493e+18
14509.0	1.1186552633819133e+18
14510.0	1.1184415401050111e+18
14511.0	1.1182336209059837e+18
14512.0	1.1180103765590013e+18
14513.0	1.1178113761279997e+18
14514.0	1.1175660730974204e+18
14515.0	1.1173876482441215e+18
14516.0	1.1149283734585361e+18
14517.0	1.1169671675904e+18
14518.0	1.1167563744542719e+18
14519.0	1.1165442307522557e+18
14520.0	1.1163334770425856e+18
14521.0	1.1161197436993533e+18
14522.0	1.115910832128e+18
14523.0	1.1155568848797692e+18
14524.0	1.1153574583074813e+18
14525.0	1.1152767624151039e+18
14526.0	1.115067960734515e+18
14527.0	1.1148521981870077e+18
14528.0	1.1145098540613631e+18
14529.0	1.1144313434013693e+18
14530.0	1.1142130114232319e+18
14531.0	1.1140166273990652e+18
14532.0	1.1135987388252159e+18
14533.0	1.1135971567337468e+18
14534.0	1.1133874927042557e+18
14535.0	1.1131689443000319e+18
14536.0	1.1129643805442047e+18
14537.0	1.1127455855149055e+18
14538.0	1.1125467285291005e+18
14539.0	1.1123357374218237e+18
14540.0	1.1121253553274879e+18
14541.0	1.1118995943981056e+18
14542.0	1.1117036826525693e+18
14543.0	1.1114080840450047e+18
14544.0	1.111284467839795e+18
14545.0	1.1108236614696956e+18
14546.0	1.0934672909401985e+18
14547.0	1.0952604045541222e+18
14548.0	1.1101173272543231e+18
14549.0	1.1098208788807679e+18
14550.0	1.1097023075844093e+18
14551.0	1.1094989517881341e+18
14552.0	1.1092886913286141e+18
14553.0	1.1090693049024511e+18
14554.0	1.1088696275107839e+18
14555.0	1.1086606698020861e+18
14556.0	1.1084480714375164e+18
14557.0	1.1082421705375741e+18
14558.0	1.1080326776356864e+18
14559.0	1.1061918848516035e+18
14560.0	1.1075966310809596e+18
14561.0	1.1073986850979839e+18
14562.0	1.1071730978127868e+18
14563.0	1.1069855973244927e+18
14564.0	1.1067520266010621e+18
14565.0	1.1065686046539775e+18
14566.0	1.1063595857084413e+18
14567.0	1.1061488890413052e+18
14568.0	1.1059009402437631e+18
14569.0	1.1057318410059775e+18
14570.0	1.1050423553097727e+18
14571.0	1.1053122386395133e+18
14572.0	1.1050577534386175e+18
14573.0	1.1048552868347901e+18
14574.0	1.1046283003297792e+18
14575.0	1.1044761116868608e+18
14576.0	1.1042626207744e+18
14577.0	1.1040565386805245e+18
14578.0	1.1038495967543293e+18
14579.0	1.1036451588276221e+18
14580.0	1.1034361927303167e+18
14581.0	1.1032222949703679e+18
14582.0	1.1030165031223295e+18
14583.0	1.1028114469552128e+18
14584.0	1.1025854024908797e+18
14585.0	1.1023947210424316e+18
14586.0	1.1021835932008447e+18
14587.0	1.1019752025620476e+18
14588.0	1.1017695264768e+18
14589.0	1.101568161297203e+18
14590.0	1.1013668338663421e+18
14591.0	1.1011601301766141e+18
14592.0	1.1009581928939519e+18
14593.0	1.1006685132881919e+18
14594.0	1.1005599630229504e+18
14595.0	1.100352995930931e+18
14596.0	1.0999999303254011e+18
14597.0	1.0997722811203579e+18
14598.0	1.099740715627315e+18
14599.0	1.0995545883541501e+18
14600.0	1.0993493702868991e+18
14601.0	1.0991522237382655e+18
14602.0	1.0989328196960252e+18
14603.0	1.0987499446861821e+18
14604.0	1.0985066532438015e+18
14605.0	1.0983081276080124e+18
14606.0	1.0980678929743868e+18
14607.0	1.0979438330118141e+18
14608.0	1.0977410073755647e+18
14609.0	1.0975339027103741e+18
14610.0	1.0972698595295231e+18
14611.0	1.0971374612905981e+18
14612.0	1.0969407266226175e+18
14613.0	1.0967411675103231e+18
14614.0	1.0965361239261181e+18
14615.0	1.0963339601510397e+18
14616.0	1.0961389392756733e+18
14617.0	1.095935903085363e+18
14618.0	1.0957218476195839e+18
14619.0	1.0954781929504762e+18
14620.0	1.0949587032342528e+18
14621.0	1.0951357750050813e+18
14622.0	1.0949329896341504e+18
14623.0	1.0947346938462205e+18
14624.0	1.0944884068319231e+18
14625.0	1.094331359507251e+18
14626.0	1.094128275501875e+18
14627.0	1.0939231438372861e+18
14628.0	1.0937323524980736e+18
14629.0	1.0935319452975103e+18
14630.0	1.0933271433052159e+18
14631.0	1.0931286537404413e+18
14632.0	1.0918556497608709e+18
14633.0	1.0926384041951226e+18
14634.0	1.0925213260709885e+18
14635.0	1.0916976872390598e+18
14636.0	1.0894035455574015e+18
14637.0	1.0919279285239808e+18
14638.0	1.091719037924147e+18
14639.0	1.0915117789085695e+18
14640.0	1.0913246030594047e+18
14641.0	1.087168461353775e+18
14642.0	1.0909230454276095e+18
14643.0	1.0907252655390719e+18
14644.0	1.0905155973152767e+18
14645.0	1.0903059542573055e+18
