# Flux units: erg / (cm m2 s)
# Wavelength units: Angstrom
wave	flux
14000.0	2.2132648369455101e+18
14001.0	2.2127313499979773e+18
14002.0	2.2121979972681723e+18
14003.0	2.2116648374763517e+18
14004.0	2.211131848812134e+18
14005.0	2.210599001076531e+18
14006.0	2.2100661751513083e+18
14007.0	2.2095336495382528e+18
14008.0	2.208999630752972e+18
14009.0	2.2084691100172285e+18
14010.0	2.2079370357112827e+18
14011.0	2.2073959956611067e+18
14012.0	2.2068733467951101e+18
14013.0	2.2063417456066557e+18
14014.0	2.205810293735424e+18
14015.0	2.205257209321881e+18
14016.0	2.2047239220232187e+18
14017.0	2.2041928845492221e+18
14018.0	2.203661957804851e+18
14019.0	2.20313127265239e+18
14020.0	2.202600684807782e+18
14021.0	2.2020702378917883e+18
14022.0	2.2015399855915005e+18
14023.0	2.2010097685233664e+18
14024.0	2.2004797561372667e+18
14025.0	2.1999501480820733e+18
14026.0	2.1994204796289021e+18
14027.0	2.1988910208909304e+18
14028.0	2.198361699726131e+18
14029.0	2.1978324859355133e+18
14030.0	2.1972975192375293e+18
14031.0	2.1967746187132923e+18
14032.0	2.1962428799516667e+18
14033.0	2.195693661008691e+18
14034.0	2.1951653263441917e+18
14035.0	2.1946370436890621e+18
14036.0	2.194108883507609e+18
14037.0	2.1935809011646461e+18
14038.0	2.193053059750297e+18
14039.0	2.192525371008614e+18
14040.0	2.191997839972761e+18
14041.0	2.1914704666427387e+18
14042.0	2.1909431469998075e+18
14043.0	2.1904157938024445e+18
14044.0	2.1898891049828342e+18
14045.0	2.1893625034047483e+18
14046.0	2.1888358984712187e+18
14047.0	2.188309412655923e+18
14048.0	2.1877831315226621e+18
14049.0	2.1872570013843453e+18
14050.0	2.1867310138523645e+18
14051.0	2.1862050296758267e+18
14052.0	2.1856671873630203e+18
14053.0	2.185130690582937e+18
14054.0	2.1846052684431355e+18
14055.0	2.1840799872319483e+18
14056.0	2.1835548620488696e+18
14057.0	2.183029896249344e+18
14058.0	2.1825050697007096e+18
14059.0	2.18198040421335e+18
14060.0	2.1814558964318203e+18
14061.0	2.1809314205270016e+18
14062.0	2.1804073288204283e+18
14063.0	2.1798829938442237e+18
14064.0	2.1793585196171261e+18
14065.0	2.178835494941491e+18
14066.0	2.178312005536972e+18
14067.0	2.1777885765304315e+18
14068.0	2.177265281741619e+18
14069.0	2.176742116137369e+18
14070.0	2.17621916024832e+18
14071.0	2.175696274823577e+18
14072.0	2.17517363602391e+18
14073.0	2.1746511079538685e+18
14074.0	2.174128730878771e+18
14075.0	2.1735837918035963e+18
14076.0	2.1730614382166016e+18
14077.0	2.1725382340247547e+18
14078.0	2.1720175111831547e+18
14079.0	2.1714958454620155e+18
14080.0	2.170974438110003e+18
14081.0	2.1704530710233083e+18
14082.0	2.1699314623447037e+18
14083.0	2.1694107613134843e+18
14084.0	2.1688898623111163e+18
14085.0	2.1683647857819645e+18
14086.0	2.167848366296268e+18
14087.0	2.1673280175865848e+18
14088.0	2.1668076873318392e+18
14089.0	2.166287528204697e+18
14090.0	2.1657675133616125e+18
14091.0	2.1652476763570173e+18
14092.0	2.164727966859264e+18
14093.0	2.164208413389619e+18
14094.0	2.1636890109149181e+18
14095.0	2.1631697527242752e+18
14096.0	2.1626502982402043e+18
14097.0	2.1621316775837693e+18
14098.0	2.1616126777622525e+18
14099.0	2.161091282154291e+18
14100.0	2.1605529348472827e+18
14101.0	2.160034706777702e+18
14102.0	2.159516441798246e+18
14103.0	2.1589981399089152e+18
14104.0	2.1584803832791037e+18
14105.0	2.157962489076121e+18
14106.0	2.1574449136402424e+18
14107.0	2.1569271704322045e+18
14108.0	2.156410044625715e+18
14109.0	2.155892742658457e+18
14110.0	2.15537534673879e+18
14111.0	2.1548579810181115e+18
14112.0	2.1543420782706683e+18
14113.0	2.1538254910128125e+18
14114.0	2.1533090161623037e+18
14115.0	2.1527926990176253e+18
14116.0	2.152275360140492e+18
14117.0	2.1517501577822203e+18
14118.0	2.1512446652973053e+18
14119.0	2.1507287709384701e+18
14120.0	2.1502132037353472e+18
14121.0	2.1496977371955195e+18
14122.0	2.149182477015449e+18
14123.0	2.1486671413379067e+18
14124.0	2.1481521915363328e+18
14125.0	2.1476300241764347e+18
14126.0	2.147123087173222e+18
14127.0	2.1465918970265595e+18
14128.0	2.1460719006384125e+18
14129.0	2.145557638702694e+18
14130.0	2.1450435025960955e+18
14131.0	2.1445295124512765e+18
14132.0	2.1440156632350717e+18
14133.0	2.1434929405493243e+18
14134.0	2.142988422820659e+18
14135.0	2.1424747782864893e+18
14136.0	2.1419609961791488e+18
14137.0	2.141448661945548e+18
14138.0	2.1409355593154555e+18
14139.0	2.140422916381081e+18
14140.0	2.13990952182743e+18
14141.0	2.1393977093652477e+18
14142.0	2.1388841302622205e+18
14143.0	2.1383721500278781e+18
14144.0	2.1378610958958587e+18
14145.0	2.1373491844481021e+18
14146.0	2.1368373132656637e+18
14147.0	2.1363257524617216e+18
14148.0	2.1358142637998077e+18
14149.0	2.1353029445877755e+18
14150.0	2.1347917394608125e+18
14151.0	2.1342806719070205e+18
14152.0	2.1337698191015933e+18
14153.0	2.1332590585708536e+18
14154.0	2.1327484624568315e+18
14155.0	2.1322360745361403e+18
14156.0	2.13172760912855e+18
14157.0	2.1312175280750587e+18
14158.0	2.130704162042675e+18
14159.0	2.1301757770465277e+18
14160.0	2.1296659744948221e+18
14161.0	2.1291552861061112e+18
14162.0	2.12864508928983e+18
14163.0	2.1281375113969661e+18
14164.0	2.1276279605035005e+18
14165.0	2.127111722211737e+18
14166.0	2.1266103133011963e+18
14167.0	2.1261016331452416e+18
14168.0	2.1255929328566267e+18
14169.0	2.125084561401446e+18
14170.0	2.124576156391833e+18
14171.0	2.1240680080736256e+18
14172.0	2.1235600124280827e+18
14173.0	2.123048696571494e+18
14174.0	2.1225443080273917e+18
14175.0	2.1220367636889595e+18
14176.0	2.1215293183361021e+18
14177.0	2.1210220105564152e+18
14178.0	2.1205147749187581e+18
14179.0	2.120007099718041e+18
14180.0	2.1195009680211963e+18
14181.0	2.118994227311411e+18
14182.0	2.1184876375965693e+18
14183.0	2.1179812055875576e+18
14184.0	2.1174748121661437e+18
14185.0	2.1169687442227192e+18
14186.0	2.1164607636766717e+18
14187.0	2.1159568717381627e+18
14188.0	2.1154511359836157e+18
14189.0	2.1149454706933755e+18
14190.0	2.114440127525683e+18
14191.0	2.1139348279787515e+18
14192.0	2.1134295686971387e+18
14193.0	2.112924356391731e+18
14194.0	2.1124198084640765e+18
14195.0	2.1118947302572027e+18
14196.0	2.111389026379366e+18
14197.0	2.1108845455605755e+18
14198.0	2.1103801150734333e+18
14199.0	2.1098758926237693e+18
14200.0	2.1093707725930493e+18
14201.0	2.1088680416378877e+18
14202.0	2.108364292305715e+18
14203.0	2.107859841685913e+18
14204.0	2.1073571426074621e+18
14205.0	2.1068537992839165e+18
14206.0	2.1063486607982587e+18
14207.0	2.105847570654822e+18
14208.0	2.105344685349273e+18
14209.0	2.1048395955175424e+18
14210.0	2.1043378963611645e+18
14211.0	2.1038367860850683e+18
14212.0	2.103334439328153e+18
14213.0	2.1028322200780792e+18
14214.0	2.1023301753110525e+18
14215.0	2.1018280533688317e+18
14216.0	2.1013265001742333e+18
14217.0	2.1008248647712765e+18
14218.0	2.1003233719746552e+18
14219.0	2.0998220150734843e+18
14220.0	2.0993208091672573e+18
14221.0	2.098819734123315e+18
14222.0	2.098318806718873e+18
14223.0	2.0978180219207675e+18
14224.0	2.0973173797289976e+18
14225.0	2.0968136555626493e+18
14226.0	2.0963165080649725e+18
14227.0	2.0958162903367677e+18
14228.0	2.0953089708130301e+18
14229.0	2.094815368341094e+18
14230.0	2.0943164625911805e+18
14231.0	2.0938168001888253e+18
14232.0	2.0933172770373627e+18
14233.0	2.0928178981699581e+18
14234.0	2.092318655198003e+18
14235.0	2.0918071396925437e+18
14236.0	2.091299521534361e+18
14237.0	2.0908006661160955e+18
14238.0	2.090301953304166e+18
14239.0	2.0898032774021115e+18
14240.0	2.089282829706854e+18
14241.0	2.0888066017198077e+18
14242.0	2.0883084358451192e+18
14243.0	2.0878078188191736e+18
14244.0	2.0873125201707003e+18
14245.0	2.0868147737264125e+18
14246.0	2.0863171296231421e+18
14247.0	2.085819665036083e+18
14248.0	2.0853221199183867e+18
14249.0	2.0848251099938816e+18
14250.0	2.084328048060006e+18
14251.0	2.0838311639646203e+18
14252.0	2.0833343805325312e+18
14253.0	2.082837732995891e+18
14254.0	2.0823411878002683e+18
14255.0	2.0818443892686843e+18
14256.0	2.081345658001817e+18
14257.0	2.0808525236142077e+18
14258.0	2.0803566075641856e+18
14259.0	2.079860792177459e+18
14260.0	2.0793650371887101e+18
14261.0	2.0788698173931515e+18
14262.0	2.078379825378099e+18
14263.0	2.0778801176772605e+18
14264.0	2.0773887230869496e+18
14265.0	2.07689451831296e+18
14266.0	2.076399592118681e+18
14267.0	2.0759048487960573e+18
14268.0	2.075409330366054e+18
14269.0	2.0749112165007355e+18
14270.0	2.0744169664282621e+18
14271.0	2.0739226844790781e+18
14272.0	2.073428768273203e+18
14273.0	2.0729348705222648e+18
14274.0	2.0724345957515261e+18
14275.0	2.0719469324140544e+18
14276.0	2.071453417183641e+18
14277.0	2.0709604807671803e+18
14278.0	2.0704674889859067e+18
14279.0	2.0699744166739965e+18
14280.0	2.0694813544284152e+18
14281.0	2.0689886763810816e+18
14282.0	2.0684960251772925e+18
14283.0	2.0680034947694587e+18
14284.0	2.067493995885363e+18
14285.0	2.0669981922426877e+18
14286.0	2.066506000734617e+18
14287.0	2.066013993775923e+18
14288.0	2.0655220824473592e+18
14289.0	2.065016212475084e+18
14290.0	2.064538531581133e+18
14291.0	2.0640471822893048e+18
14292.0	2.0635558380306424e+18
14293.0	2.0630645826912253e+18
14294.0	2.0625712318775293e+18
14295.0	2.0620826541817848e+18
14296.0	2.0615803862777848e+18
14297.0	2.0611011753017344e+18
14298.0	2.0606080174260221e+18
14299.0	2.060120119207526e+18
14300.0	2.0596299174772733e+18
14301.0	2.0591396620599293e+18
14302.0	2.0586496884998144e+18
14303.0	2.0581598441242621e+18
14304.0	2.0576699074740221e+18
14305.0	2.0571803768324096e+18
14306.0	2.05668925571072e+18
14307.0	2.056201221596774e+18
14308.0	2.0557123838541821e+18
14309.0	2.0552231971454973e+18
14310.0	2.0547265479311352e+18
14311.0	2.054244033521254e+18
14312.0	2.0537563869609981e+18
14313.0	2.0532673864794102e+18
14314.0	2.0527798120611835e+18
14315.0	2.0522915732652027e+18
14316.0	2.0518025560063997e+18
14317.0	2.0513144463949824e+18
14318.0	2.050827517899571e+18
14319.0	2.0503397639651328e+18
14320.0	2.0498521291489277e+18
14321.0	2.0493646386167808e+18
14322.0	2.0488764870623227e+18
14323.0	2.048389791770214e+18
14324.0	2.0479029236727805e+18
14325.0	2.0474159431679997e+18
14326.0	2.0469291136581627e+18
14327.0	2.0464423462240253e+18
14328.0	2.045955711329894e+18
14329.0	2.0454693348048893e+18
14330.0	2.0449830119669755e+18
14331.0	2.0444968317353976e+18
14332.0	2.0440107639111675e+18
14333.0	2.0435248303046653e+18
14334.0	2.0430390242050045e+18
14335.0	2.0425530016792579e+18
14336.0	2.0420674623373312e+18
14337.0	2.041582384368844e+18
14338.0	2.0410970815856637e+18
14339.0	2.0406040864489462e+18
14340.0	2.040104236141772e+18
14341.0	2.0396144907517947e+18
14342.0	2.0391297114177533e+18
14343.0	2.0386447039135736e+18
14344.0	2.038160307100057e+18
14345.0	2.037676076380979e+18
14346.0	2.0371917433208827e+18
14347.0	2.0367073397964797e+18
14348.0	2.0362235687731192e+18
14349.0	2.0357396685651963e+18
14350.0	2.0352556123291643e+18
14351.0	2.0347719520354296e+18
14352.0	2.0342886994280443e+18
14353.0	2.0338053075697661e+18
14354.0	2.0333219878535165e+18
14355.0	2.0328387989995517e+18
14356.0	2.0323558165053437e+18
14357.0	2.0318729799729147e+18
14358.0	2.031390213904793e+18
14359.0	2.0309075703103483e+18
14360.0	2.0304250324123643e+18
14361.0	2.0299426773860347e+18
14362.0	2.0294604330893307e+18
14363.0	2.028978292811366e+18
14364.0	2.0284953069617147e+18
14365.0	2.0280142941126653e+18
14366.0	2.0275325179002875e+18
14367.0	2.0270510369669115e+18
14368.0	2.0265695241568253e+18
14369.0	2.026088153953075e+18
14370.0	2.025606907900723e+18
14371.0	2.0251257792888827e+18
14372.0	2.024644783217049e+18
14373.0	2.0241638928416765e+18
14374.0	2.023683146750361e+18
14375.0	2.0232025113886717e+18
14376.0	2.0227219985006587e+18
14377.0	2.0222416030531581e+18
14378.0	2.0217613099466747e+18
14379.0	2.0212812114558973e+18
14380.0	2.0208011968511997e+18
14381.0	2.020321259421696e+18
14382.0	2.0198415048638456e+18
14383.0	2.0193613627523064e+18
14384.0	2.0188823010934776e+18
14385.0	2.0184029709991933e+18
14386.0	2.017923689558835e+18
14387.0	2.017444532269875e+18
14388.0	2.0169654521561088e+18
14389.0	2.016486576724377e+18
14390.0	2.0160077616906237e+18
14391.0	2.0155291161067517e+18
14392.0	2.0150503832813565e+18
14393.0	2.0145721353175035e+18
14394.0	2.0140938672209915e+18
14395.0	2.0136153357221883e+18
14396.0	2.0131375575203835e+18
14397.0	2.0126596467785728e+18
14398.0	2.0121816387289088e+18
14399.0	2.011704090374963e+18
14400.0	2.0112260621926397e+18
14401.0	2.0107489181695997e+18
14402.0	2.0102716617392125e+18
14403.0	2.009673055705497e+18
14404.0	2.0089963315986427e+18
14405.0	2.008800922330726e+18
14406.0	2.0083438539243515e+18
14407.0	2.007697506644787e+18
14408.0	2.007390064161587e+18
14409.0	2.006913495597056e+18
14410.0	2.0064372374110203e+18
14411.0	2.0059610111016952e+18
14412.0	2.005484768015155e+18
14413.0	2.0050087396769787e+18
14414.0	2.0045327063056381e+18
14415.0	2.0040568625168381e+18
14416.0	2.00358114623488e+18
14417.0	2.0031052437258237e+18
14418.0	2.002629158345113e+18
14419.0	2.002154566136627e+18
14420.0	2.0016792306974717e+18
14421.0	2.0012041402056701e+18
14422.0	2.0007292141305853e+18
14423.0	2.000254116927897e+18
14424.0	1.9990758463373307e+18
14425.0	1.9993045952888832e+18
14426.0	1.998830152397619e+18
14427.0	1.9983556793073661e+18
14428.0	1.9978811978285053e+18
14429.0	1.9974070518939643e+18
14430.0	1.9969328942153725e+18
14431.0	1.9964573641605115e+18
14432.0	1.9959843389439992e+18
14433.0	1.9953846289694715e+18
14434.0	1.9950371996696573e+18
14435.0	1.9945634479996925e+18
14436.0	1.994090327153049e+18
14437.0	1.993616954648166e+18
14438.0	1.993139797203353e+18
14439.0	1.9926696291467261e+18
14440.0	1.9921974998335483e+18
14441.0	1.991724521593241e+18
14442.0	1.9912516087840765e+18
14443.0	1.990778313454387e+18
14444.0	1.9903063871455227e+18
14445.0	1.9898339776528381e+18
14446.0	1.9892266910875645e+18
14447.0	1.9888890999472125e+18
14448.0	1.988417171960627e+18
14449.0	1.9879451131117565e+18
14450.0	1.987473154926182e+18
14451.0	1.98700130411479e+18
14452.0	1.986529466725171e+18
14453.0	1.9860552805253115e+18
14454.0	1.9855863825039355e+18
14455.0	1.9851148890472443e+18
14456.0	1.9846430650793981e+18
14457.0	1.984171558200934e+18
14458.0	1.983701031111884e+18
14459.0	1.9832298597777405e+18
14460.0	1.982759319266918e+18
14461.0	1.982288079146188e+18
14462.0	1.98181647328215e+18
14463.0	1.9813470702665725e+18
14464.0	1.9808767294046205e+18
14465.0	1.9804060261548032e+18
14466.0	1.9799360309035005e+18
14467.0	1.979455001277235e+18
14468.0	1.9789856972472315e+18
14469.0	1.978515626498457e+18
14470.0	1.9780455624605693e+18
14471.0	1.9775759396634621e+18
14472.0	1.9771065148375037e+18
14473.0	1.9766370111586301e+18
14474.0	1.976167525934694e+18
14475.0	1.975698020578099e+18
14476.0	1.9752206282522621e+18
14477.0	1.9747595836456955e+18
14478.0	1.974290440676966e+18
14479.0	1.973821462124953e+18
14480.0	1.973352438274457e+18
14481.0	1.97286847095767e+18
14482.0	1.9723960513986555e+18
14483.0	1.9719272506851325e+18
14484.0	1.9714587754496e+18
14485.0	1.9709896224145405e+18
14486.0	1.9705169545527296e+18
14487.0	1.9700536852873208e+18
14488.0	1.9695854768095232e+18
14489.0	1.9691172163223547e+18
14490.0	1.968649180649881e+18
14491.0	1.9681813815361533e+18
14492.0	1.9677135606120443e+18
14493.0	1.9672457816309755e+18
14494.0	1.9667781251235835e+18
14495.0	1.9663105743126528e+18
14496.0	1.9658407837433853e+18
14497.0	1.965371412604518e+18
14498.0	1.964903086686208e+18
14499.0	1.964435911684915e+18
14500.0	1.9639687853375483e+18
14501.0	1.9634978522398715e+18
14502.0	1.9630277680693245e+18
14503.0	1.962567550579507e+18
14504.0	1.9621010416336893e+18
14505.0	1.961630700771737e+18
14506.0	1.9611591385284603e+18
14507.0	1.9606971241988093e+18
14508.0	1.9602347609030653e+18
14509.0	1.9597683677200381e+18
14510.0	1.959302053389926e+18
14511.0	1.958835827979059e+18
14512.0	1.9583694096302077e+18
14513.0	1.9579036237823997e+18
14514.0	1.9574365611884541e+18
14515.0	1.9569717182201856e+18
14516.0	1.9564716095438843e+18
14517.0	1.95604033610711e+18
14518.0	1.9555746593112061e+18
14519.0	1.95510908485632e+18
14520.0	1.9546435540221947e+18
14521.0	1.954178112107315e+18
14522.0	1.9537127272349693e+18
14523.0	1.9532386551201787e+18
14524.0	1.952772829007052e+18
14525.0	1.952317002114662e+18
14526.0	1.9518520366727163e+18
14527.0	1.9513864504737787e+18
14528.0	1.9509200052813821e+18
14529.0	1.95045708833751e+18
14530.0	1.9499922034262016e+18
14531.0	1.9495277463339005e+18
14532.0	1.9490498590801915e+18
14533.0	1.9485985385480187e+18
14534.0	1.9481340596453373e+18
14535.0	1.9476696059084797e+18
14536.0	1.9472052259913725e+18
14537.0	1.9467407017902075e+18
14538.0	1.946276654061977e+18
14539.0	1.9458125073481725e+18
14540.0	1.945348338823987e+18
14541.0	1.9448841048686587e+18
14542.0	1.944420117538406e+18
14543.0	1.943950503129907e+18
14544.0	1.943492077446758e+18
14545.0	1.9430281287041021e+18
14546.0	1.9418040881905656e+18
14547.0	1.9414304847560694e+18
14548.0	1.9416364989022205e+18
14549.0	1.941171004977971e+18
14550.0	1.9407092473397243e+18
14551.0	1.9402456207196155e+18
14552.0	1.939781910213427e+18
14553.0	1.9393182517166077e+18
14554.0	1.938854927086387e+18
14555.0	1.938391421262233e+18
14556.0	1.9379277711540221e+18
14557.0	1.9374646226845693e+18
14558.0	1.9370012561113088e+18
14559.0	1.9365121700659197e+18
14560.0	1.9360741756764155e+18
14561.0	1.9356114063720445e+18
14562.0	1.9351484223193083e+18
14563.0	1.934685319148339e+18
14564.0	1.9342220565938168e+18
14565.0	1.9337592050810877e+18
14566.0	1.9332963300802555e+18
14567.0	1.9328333091176445e+18
14568.0	1.93236999119831e+18
14569.0	1.9319073829552125e+18
14570.0	1.9314371863773181e+18
14571.0	1.9309738047045627e+18
14572.0	1.9304999976697853e+18
14573.0	1.9300373558722555e+18
14574.0	1.9295745295253504e+18
14575.0	1.929112085698969e+18
14576.0	1.9286492643852283e+18
14577.0	1.9281864648818683e+18
14578.0	1.9277236234354683e+18
14579.0	1.9272608155435005e+18
14580.0	1.9267979875188733e+18
14581.0	1.926334818916761e+18
14582.0	1.925872281137971e+18
14583.0	1.9254094329806843e+18
14584.0	1.9249463818190845e+18
14585.0	1.9244837098225661e+18
14586.0	1.9240207828123645e+18
14587.0	1.923557775271526e+18
14588.0	1.9230968934039547e+18
14589.0	1.9226498795831293e+18
14590.0	1.922205484685721e+18
14591.0	1.921760963959193e+18
14592.0	1.9213163610243072e+18
14593.0	1.9208698152878077e+18
14594.0	1.9204271803203584e+18
14595.0	1.9199824213573632e+18
14596.0	1.9195364343021565e+18
14597.0	1.91909220885463e+18
14598.0	1.918648203188633e+18
14599.0	1.918203630452736e+18
14600.0	1.917758782570496e+18
14601.0	1.917313840735846e+18
14602.0	1.9168685633568765e+18
14603.0	1.9164237221855232e+18
14604.0	1.9159778861252605e+18
14605.0	1.915533263057715e+18
14606.0	1.9150872575475707e+18
14607.0	1.914642980090675e+18
14608.0	1.9141976205033472e+18
14609.0	1.913751413666611e+18
14610.0	1.9133064751874043e+18
14611.0	1.9128612028415997e+18
14612.0	1.9124157056811003e+18
14613.0	1.9119700441038843e+18
14614.0	1.9115242264985597e+18
14615.0	1.9110784541917181e+18
14616.0	1.9106325258567677e+18
14617.0	1.910186770327142e+18
14618.0	1.9097405903339517e+18
14619.0	1.9092940999622653e+18
14620.0	1.9088459134140416e+18
14621.0	1.9084000605765632e+18
14622.0	1.9079452151513083e+18
14623.0	1.9074985301639168e+18
14624.0	1.9070506976149504e+18
14625.0	1.9066047994789888e+18
14626.0	1.9061575105118205e+18
14627.0	1.9057081478807547e+18
14628.0	1.9052568659361784e+18
14629.0	1.9048093571874813e+18
14630.0	1.9043617041547256e+18
14631.0	1.903913883349811e+18
14632.0	1.9034106725662715e+18
14633.0	1.9030126767374333e+18
14634.0	1.902569729713766e+18
14635.0	1.902119895642931e+18
14636.0	1.901666702773452e+18
14637.0	1.9012246197764096e+18
14638.0	1.9007761262051325e+18
14639.0	1.9003273558097915e+18
14640.0	1.8998784696516605e+18
14641.0	1.8992164390305787e+18
14642.0	1.898980054768025e+18
14643.0	1.8985305394642944e+18
14644.0	1.898080537621299e+18
14645.0	1.8976299670306813e+18
14646.0	1.8971799098228733e+18
14647.0	1.8967290556973053e+18
14648.0	1.896278235126169e+18
