# Flux units: erg / (cm m2 s)
# Wavelength units: Angstrom
wave	flux
14000.0	1.8527497247260664e+18
14001.0	1.8524547846242304e+18
14002.0	1.8522753254555643e+18
14003.0	1.8519417457475581e+18
14004.0	1.8516061578067963e+18
14005.0	1.85126980985815e+18
14006.0	1.8509242109526013e+18
14007.0	1.8505852239478784e+18
14008.0	1.8501416008024061e+18
14009.0	1.84991769207767e+18
14010.0	1.84956868404183e+18
14011.0	1.8485004384337923e+18
14012.0	1.8489086582980605e+18
14013.0	1.8485781035220984e+18
14014.0	1.848235876836966e+18
14015.0	1.847904033570816e+18
14016.0	1.8475706551894013e+18
14017.0	1.8472349162536955e+18
14018.0	1.846891271893811e+18
14019.0	1.8465632253116416e+18
14020.0	1.8462265636290555e+18
14021.0	1.8458898113495037e+18
14022.0	1.8455473464279037e+18
14023.0	1.845199276238438e+18
14024.0	1.8448622974664696e+18
14025.0	1.844546822052249e+18
14026.0	1.8442114908028925e+18
14027.0	1.8438779161280512e+18
14028.0	1.843533922802073e+18
14029.0	1.843193699316531e+18
14030.0	1.8405485547880466e+18
14031.0	1.8424138339188728e+18
14032.0	1.842194832529817e+18
14033.0	1.8418064315908093e+18
14034.0	1.8415274566877181e+18
14035.0	1.8411988061257728e+18
14036.0	1.8408582521290747e+18
14037.0	1.8405315443687421e+18
14038.0	1.840197456311091e+18
14039.0	1.8398584810504187e+18
14040.0	1.8395243644715005e+18
14041.0	1.8391932040380416e+18
14042.0	1.8388489355657213e+18
14043.0	1.838480080083353e+18
14044.0	1.8381743488761853e+18
14045.0	1.8378506207494141e+18
14046.0	1.8375200693288955e+18
14047.0	1.837175812600627e+18
14048.0	1.8368552620785661e+18
14049.0	1.8365246905253883e+18
14050.0	1.8361914748829693e+18
14051.0	1.8358482952519675e+18
14052.0	1.8355200473432061e+18
14053.0	1.8351916434063355e+18
14054.0	1.8348586827776e+18
14055.0	1.834525629874176e+18
14056.0	1.8341926004588541e+18
14057.0	1.8338597170053117e+18
14058.0	1.8335268318740475e+18
14059.0	1.8331870932500477e+18
14060.0	1.8328612931371005e+18
14061.0	1.8325204824489981e+18
14062.0	1.8321955094527997e+18
14063.0	1.8318425990365181e+18
14064.0	1.8310792826847232e+18
14065.0	1.83118752424919e+18
14066.0	1.8308662841835515e+18
14067.0	1.8305213328785405e+18
14068.0	1.830202215130726e+18
14069.0	1.829865597068902e+18
14070.0	1.8295364129914875e+18
14071.0	1.829202900392345e+18
14072.0	1.8288745467871232e+18
14073.0	1.8285427454640128e+18
14074.0	1.8282108048900093e+18
14075.0	1.8278573324369917e+18
14076.0	1.827532527212953e+18
14077.0	1.8266981761286147e+18
14078.0	1.8268422253051904e+18
14079.0	1.8265402203176955e+18
14080.0	1.8262220907479037e+18
14081.0	1.8258913463894013e+18
14082.0	1.8255588320346112e+18
14083.0	1.8252268511952893e+18
14084.0	1.8248925483892733e+18
14085.0	1.824075838547558e+18
14086.0	1.8241850146029565e+18
14087.0	1.8238990251458555e+18
14088.0	1.8235562364239872e+18
14089.0	1.8232349258940413e+18
14090.0	1.8229075655000061e+18
14091.0	1.8225837618757627e+18
14092.0	1.8222539771740155e+18
14093.0	1.8219236136583165e+18
14094.0	1.821592847489433e+18
14095.0	1.8212599925571581e+18
14096.0	1.8208430384742397e+18
14097.0	1.8205606963838976e+18
14098.0	1.8202295208509435e+18
14099.0	1.819941174194995e+18
14100.0	1.8195990498508797e+18
14101.0	1.8192844854394877e+18
14102.0	1.818952769680179e+18
14103.0	1.8186072311726075e+18
14104.0	1.818292834533376e+18
14105.0	1.8179667693404155e+18
14106.0	1.8176374493675517e+18
14107.0	1.8173018882703355e+18
14108.0	1.8169629885071355e+18
14109.0	1.81664352347095e+18
14110.0	1.81631695496151e+18
14111.0	1.8159809224245245e+18
14112.0	1.8156521711992827e+18
14113.0	1.8153265707352061e+18
14114.0	1.814985872454451e+18
14115.0	1.814664001565491e+18
14116.0	1.8142545133436925e+18
14117.0	1.8099133701160965e+18
14118.0	1.8136539426979837e+18
14119.0	1.8132859646640123e+18
14120.0	1.812976421673369e+18
14121.0	1.812674913291468e+18
14122.0	1.8123207110295547e+18
14123.0	1.8120091933605885e+18
14124.0	1.8116741741674493e+18
14125.0	1.8108463880077307e+18
14126.0	1.811053329933926e+18
14127.0	1.8107361801535485e+18
14128.0	1.8104082812108797e+18
14129.0	1.8100690677137405e+18
14130.0	1.8097304313528317e+18
14131.0	1.80942734926807e+18
14132.0	1.8090875217248253e+18
14133.0	1.8081391895904243e+18
14134.0	1.8084327304724475e+18
14135.0	1.8080937048801275e+18
14136.0	1.807756544914227e+18
14137.0	1.807449739965235e+18
14138.0	1.807097651632537e+18
14139.0	1.8068077681836027e+18
14140.0	1.8064761044336637e+18
14141.0	1.8060983083728893e+18
14142.0	1.8055697790926845e+18
14143.0	1.8054931307036672e+18
14144.0	1.8051763198230525e+18
14145.0	1.8048495667642365e+18
14146.0	1.8045171815940093e+18
14147.0	1.8041951160893437e+18
14148.0	1.8038662574899192e+18
14149.0	1.803542853163417e+18
14150.0	1.8032221180919803e+18
14151.0	1.8028862130618363e+18
14152.0	1.8025681724112893e+18
14153.0	1.802244464417177e+18
14154.0	1.8018890156081147e+18
14155.0	1.8014941587963904e+18
14156.0	1.8012554039132155e+18
14157.0	1.8009414434815997e+18
14158.0	1.8006115279175677e+18
14159.0	1.8002905143443453e+18
14160.0	1.7999548509061115e+18
14161.0	1.7995704312004603e+18
14162.0	1.7991897477808125e+18
14163.0	1.7989745128767485e+18
14164.0	1.7985443467362304e+18
14165.0	1.7982960791715837e+18
14166.0	1.7980111315795965e+18
14167.0	1.797672211683737e+18
14168.0	1.7973583049392128e+18
14169.0	1.7970403548856315e+18
14170.0	1.7967108621074427e+18
14171.0	1.7963879057326075e+18
14172.0	1.7960669055811581e+18
14173.0	1.7957112873222144e+18
14174.0	1.7954103812423677e+18
14175.0	1.7950931911966717e+18
14176.0	1.7947700871823355e+18
14177.0	1.7944460184780797e+18
14178.0	1.794121318950502e+18
14179.0	1.7937917154426877e+18
14180.0	1.79347393651671e+18
14181.0	1.7931499751866365e+18
14182.0	1.7928250374225915e+18
14183.0	1.792501693494067e+18
14184.0	1.7921706656006141e+18
14185.0	1.7918442162094075e+18
14186.0	1.7908066192195581e+18
14187.0	1.791153375753011e+18
14188.0	1.7908767781814272e+18
14189.0	1.7905538469724155e+18
14190.0	1.7902315348426747e+18
14191.0	1.7899053505314813e+18
14192.0	1.7895779012182008e+18
14193.0	1.7891477719875581e+18
14194.0	1.7889383000571904e+18
14195.0	1.788622910206771e+18
14196.0	1.7883003464187904e+18
14197.0	1.7879776635125755e+18
14198.0	1.7876486102974461e+18
14199.0	1.7873253754208253e+18
14200.0	1.786549900620595e+18
14201.0	1.786650647802675e+18
14202.0	1.7863604724301821e+18
14203.0	1.786035598419558e+18
14204.0	1.7857172524236795e+18
14205.0	1.785394411811635e+18
14206.0	1.7849290806263805e+18
14207.0	1.78475176558592e+18
14208.0	1.7844316630155256e+18
14209.0	1.783952319499468e+18
14210.0	1.7836767453380603e+18
14211.0	1.783458143246745e+18
14212.0	1.7831447331078141e+18
14213.0	1.7828225568735227e+18
14214.0	1.7825016775180288e+18
14215.0	1.782163401867264e+18
14216.0	1.7818603600478205e+18
14217.0	1.7815392357449723e+18
14218.0	1.7812038927515643e+18
14219.0	1.7808965475762176e+18
14220.0	1.7805704656060416e+18
14221.0	1.7802510391574528e+18
14222.0	1.7799063462215677e+18
14223.0	1.779610372643225e+18
14224.0	1.7792844701892603e+18
14225.0	1.777530348503041e+18
14226.0	1.778616433324851e+18
14227.0	1.7782985168257021e+18
14228.0	1.7741402184089613e+18
14229.0	1.7769680148103135e+18
14230.0	1.777312170875289e+18
14231.0	1.7769790055645181e+18
14232.0	1.7766768529375227e+18
14233.0	1.7763540140031997e+18
14234.0	1.7760368407347197e+18
14235.0	1.77571365954519e+18
14236.0	1.7753963805802488e+18
14237.0	1.775072707818291e+18
14238.0	1.774752477741056e+18
14239.0	1.7744166414974968e+18
14240.0	1.7721512593195008e+18
14241.0	1.7737663515721723e+18
14242.0	1.7734650210287613e+18
14243.0	1.7729748092321795e+18
14244.0	1.7728360532672507e+18
14245.0	1.7724916187004925e+18
14246.0	1.7721360138633213e+18
14247.0	1.7718238351720443e+18
14248.0	1.7714896028303355e+18
14249.0	1.7711849101328384e+18
14250.0	1.7708683307778043e+18
14251.0	1.7705515953946621e+18
14252.0	1.7702317075726333e+18
14253.0	1.7699104641515515e+18
14254.0	1.7695866638827515e+18
14255.0	1.7692177345806333e+18
14256.0	1.7674574439120904e+18
14257.0	1.768460186235699e+18
14258.0	1.768307211580211e+18
14259.0	1.7679706203619325e+18
14260.0	1.767623023289958e+18
14261.0	1.767328913660313e+18
14262.0	1.7670426742226936e+18
14263.0	1.7645619849986058e+18
14264.0	1.765842200664473e+18
14265.0	1.7660680589017088e+18
14266.0	1.7657381836029952e+18
14267.0	1.7654238909825021e+18
14268.0	1.7651047010926587e+18
14269.0	1.7647773608312832e+18
14270.0	1.7644690224447485e+18
14271.0	1.764148146444697e+18
14272.0	1.7638231851925504e+18
14273.0	1.7634632719663096e+18
14274.0	1.7597771498389517e+18
14275.0	1.7624602192642043e+18
14276.0	1.762528767613337e+18
14277.0	1.7622274421030912e+18
14278.0	1.7619246267760635e+18
14279.0	1.7616073176121341e+18
14280.0	1.7612836851154941e+18
14281.0	1.7609750111846397e+18
14282.0	1.7606581650718717e+18
14283.0	1.76034081228718e+18
14284.0	1.7600232866971643e+18
14285.0	1.7597049474121728e+18
14286.0	1.759385155220275e+18
14287.0	1.759070017028096e+18
14288.0	1.758721404934553e+18
14289.0	1.7571245428047844e+18
14290.0	1.758062946182758e+18
14291.0	1.757751039282381e+18
14292.0	1.757432919778918e+18
14293.0	1.7571148841615357e+18
14294.0	1.7566385655775232e+18
14295.0	1.75646134281175e+18
14296.0	1.7551524230070277e+18
14297.0	1.7558291840237563e+18
14298.0	1.7550157541277693e+18
14299.0	1.7551880209039357e+18
14300.0	1.7548904149024765e+18
14301.0	1.754578919043891e+18
14302.0	1.754263775818547e+18
14303.0	1.7539069009461243e+18
14304.0	1.7536100247535613e+18
14305.0	1.7533103635431421e+18
14306.0	1.7529672493432827e+18
14307.0	1.7526510961295357e+18
14308.0	1.752344427075993e+18
14309.0	1.7520060960604152e+18
14310.0	1.7515884692111352e+18
14311.0	1.7511119207792635e+18
14312.0	1.7509675645796347e+18
14313.0	1.7505883441332221e+18
14314.0	1.750387968809369e+18
14315.0	1.7500939363549181e+18
14316.0	1.7497236011220987e+18
14317.0	1.749427936244531e+18
14318.0	1.7491584538902523e+18
14319.0	1.7488477163618304e+18
14320.0	1.748533224092467e+18
14321.0	1.7482156750143488e+18
14322.0	1.7478581407973376e+18
14323.0	1.7475662977695741e+18
14324.0	1.7472755251281915e+18
14325.0	1.7469496193187837e+18
14326.0	1.7466464130826237e+18
14327.0	1.7463236613898237e+18
14328.0	1.746008957727539e+18
14329.0	1.7457022500863997e+18
14330.0	1.745387615210701e+18
14331.0	1.745072617947136e+18
14332.0	1.7447582615732221e+18
14333.0	1.7444436703182848e+18
14334.0	1.744128894513971e+18
14335.0	1.7437975293984765e+18
14336.0	1.7433512890073085e+18
14337.0	1.7431811244163072e+18
14338.0	1.7428676303912957e+18
14339.0	1.742543195943731e+18
14340.0	1.7422406087868413e+18
14341.0	1.7418971925970944e+18
14342.0	1.741562045897113e+18
14343.0	1.7412487431323643e+18
14344.0	1.7409269846507515e+18
14345.0	1.7406187737710587e+18
14346.0	1.7402976813449213e+18
14347.0	1.7399417711624184e+18
14348.0	1.7396715103453181e+18
14349.0	1.739363720573747e+18
14350.0	1.738928544756531e+18
14351.0	1.738604726032793e+18
14352.0	1.73841262355415e+18
14353.0	1.738109462616473e+18
14354.0	1.737782150876364e+18
14355.0	1.7374397648076797e+18
14356.0	1.7371343087468547e+18
14357.0	1.7368569092243453e+18
14358.0	1.7365458797723648e+18
14359.0	1.7362146807513088e+18
14360.0	1.735908838814515e+18
14361.0	1.7356008275836925e+18
14362.0	1.7352925797941248e+18
14363.0	1.7349767503806461e+18
14364.0	1.7342925973225472e+18
14365.0	1.7342574222114813e+18
14366.0	1.7339684464099325e+18
14367.0	1.7337286328844288e+18
14368.0	1.7334159877865472e+18
14369.0	1.7331041513504765e+18
14370.0	1.7327919122612221e+18
14371.0	1.7324799030198264e+18
14372.0	1.732160595689472e+18
14373.0	1.7318227914784765e+18
14374.0	1.7314688408748027e+18
14375.0	1.7311537916018688e+18
14376.0	1.730844220089958e+18
14377.0	1.730530893837107e+18
14378.0	1.7302159301279741e+18
14379.0	1.7299067142930427e+18
14380.0	1.729593416561459e+18
14381.0	1.7292674688090107e+18
14382.0	1.7289677924990976e+18
14383.0	1.7286544813457405e+18
14384.0	1.728323307490508e+18
14385.0	1.728033281435238e+18
14386.0	1.727699575898112e+18
14387.0	1.7274087327924221e+18
14388.0	1.7270923732189184e+18
14389.0	1.726784578414182e+18
14390.0	1.7264705961721853e+18
14391.0	1.7261614860337144e+18
14392.0	1.7258486211543037e+18
14393.0	1.7255381352841213e+18
14394.0	1.72517959443415e+18
14395.0	1.7249003695505403e+18
14396.0	1.7246029816528896e+18
14397.0	1.724291740807987e+18
14398.0	1.7239797416329216e+18
14399.0	1.723667972305715e+18
14400.0	1.7233320404320253e+18
14401.0	1.723035259869593e+18
14402.0	1.7227222892937213e+18
14403.0	1.7218025136586742e+18
14404.0	1.7179976373632996e+18
14405.0	1.7197141764079562e+18
14406.0	1.7214707106578427e+18
14407.0	1.7203159550132224e+18
14408.0	1.720837546914611e+18
14409.0	1.720530119530905e+18
14410.0	1.7201861765365763e+18
14411.0	1.719885272134451e+18
14412.0	1.7195725347618813e+18
14413.0	1.719266682758758e+18
14414.0	1.7189527927914493e+18
14415.0	1.718643170947891e+18
14416.0	1.718329849728204e+18
14417.0	1.7180030329159675e+18
14418.0	1.7176714396303357e+18
14419.0	1.7173969794760704e+18
14420.0	1.7170824721072123e+18
14421.0	1.7167761738301437e+18
14422.0	1.7164547693477885e+18
14423.0	1.7160902088327168e+18
14424.0	1.7122885705400297e+18
14425.0	1.715490208612352e+18
14426.0	1.7152210634801147e+18
14427.0	1.7149149380083707e+18
14428.0	1.714578907149107e+18
14429.0	1.714292993189478e+18
14430.0	1.7139781720866813e+18
14431.0	1.713021906006835e+18
14432.0	1.7133559085006843e+18
14433.0	1.7123918712143862e+18
14434.0	1.7127197416357885e+18
14435.0	1.712358143977062e+18
14436.0	1.7121244692348925e+18
14437.0	1.711818971231027e+18
14438.0	1.7114290033000443e+18
14439.0	1.7111845760401403e+18
14440.0	1.710890276827955e+18
14441.0	1.7105703369965563e+18
14442.0	1.7102519725457405e+18
14443.0	1.7098917086756861e+18
14444.0	1.7096444963979261e+18
14445.0	1.7093370388152315e+18
14446.0	1.7074804452491272e+18
14447.0	1.7086926477590523e+18
14448.0	1.7084135285719035e+18
14449.0	1.7081058394636285e+18
14450.0	1.7077894345916419e+18
14451.0	1.707450293236531e+18
14452.0	1.7071291689336827e+18
14453.0	1.7068114369839104e+18
14454.0	1.706508435429785e+18
14455.0	1.7061889032847357e+18
14456.0	1.7058804810121213e+18
14457.0	1.7055714698592256e+18
14458.0	1.7052614134857725e+18
14459.0	1.7049421900414976e+18
14460.0	1.7046132676886525e+18
14461.0	1.7042092656164861e+18
14462.0	1.7037333563965435e+18
14463.0	1.7036471382835195e+18
14464.0	1.7033890862465021e+18
14465.0	1.7030643615531005e+18
14466.0	1.702790235265433e+18
14467.0	1.7024587191549944e+18
14468.0	1.7021753637208061e+18
14469.0	1.7018026125688827e+18
14470.0	1.701521248590233e+18
14471.0	1.70124727329751e+18
14472.0	1.7009460216070141e+18
14473.0	1.7006420436189184e+18
14474.0	1.7003387232976893e+18
14475.0	1.7000283196358653e+18
14476.0	1.6996807980613627e+18
14477.0	1.6994113979154424e+18
14478.0	1.6991037624942587e+18
14479.0	1.6987933034676221e+18
14480.0	1.6984672047202304e+18
14481.0	1.6981836714475515e+18
14482.0	1.6978704911564797e+18
14483.0	1.6975543496867837e+18
14484.0	1.6972434745851904e+18
14485.0	1.6968978438029312e+18
14486.0	1.696259814667059e+18
14487.0	1.696331928174592e+18
14488.0	1.69600288334807e+18
14489.0	1.695659173557043e+18
14490.0	1.6953960279572477e+18
14491.0	1.6951034265993216e+18
14492.0	1.6947975443972093e+18
14493.0	1.6944734471716861e+18
14494.0	1.6941533865443325e+18
14495.0	1.693870348199526e+18
14496.0	1.6933951939543037e+18
14497.0	1.6932569178177533e+18
14498.0	1.6929522083430397e+18
14499.0	1.692644878267187e+18
14500.0	1.6923278962589696e+18
14501.0	1.6919550176002043e+18
14502.0	1.69137937621975e+18
14503.0	1.6913403591262205e+18
14504.0	1.6910502340853757e+18
14505.0	1.6907336312422397e+18
14506.0	1.690405534328422e+18
14507.0	1.6898217945858048e+18
14508.0	1.6898277588860925e+18
14509.0	1.689522126664499e+18
14510.0	1.6892118890971133e+18
14511.0	1.6889081946439675e+18
14512.0	1.6885819465793533e+18
14513.0	1.68829204299776e+18
14514.0	1.6879442563432448e+18
14515.0	1.6876662377414653e+18
14516.0	1.6841145581568018e+18
14517.0	1.687029888004915e+18
14518.0	1.6867543692083197e+18
14519.0	1.6864462036271104e+18
14520.0	1.6861424303210493e+18
14521.0	1.6858362763280381e+18
14522.0	1.6855255505436672e+18
14523.0	1.6851355171815421e+18
14524.0	1.684867766235955e+18
14525.0	1.684600832340787e+18
14526.0	1.6842982955155453e+18
14527.0	1.683965977454182e+18
14528.0	1.6835081540730877e+18
14529.0	1.6833662423138304e+18
14530.0	1.683050634359603e+18
14531.0	1.682764171785011e+18
14532.0	1.6824062953127933e+18
14533.0	1.682152313428377e+18
14534.0	1.681847991507353e+18
14535.0	1.681527212815155e+18
14536.0	1.681229194094182e+18
14537.0	1.6809093918359547e+18
14538.0	1.680620857275187e+18
14539.0	1.6803143744487421e+18
14540.0	1.680007519168102e+18
14541.0	1.6796716426592253e+18
14542.0	1.6793903541780475e+18
14543.0	1.6790457501614077e+18
14544.0	1.678775741002547e+18
14545.0	1.678449456028057e+18
14546.0	1.6735246351335393e+18
14547.0	1.6735027509329884e+18
14548.0	1.6775197365370875e+18
14549.0	1.67708623676375e+18
14550.0	1.676925608342323e+18
14551.0	1.6766336193527803e+18
14552.0	1.6763264520159232e+18
14553.0	1.6760100102340605e+18
14554.0	1.675715229515776e+18
14555.0	1.6754083809460221e+18
14556.0	1.67510061130711e+18
14557.0	1.67475227435991e+18
14558.0	1.6744289304313853e+18
14559.0	1.6717232822288338e+18
14560.0	1.6738087086325757e+18
14561.0	1.6735111143751675e+18
14562.0	1.673173013207449e+18
14563.0	1.6728960431816704e+18
14564.0	1.6725504090439677e+18
14565.0	1.6722962342215675e+18
14566.0	1.67199095432151e+18
14567.0	1.6716802721579003e+18
14568.0	1.6713545005662203e+18
14569.0	1.67106347794432e+18
14570.0	1.670084881389977e+18
14571.0	1.6704491399151616e+18
14572.0	1.6700939108876285e+18
14573.0	1.6697720534204413e+18
14574.0	1.6694405490540544e+18
14575.0	1.669203926555033e+18
14576.0	1.6688972021366781e+18
14577.0	1.668610521458278e+18
14578.0	1.6683074108522493e+18
14579.0	1.6680070517096448e+18
14580.0	1.667699453198336e+18
14581.0	1.6673851739996152e+18
14582.0	1.6670763004198907e+18
14583.0	1.6667813955502072e+18
14584.0	1.6664381219667965e+18
14585.0	1.666166782374707e+18
14586.0	1.6658585933053947e+18
14587.0	1.6655554441117693e+18
14588.0	1.6652498706104315e+18
14589.0	1.6649462298443776e+18
14590.0	1.6646424749932544e+18
14591.0	1.6643328581828603e+18
14592.0	1.6640198624411648e+18
14593.0	1.6635779304390653e+18
14594.0	1.6634212580851707e+18
14595.0	1.663109386416947e+18
14596.0	1.6624526976614395e+18
14597.0	1.6620464205987832e+18
14598.0	1.6621348197498877e+18
14599.0	1.6618739273302016e+18
14600.0	1.6615633944838141e+18
14601.0	1.6612603677638653e+18
14602.0	1.6609093733056507e+18
14603.0	1.6606166243082237e+18
14604.0	1.660241093171609e+18
14605.0	1.6599448696127485e+18
14606.0	1.6595991851433981e+18
14607.0	1.6593950936662013e+18
14608.0	1.65909003019223e+18
14609.0	1.6587718603571197e+18
14610.0	1.6584086051094528e+18
14611.0	1.658148036490035e+18
14612.0	1.657881755228569e+18
14613.0	1.6575842096250875e+18
14614.0	1.657271628280627e+18
14615.0	1.656974124620185e+18
14616.0	1.6566761763635197e+18
14617.0	1.6563576944721915e+18
14618.0	1.656040194048e+18
14619.0	1.6554542866890742e+18
14620.0	1.6545417604890624e+18
14621.0	1.6551488339836925e+18
14622.0	1.6548057986367485e+18
14623.0	1.6545040503406592e+18
14624.0	1.6541258348494848e+18
14625.0	1.6538907625652221e+18
14626.0	1.6535831724425208e+18
14627.0	1.6532775754530816e+18
14628.0	1.6529829054644221e+18
14629.0	1.6526771608354813e+18
14630.0	1.652360781129318e+18
14631.0	1.652062302712627e+18
14632.0	1.651463052433817e+18
14633.0	1.651408892225126e+18
14634.0	1.6511404903235581e+18
14635.0	1.650733896171519e+18
14636.0	1.6501899888951293e+18
14637.0	1.650238501892915e+18
14638.0	1.6499093161377792e+18
14639.0	1.6495935102124032e+18
14640.0	1.6493093511495677e+18
14641.0	1.6479062524428275e+18
14642.0	1.6486950953287677e+18
14643.0	1.6484002911223805e+18
14644.0	1.6480773129371643e+18
14645.0	1.6477573647171581e+18
14646.0	1.6474576514973693e+18
14647.0	1.6471164968763392e+18
14648.0	1.6468487492861947e+18
