# Flux units: erg / (cm m2 s)
# Wavelength units: Angstrom
wave	flux
14000.0	2.239364255973375e+18
14001.0	2.2392257801879552e+18
14002.0	2.2388377953239032e+18
14003.0	2.2383858909446144e+18
14004.0	2.237930231824384e+18
14005.0	2.237473210394214e+18
14006.0	2.2370106357055483e+18
14007.0	2.236550376272691e+18
14008.0	2.236031418394214e+18
14009.0	2.2356354861629432e+18
14010.0	2.2351706348060667e+18
14011.0	2.234301549851443e+18
14012.0	2.2342640041197565e+18
14013.0	2.233812832904806e+18
14014.0	2.2333515953602555e+18
14015.0	2.2328977767006205e+18
14016.0	2.232442349105971e+18
14017.0	2.2319856749641728e+18
14018.0	2.231528791107174e+18
14019.0	2.231072051534233e+18
14020.0	2.2306146291286008e+18
14021.0	2.230156921510297e+18
14022.0	2.2296947310198784e+18
14023.0	2.2292232191082493e+18
14024.0	2.2287702091104253e+18
14025.0	2.2283300135501824e+18
14026.0	2.2278745540788221e+18
14027.0	2.227418997299609e+18
14028.0	2.2269598468407296e+18
14029.0	2.2264863686393848e+18
14030.0	2.2236888299470858e+18
14031.0	2.225386308396646e+18
14032.0	2.2251274695081981e+18
14033.0	2.2246422808100861e+18
14034.0	2.2242261941092347e+18
14035.0	2.2237765412323323e+18
14036.0	2.2233135018147837e+18
14037.0	2.2228697327075318e+18
14038.0	2.2224156791668733e+18
14039.0	2.2219579463827453e+18
14040.0	2.2215034398572544e+18
14041.0	2.2210515472220155e+18
14042.0	2.220591034453196e+18
14043.0	2.2201177122799608e+18
14044.0	2.2196836789911547e+18
14045.0	2.219235314604441e+18
14046.0	2.2187786723393533e+18
14047.0	2.2183158325706747e+18
14048.0	2.2178746605764608e+18
14049.0	2.2174232511250427e+18
14050.0	2.21697030488064e+18
14051.0	2.2165112181751803e+18
14052.0	2.216060147623526e+18
14053.0	2.21561134031831e+18
14054.0	2.215158800082534e+18
14055.0	2.2147061205958656e+18
14056.0	2.2142535199621117e+18
14057.0	2.2138010720010237e+18
14058.0	2.213348692826521e+18
14059.0	2.212891619386982e+18
14060.0	2.2124440099749883e+18
14061.0	2.2119873760985083e+18
14062.0	2.2115392415596536e+18
14063.0	2.2110714307018752e+18
14064.0	2.2102526136418301e+18
14065.0	2.2101769366536184e+18
14066.0	2.2097196870533115e+18
14067.0	2.2092469520826368e+18
14068.0	2.2088171516854267e+18
14069.0	2.2083623263928312e+18
14070.0	2.2079129822167037e+18
14071.0	2.2074620072951803e+18
14072.0	2.2070132218003448e+18
14073.0	2.2065622955327485e+18
14074.0	2.206111055531212e+18
14075.0	2.205644303315763e+18
14076.0	2.205182998662348e+18
14077.0	2.2042197331279872e+18
14078.0	2.204259124353433e+18
14079.0	2.2038474517381115e+18
14080.0	2.2034085966774272e+18
14081.0	2.2029596031451133e+18
14082.0	2.202508389987123e+18
14083.0	2.2020577791311867e+18
14084.0	2.201599361836646e+18
14085.0	2.2007337581543421e+18
14086.0	2.2006543448801277e+18
14087.0	2.200257936175923e+18
14088.0	2.1997973831417853e+18
14089.0	2.19934666826711e+18
14090.0	2.1989103096561661e+18
14091.0	2.198466369421312e+18
14092.0	2.198018390910566e+18
14093.0	2.1975693738901501e+18
14094.0	2.19711924118487e+18
14095.0	2.1966645903753216e+18
14096.0	2.196140902999654e+18
14097.0	2.195719919029452e+18
14098.0	2.1952845804732416e+18
14099.0	2.1948746442997755e+18
14100.0	2.194423414364569e+18
14101.0	2.1939853612548093e+18
14102.0	2.1935381393965053e+18
14103.0	2.19308134278103e+18
14104.0	2.1926438449971195e+18
14105.0	2.1921964704661501e+18
14106.0	2.191749335849369e+18
14107.0	2.1913016593285115e+18
14108.0	2.1908427773050875e+18
14109.0	2.1904035296575485e+18
14110.0	2.1899567993716733e+18
14111.0	2.1895076431003643e+18
14112.0	2.1890583576444928e+18
14113.0	2.1886072719933437e+18
14114.0	2.1881548642975744e+18
14115.0	2.1877025220329467e+18
14116.0	2.1871160593481723e+18
14117.0	2.1826189601538048e+18
14118.0	2.1863144657780733e+18
14119.0	2.1858580684603387e+18
14120.0	2.1854346316611581e+18
14121.0	2.1850204005203965e+18
14122.0	2.184574374877593e+18
14123.0	2.184114955983257e+18
14124.0	2.1836634626457595e+18
14125.0	2.182921413092966e+18
14126.0	2.1828066871345147e+18
14127.0	2.1823785711697917e+18
14128.0	2.1819349866119165e+18
14129.0	2.1814824849637379e+18
14130.0	2.1810298675527677e+18
14131.0	2.18060089762775e+18
14132.0	2.180145478421708e+18
14133.0	2.179316121914572e+18
14134.0	2.1792591213232125e+18
14135.0	2.178796429194035e+18
14136.0	2.1783351161520125e+18
14137.0	2.1779158384246784e+18
14138.0	2.1774557635411965e+18
14139.0	2.177042705127833e+18
14140.0	2.1765898494803965e+18
14141.0	2.176072794138214e+18
14142.0	2.1754806590767101e+18
14143.0	2.1752529570234363e+18
14144.0	2.1748297114845181e+18
14145.0	2.1743913597403128e+18
14146.0	2.1739430255525883e+18
14147.0	2.173504235923046e+18
14148.0	2.173057643210342e+18
14149.0	2.1726154780049405e+18
14150.0	2.1721827768270845e+18
14151.0	2.1717263342108672e+18
14152.0	2.1712989128228861e+18
14153.0	2.170856799626854e+18
14154.0	2.1703935387500544e+18
14155.0	2.1699146599628795e+18
14156.0	2.1695215614033917e+18
14157.0	2.169088741107302e+18
14158.0	2.168644765640294e+18
14159.0	2.1682058082385917e+18
14160.0	2.1677544726069245e+18
14161.0	2.1672798753652733e+18
14162.0	2.1668000973193216e+18
14163.0	2.166422861617561e+18
14164.0	2.1658903141941243e+18
14165.0	2.1655095301111803e+18
14166.0	2.1651107809853432e+18
14167.0	2.1646637822640128e+18
14168.0	2.164232681632563e+18
14169.0	2.163792168982937e+18
14170.0	2.1633532099035136e+18
14171.0	2.1629153950302203e+18
14172.0	2.1624772664229883e+18
14173.0	2.1620137673097216e+18
14174.0	2.1615910385090555e+18
14175.0	2.1611581544595456e+18
14176.0	2.1607181367377915e+18
14177.0	2.1602791323598843e+18
14178.0	2.159839071017369e+18
14179.0	2.1593957733498877e+18
14180.0	2.1589610740056061e+18
14181.0	2.1585216787185661e+18
14182.0	2.158081525101363e+18
14183.0	2.1576417707819003e+18
14184.0	2.1571955555565565e+18
14185.0	2.15673962800087e+18
14186.0	2.1555727373959165e+18
14187.0	2.1558109067542525e+18
14188.0	2.155441423804006e+18
14189.0	2.155002135891148e+18
14190.0	2.1545654719348733e+18
14191.0	2.154124241220403e+18
14192.0	2.1536811482349563e+18
14193.0	2.1531311508291581e+18
14194.0	2.1528131739320315e+18
14195.0	2.1523835178188795e+18
14196.0	2.1519469713031165e+18
14197.0	2.1515096429690877e+18
14198.0	2.151068328368537e+18
14199.0	2.150629369289113e+18
14200.0	2.1497414602981373e+18
14201.0	2.149699235400908e+18
14202.0	2.1493206977871867e+18
14203.0	2.1488820088209405e+18
14204.0	2.1484102418956283e+18
14205.0	2.1478578503811064e+18
14206.0	2.1473314769731576e+18
14207.0	2.1469842070568955e+18
14208.0	2.146549594954137e+18
14209.0	2.1460155996569595e+18
14210.0	2.1456033163509752e+18
14211.0	2.1452365898973181e+18
14212.0	2.1448047577792504e+18
14213.0	2.1443668019773437e+18
14214.0	2.1439325069639677e+18
14215.0	2.143486315226726e+18
14216.0	2.1430618365624315e+18
14217.0	2.1426263017127933e+18
14218.0	2.1421804304203773e+18
14219.0	2.1417547488296955e+18
14220.0	2.1413145985679355e+18
14221.0	2.1408784496721915e+18
14222.0	2.1403724807143421e+18
14223.0	2.1398491892809725e+18
14224.0	2.1394041165840381e+18
14225.0	2.13760490780754e+18
14226.0	2.138486624328089e+18
14227.0	2.138093069428326e+18
14228.0	2.1345477752520712e+18
14229.0	2.13655540234977e+18
14230.0	2.1367968952745981e+18
14231.0	2.1363380233175037e+18
14232.0	2.1359364656857083e+18
14233.0	2.1355001909608443e+18
14234.0	2.13506858197975e+18
14235.0	2.1346326377660408e+18
14236.0	2.1342000489955325e+18
14237.0	2.1337625512116224e+18
14238.0	2.1333277142941693e+18
14239.0	2.132880561222451e+18
14240.0	2.1313776229810173e+18
14241.0	2.131996073105817e+18
14242.0	2.131514270049894e+18
14243.0	2.1308695954587643e+18
14244.0	2.130547546731315e+18
14245.0	2.1301061952208893e+18
14246.0	2.1296713968910333e+18
14247.0	2.129244027512422e+18
14248.0	2.1288039846248443e+18
14249.0	2.12837933818839e+18
14250.0	2.1279456588988416e+18
14251.0	2.127513554989875e+18
14252.0	2.12707918783447e+18
14253.0	2.1266430607491067e+18
14254.0	2.1262029356531712e+18
14255.0	2.125721802008166e+18
14256.0	2.1239093509750787e+18
14257.0	2.124620218394214e+18
14258.0	2.124459244362137e+18
14259.0	2.1240226374483965e+18
14260.0	2.1235597507035133e+18
14261.0	2.123148730721894e+18
14262.0	2.1227214502625277e+18
14263.0	2.1202417810931715e+18
14264.0	2.1211412143538168e+18
14265.0	2.1213460171849725e+18
14266.0	2.1208636621586427e+18
14267.0	2.1204386768224253e+18
14268.0	2.1200088378376187e+18
14269.0	2.11956945429463e+18
14270.0	2.1191431083261947e+18
14271.0	2.1187057061724157e+18
14272.0	2.1182581739356152e+18
14273.0	2.1177362867552253e+18
14274.0	2.1139985327456264e+18
14275.0	2.116440902808371e+18
14276.0	2.1165030389055483e+18
14277.0	2.1161050866974717e+18
14278.0	2.115690927698739e+18
14279.0	2.1152626406064125e+18
14280.0	2.1148300317032443e+18
14281.0	2.1144052141391864e+18
14282.0	2.1139753399222267e+18
14283.0	2.1135449808437243e+18
14284.0	2.1131143935950843e+18
14285.0	2.1126833567170555e+18
14286.0	2.112252004427366e+18
14287.0	2.1118218684858363e+18
14288.0	2.1113849797148667e+18
14289.0	2.1102646072967155e+18
14290.0	2.1104693329526784e+18
14291.0	2.1099210904436733e+18
14292.0	2.1094917816188925e+18
14293.0	2.1090583892197373e+18
14294.0	2.1085297978638333e+18
14295.0	2.1081798402375675e+18
14296.0	2.1072089813352445e+18
14297.0	2.1073108123254781e+18
14298.0	2.1064306309201915e+18
14299.0	2.1064464501571581e+18
14300.0	2.1060405119942653e+18
14301.0	2.1056149478440957e+18
14302.0	2.1051869795188733e+18
14303.0	2.1047276914868221e+18
14304.0	2.104312485589811e+18
14305.0	2.1038900688453627e+18
14306.0	2.103433971839795e+18
14307.0	2.1030032201744384e+18
14308.0	2.1025826875113467e+18
14309.0	2.10213613338624e+18
14310.0	2.1016416098451448e+18
14311.0	2.1011807497879547e+18
14312.0	2.1007848930541563e+18
14313.0	2.1003736851677181e+18
14314.0	2.100000752821862e+18
14315.0	2.0995907612835835e+18
14316.0	2.0991337750855677e+18
14317.0	2.098705081984614e+18
14318.0	2.098217264296755e+18
14319.0	2.0977179709931515e+18
14320.0	2.09729220551639e+18
14321.0	2.0968635073822715e+18
14322.0	2.096411155051315e+18
14323.0	2.095995457581875e+18
14324.0	2.0955855851618301e+18
14325.0	2.0951501207764987e+18
14326.0	2.0947319386013693e+18
14327.0	2.0942990847508472e+18
14328.0	2.093873081037619e+18
14329.0	2.0934507397906427e+18
14330.0	2.0930237227335675e+18
14331.0	2.0925927361871872e+18
14332.0	2.0921696584204283e+18
14333.0	2.0917426262638587e+18
14334.0	2.091315268629299e+18
14335.0	2.090875695503769e+18
14336.0	2.0903116908003325e+18
14337.0	2.0900306455887864e+18
14338.0	2.089605895133593e+18
14339.0	2.0891697613373437e+18
14340.0	2.088752590828339e+18
14341.0	2.0883222753705981e+18
14342.0	2.087900424018329e+18
14343.0	2.0874747122286587e+18
14344.0	2.0870453094514683e+18
14345.0	2.0866223625469952e+18
14346.0	2.086190293870182e+18
14347.0	2.0857383056048125e+18
14348.0	2.0853359124676608e+18
14349.0	2.08491556938711e+18
14350.0	2.084265115045068e+18
14351.0	2.08374535857111e+18
14352.0	2.083444313240371e+18
14353.0	2.083026060600934e+18
14354.0	2.0825862727270392e+18
14355.0	2.0821315514531835e+18
14356.0	2.0817134984626173e+18
14357.0	2.0813250304147448e+18
14358.0	2.0809012144504827e+18
14359.0	2.0804623073804288e+18
14360.0	2.080041048263884e+18
14361.0	2.079619106314649e+18
14362.0	2.07919872296878e+18
14363.0	2.0787679041945597e+18
14364.0	2.0779757259980797e+18
14365.0	2.077790842755481e+18
14366.0	2.0774306610937856e+18
14367.0	2.0770753347583992e+18
14368.0	2.0766519046701056e+18
14369.0	2.0762282296344568e+18
14370.0	2.075804365016268e+18
14371.0	2.0753807386345475e+18
14372.0	2.074952112642457e+18
14373.0	2.0745300649967616e+18
14374.0	2.0741078898442235e+18
14375.0	2.0736830924128253e+18
14376.0	2.07325989217239e+18
14377.0	2.0728354252521472e+18
14378.0	2.0724099969974267e+18
14379.0	2.071988016460595e+18
14380.0	2.071563408611737e+18
14381.0	2.0711305799270392e+18
14382.0	2.0707155334135803e+18
14383.0	2.0702909138206715e+18
14384.0	2.0698536878276605e+18
14385.0	2.0694463437340672e+18
14386.0	2.069007312512614e+18
14387.0	2.068435825170841e+18
14388.0	2.067982216226406e+18
14389.0	2.0675590713507837e+18
14390.0	2.067134416525721e+18
14391.0	2.0667122598281208e+18
14392.0	2.0662880093339643e+18
14393.0	2.065865193291776e+18
14394.0	2.0654091684282365e+18
14395.0	2.0650058693214203e+18
14396.0	2.064594233615974e+18
14397.0	2.0641716692320253e+18
14398.0	2.0637478364905464e+18
14399.0	2.06332412118958e+18
14400.0	2.062886603273011e+18
14401.0	2.062469437797171e+18
14402.0	2.0620417144193021e+18
14403.0	2.060986444310117e+18
14404.0	2.05847359819612e+18
14405.0	2.0595731484114918e+18
14406.0	2.0603389243031547e+18
14407.0	2.0591171101261821e+18
14408.0	2.0594674838274045e+18
14409.0	2.0590800911990781e+18
14410.0	2.0586465410940925e+18
14411.0	2.058250135745331e+18
14412.0	2.0578288447520763e+18
14413.0	2.0574095267594237e+18
14414.0	2.056985376928563e+18
14415.0	2.0565635557752827e+18
14416.0	2.056134302315315e+18
14417.0	2.0556880334028797e+18
14418.0	2.055263375222374e+18
14419.0	2.0548697414696952e+18
14420.0	2.054446282860134e+18
14421.0	2.054024621090406e+18
14422.0	2.0535873615429627e+18
14423.0	2.0530891990237176e+18
14424.0	2.0493359411888113e+18
14425.0	2.052261177982976e+18
14426.0	2.051910158358937e+18
14427.0	2.0514996098170875e+18
14428.0	2.0508663739318267e+18
14429.0	2.0504505288228856e+18
14430.0	2.0500142440316925e+18
14431.0	2.0489629685776381e+18
14432.0	2.049169803129651e+18
14433.0	2.0481391334522875e+18
14434.0	2.048318183256883e+18
14435.0	2.047861143371776e+18
14436.0	2.0474981313937403e+18
14437.0	2.0470844086026237e+18
14438.0	2.046590541050675e+18
14439.0	2.0462289920458744e+18
14440.0	2.0458244514250744e+18
14441.0	2.045399883841536e+18
14442.0	2.0449756568354816e+18
14443.0	2.0445251080552445e+18
14444.0	2.0441361148805117e+18
14445.0	2.0437123911909373e+18
14446.0	2.0421988078059523e+18
14447.0	2.0428417862205435e+18
14448.0	2.0424568984305664e+18
14449.0	2.0420385501609984e+18
14450.0	2.0416131068067835e+18
14451.0	2.0411961829228544e+18
14452.0	2.0407738265763835e+18
14453.0	2.040346468941824e+18
14454.0	2.0399324374499325e+18
14455.0	2.0395037326049275e+18
14456.0	2.039079770678886e+18
14457.0	2.0386606942781437e+18
14458.0	2.0382354740609021e+18
14459.0	2.0378054975029245e+18
14460.0	2.0373679057666043e+18
14461.0	2.0368945953374203e+18
14462.0	2.0364192062111744e+18
14463.0	2.0360803936894973e+18
14464.0	2.035698554319667e+18
14465.0	2.035279180962201e+18
14466.0	2.034880982129049e+18
14467.0	2.034448316183347e+18
14468.0	2.0340459213684733e+18
14469.0	2.0335852525715448e+18
14470.0	2.0331870436720635e+18
14471.0	2.032795582568857e+18
14472.0	2.032381727237734e+18
14473.0	2.0319672310169597e+18
14474.0	2.0315528874688507e+18
14475.0	2.0311319387308027e+18
14476.0	2.030678084839014e+18
14477.0	2.030185785956761e+18
14478.0	2.0296712320974845e+18
14479.0	2.029252796586393e+18
14480.0	2.028820477929062e+18
14481.0	2.0284179992281083e+18
14482.0	2.0279956462370808e+18
14483.0	2.0275725567262717e+18
14484.0	2.0271489672544253e+18
14485.0	2.026708021752627e+18
14486.0	2.0260915345620987e+18
14487.0	2.0258998229925883e+18
14488.0	2.0254414728069117e+18
14489.0	2.025007125784166e+18
14490.0	2.0246357352644605e+18
14491.0	2.0242315754864637e+18
14492.0	2.0238144569868283e+18
14493.0	2.0233819403583483e+18
14494.0	2.0229587887718397e+18
14495.0	2.0225543739801597e+18
14496.0	2.022036770023014e+18
14497.0	2.0217205346009088e+18
14498.0	2.021305036780339e+18
14499.0	2.020887074386739e+18
14500.0	2.0204680718057464e+18
14501.0	2.020024398328627e+18
14502.0	2.0194487670145024e+18
14503.0	2.0191886799011837e+18
14504.0	2.0187902025662461e+18
14505.0	2.0183562816847864e+18
14506.0	2.0179193744588797e+18
14507.0	2.0173506939453435e+18
14508.0	2.0171225858834427e+18
14509.0	2.0167079101464573e+18
14510.0	2.016288270031257e+18
14511.0	2.015872023946854e+18
14512.0	2.015443371111219e+18
14513.0	2.015035265332019e+18
14514.0	2.0145931739463677e+18
14515.0	2.0141896366030843e+18
14516.0	2.0120247533043722e+18
14517.0	2.0133325574242301e+18
14518.0	2.012947293824614e+18
14519.0	2.012532930143846e+18
14520.0	2.0121162159751163e+18
14521.0	2.011698251903795e+18
14522.0	2.0112731357052925e+18
14523.0	2.0107778823553021e+18
14524.0	2.010394673964646e+18
14525.0	2.0100240803627003e+18
14526.0	2.0096111813328893e+18
14527.0	2.009175342815641e+18
14528.0	2.0086825641050112e+18
14529.0	2.0083538950881275e+18
14530.0	2.0079322635173883e+18
14531.0	2.0075269813436408e+18
14532.0	2.0070611216760824e+18
14533.0	2.0066202214727677e+18
14534.0	2.006070182123929e+18
14535.0	2.0056431969435645e+18
14536.0	2.005231718943948e+18
14537.0	2.0048089884655616e+18
14538.0	2.004401063880294e+18
14539.0	2.0039840510771197e+18
14540.0	2.0035666138103803e+18
14541.0	2.003128411383398e+18
14542.0	2.002728061711155e+18
14543.0	2.0022772377845755e+18
14544.0	2.0018903786717184e+18
14545.0	2.001452048737894e+18
14546.0	1.9972404725940198e+18
14547.0	1.9970793559556065e+18
14548.0	2.0001944537923581e+18
14549.0	1.999711222995353e+18
14550.0	1.9993831093043192e+18
14551.0	1.998978315347558e+18
14552.0	1.9985615743352832e+18
14553.0	1.9981410165063677e+18
14554.0	1.9977294126776312e+18
14555.0	1.9973121515716603e+18
14556.0	1.996894039860838e+18
14557.0	1.9964760908890107e+18
14558.0	1.9960459616583675e+18
14559.0	1.994336450589489e+18
14560.0	1.9952043493949437e+18
14561.0	1.994800699644313e+18
14562.0	1.9943605946810365e+18
14563.0	1.9939590202720248e+18
14564.0	1.9935190579150843e+18
14565.0	1.9931404783583227e+18
14566.0	1.9927263160041464e+18
14567.0	1.9923044428414968e+18
14568.0	1.9918698156392443e+18
14569.0	1.99146661216256e+18
14570.0	1.9906838174629883e+18
14571.0	1.9906341199937533e+18
14572.0	1.990184492282675e+18
14573.0	1.9897521249714168e+18
14574.0	1.9893156271095803e+18
14575.0	1.988943246734131e+18
14576.0	1.9885248447774715e+18
14577.0	1.9881394385715197e+18
14578.0	1.987728029358489e+18
14579.0	1.987315150461337e+18
14580.0	1.9868976729292797e+18
14581.0	1.986475611861811e+18
14582.0	1.9860532236386301e+18
14583.0	1.9856501661237245e+18
14584.0	1.9852039257325565e+18
14585.0	1.9848146406342653e+18
14586.0	1.984400144413491e+18
14587.0	1.9839858948177915e+18
14588.0	1.983570162116198e+18
14589.0	1.9831577882132477e+18
14590.0	1.9827455535611901e+18
14591.0	1.982329002131456e+18
14592.0	1.981910766269235e+18
14593.0	1.9814154642653181e+18
14594.0	1.981092450847948e+18
14595.0	1.98067500351488e+18
14596.0	1.9799251072581622e+18
14597.0	1.9794410241785848e+18
14598.0	1.979305994433331e+18
14599.0	1.978842169842073e+18
14600.0	1.9784257039761405e+18
14601.0	1.9780133854380032e+18
14602.0	1.977595988436582e+18
14603.0	1.9771831749705725e+18
14604.0	1.976729129818521e+18
14605.0	1.9763168616120315e+18
14606.0	1.9758840044060672e+18
14607.0	1.9755273795141632e+18
14608.0	1.9751179600789501e+18
14609.0	1.9746978988556283e+18
14610.0	1.97426489065472e+18
14611.0	1.9738683242446843e+18
14612.0	1.9734703602925565e+18
14613.0	1.973063385297715e+18
14614.0	1.9726509291864061e+18
14615.0	1.9722402044837883e+18
14616.0	1.9718298539130875e+18
14617.0	1.971415089256857e+18
14618.0	1.9709716405944317e+18
14619.0	1.970201321432678e+18
14620.0	1.9692801113456637e+18
14621.0	1.9697512206041088e+18
14622.0	1.9693500740141048e+18
14623.0	1.9689424631627773e+18
14624.0	1.968486171541504e+18
14625.0	1.9681146283491328e+18
14626.0	1.967705723974451e+18
14627.0	1.9672908485885947e+18
14628.0	1.966881197627801e+18
14629.0	1.9664667416723453e+18
14630.0	1.966048829610393e+18
14631.0	1.9656394571513853e+18
14632.0	1.9649658636730365e+18
14633.0	1.964752761153126e+18
14634.0	1.9643890512429053e+18
14635.0	1.9639189251293181e+18
14636.0	1.9633767542947837e+18
14637.0	1.9631611284815872e+18
14638.0	1.9627248420126717e+18
14639.0	1.9623035124318205e+18
14640.0	1.9619004599500797e+18
14641.0	1.9604597131706358e+18
14642.0	1.9610689643479037e+18
14643.0	1.9606701313359872e+18
14644.0	1.960243807177932e+18
14645.0	1.959827393321369e+18
14646.0	1.9593977221087227e+18
14647.0	1.958958778128793e+18
14648.0	1.9585710046576637e+18
14649.0	1.9581782768746496e+18
