# Flux units: erg / (cm m2 s)
# Wavelength units: Angstrom
wave	flux
14000.0	1.435136765303193e+18
14001.0	1.4348392717090813e+18
14002.0	1.4346809031786493e+18
14003.0	1.434403619418931e+18
14004.0	1.4341197724123136e+18
14005.0	1.4338416145596413e+18
14006.0	1.4335540899872763e+18
14007.0	1.4332724592508923e+18
14008.0	1.4329220251516925e+18
14009.0	1.4327165763977213e+18
14010.0	1.4324275754303485e+18
14011.0	1.4316274179899395e+18
14012.0	1.4318741554724864e+18
14013.0	1.4315948148260864e+18
14014.0	1.4313088824115197e+18
14015.0	1.4310320885465085e+18
14016.0	1.4307522999484413e+18
14017.0	1.4304768549715965e+18
14018.0	1.4301955597795325e+18
14019.0	1.4299178247127037e+18
14020.0	1.4296370764578813e+18
14021.0	1.4293565714726907e+18
14022.0	1.4290613193146365e+18
14023.0	1.4287193023447037e+18
14024.0	1.4284821211643901e+18
14025.0	1.428234481067622e+18
14026.0	1.4279566184939515e+18
14027.0	1.4276765815930875e+18
14028.0	1.427394501227315e+18
14029.0	1.4271165463789565e+18
14030.0	1.4226729816031265e+18
14031.0	1.4264780072157181e+18
14032.0	1.4262755867492347e+18
14033.0	1.425923387686912e+18
14034.0	1.4257194790813693e+18
14035.0	1.4254415846309885e+18
14036.0	1.4251541691105275e+18
14037.0	1.4248803934666747e+18
14038.0	1.4246062252359677e+18
14039.0	1.4243244451823613e+18
14040.0	1.4240393298182141e+18
14041.0	1.4237666212052992e+18
14042.0	1.4234832808706045e+18
14043.0	1.4231757427572736e+18
14044.0	1.422921665242726e+18
14045.0	1.4226506528063485e+18
14046.0	1.422372124177203e+18
14047.0	1.4220757915664381e+18
14048.0	1.4218102619242493e+18
14049.0	1.421540108481331e+18
14050.0	1.421261774467891e+18
14051.0	1.4209741995638781e+18
14052.0	1.4206996974665725e+18
14053.0	1.4204256533872637e+18
14054.0	1.4201488058351613e+18
14055.0	1.419870456722227e+18
14056.0	1.4195929716359163e+18
14057.0	1.419315197981491e+18
14058.0	1.4190374025166845e+18
14059.0	1.4187534749794304e+18
14060.0	1.418482016269107e+18
14061.0	1.4181986373468157e+18
14062.0	1.4179267659169787e+18
14063.0	1.417636045284966e+18
14064.0	1.416503079888487e+18
14065.0	1.4170866032050176e+18
14066.0	1.4168149750448125e+18
14067.0	1.4164778687660032e+18
14068.0	1.4162603420942336e+18
14069.0	1.4159698244665341e+18
14070.0	1.415699531772723e+18
14071.0	1.4154214208962557e+18
14072.0	1.4151473298407421e+18
14073.0	1.414871079557529e+18
14074.0	1.4145931985289213e+18
14075.0	1.4142960807444477e+18
14076.0	1.4139648783679485e+18
14077.0	1.412772350499226e+18
14078.0	1.4134136629362685e+18
14079.0	1.413200008445952e+18
14080.0	1.412932222268211e+18
14081.0	1.4126565927419901e+18
14082.0	1.4123752639954941e+18
14083.0	1.412101095764787e+18
14084.0	1.4118268990128125e+18
14085.0	1.4108641971929083e+18
14086.0	1.4112008353873917e+18
14087.0	1.4109976029036541e+18
14088.0	1.4107027332661245e+18
14089.0	1.410395267294822e+18
14090.0	1.410152900277043e+18
14091.0	1.4098702327087101e+18
14092.0	1.4095926721249275e+18
14093.0	1.4093144756846587e+18
14094.0	1.4090392504893437e+18
14095.0	1.4087644162031613e+18
14096.0	1.408308342685696e+18
14097.0	1.4081738280009725e+18
14098.0	1.4078583341318144e+18
14099.0	1.4076656176070653e+18
14100.0	1.4073767105921021e+18
14101.0	1.4071155774193661e+18
14102.0	1.4068392138899453e+18
14103.0	1.4065524317093885e+18
14104.0	1.4062887626604544e+18
14105.0	1.4060153343049725e+18
14106.0	1.405739968181043e+18
14107.0	1.4054617901957117e+18
14108.0	1.4051740441640957e+18
14109.0	1.4049119899222013e+18
14110.0	1.404632294437683e+18
14111.0	1.4043502954414077e+18
14112.0	1.4040802359508987e+18
14113.0	1.4037786797539325e+18
14114.0	1.403529163125555e+18
14115.0	1.4032574653399037e+18
14116.0	1.4028238422540283e+18
14117.0	1.395775461182673e+18
14118.0	1.4024407823417341e+18
14119.0	1.4020757042495483e+18
14120.0	1.401799478293299e+18
14121.0	1.4016119861936125e+18
14122.0	1.4011661677494267e+18
14123.0	1.400968642035712e+18
14124.0	1.4006409519693824e+18
14125.0	1.4001710515093501e+18
14126.0	1.4002292390887421e+18
14127.0	1.399980215710515e+18
14128.0	1.3997077562392573e+18
14129.0	1.399427648035225e+18
14130.0	1.3991525679628285e+18
14131.0	1.398820775867187e+18
14132.0	1.398529941988966e+18
14133.0	1.3978569642344425e+18
14134.0	1.3979863954227197e+18
14135.0	1.3976856856363008e+18
14136.0	1.3971506484740096e+18
14137.0	1.3971600479092733e+18
14138.0	1.3968014047182848e+18
14139.0	1.3964982018375677e+18
14140.0	1.39588983062528e+18
14141.0	1.3956153050398717e+18
14142.0	1.3949175548870659e+18
14143.0	1.3950740653408253e+18
14144.0	1.3948101815435261e+18
14145.0	1.3945361836015613e+18
14146.0	1.3942503325564925e+18
14147.0	1.3939872330940413e+18
14148.0	1.393698484623769e+18
14149.0	1.3934203141881853e+18
14150.0	1.3931761880793085e+18
14151.0	1.3928642635628541e+18
14152.0	1.3926325022621693e+18
14153.0	1.392379478356787e+18
14154.0	1.3922690825977853e+18
14155.0	1.3897712940351503e+18
14156.0	1.3916452872519672e+18
14157.0	1.3914711565271037e+18
14158.0	1.3911915197628413e+18
14159.0	1.3909262644281341e+18
14160.0	1.3906500149837821e+18
14161.0	1.3903307588239357e+18
14162.0	1.390028404031488e+18
14163.0	1.3898349132382208e+18
14164.0	1.3893572868702203e+18
14165.0	1.3891867087208445e+18
14166.0	1.3890235628781565e+18
14167.0	1.3887454444519421e+18
14168.0	1.3884548790091773e+18
14169.0	1.3882095407464445e+18
14170.0	1.3879240118239227e+18
14171.0	1.3876634415267837e+18
14172.0	1.3874013436641277e+18
14173.0	1.3870722963210237e+18
14174.0	1.3868499982090237e+18
14175.0	1.3865860003266557e+18
14176.0	1.386310852306534e+18
14177.0	1.3860470339403773e+18
14178.0	1.3857773947191293e+18
14179.0	1.3854962631049213e+18
14180.0	1.3852384971194365e+18
14181.0	1.384968277406515e+18
14182.0	1.384697467974451e+18
14183.0	1.384428067828531e+18
14184.0	1.3841541646778365e+18
14185.0	1.3838879203262461e+18
14186.0	1.382421223387956e+18
14187.0	1.383325490164531e+18
14188.0	1.3830708690681853e+18
14189.0	1.382792322822963e+18
14190.0	1.3825243227357181e+18
14191.0	1.382248912152166e+18
14192.0	1.3819880432205821e+18
14193.0	1.3815213119766528e+18
14194.0	1.3814463387926525e+18
14195.0	1.3811886994751485e+18
14196.0	1.380928020964966e+18
14197.0	1.3806614368747517e+18
14198.0	1.380389003408179e+18
14199.0	1.3801210142261245e+18
14200.0	1.3790394038878213e+18
14201.0	1.3795623639711741e+18
14202.0	1.379312530253414e+18
14203.0	1.3790337466105853e+18
14204.0	1.3787715589898237e+18
14205.0	1.3785077011972093e+18
14206.0	1.3781449140338685e+18
14207.0	1.3779718310461437e+18
14208.0	1.3777038158594045e+18
14209.0	1.377322579630489e+18
14210.0	1.3771059715112952e+18
14211.0	1.3768935174307837e+18
14212.0	1.376629336676761e+18
14213.0	1.3763454645043197e+18
14214.0	1.376092660380467e+18
14215.0	1.3758107469479933e+18
14216.0	1.3755571048022013e+18
14217.0	1.375290126447411e+18
14218.0	1.3750140791685117e+18
14219.0	1.3747504990388221e+18
14220.0	1.3744742881820667e+18
14221.0	1.3741997927956477e+18
14222.0	1.3738331166736381e+18
14223.0	1.3736740015570941e+18
14224.0	1.3734121545138173e+18
14225.0	1.3706166190211092e+18
14226.0	1.3728586716413947e+18
14227.0	1.3726074932297723e+18
14228.0	1.3650406819233838e+18
14229.0	1.3712275470811082e+18
14230.0	1.3718066194022395e+18
14231.0	1.371432391016448e+18
14232.0	1.3712724001292285e+18
14233.0	1.3709997082935293e+18
14234.0	1.3707383268179965e+18
14235.0	1.3704692395671547e+18
14236.0	1.3702041410994173e+18
14237.0	1.3699331001417725e+18
14238.0	1.3696679605698557e+18
14239.0	1.3693841236295677e+18
14240.0	1.3677836661424138e+18
14241.0	1.3688510074585085e+18
14242.0	1.3685976639471613e+18
14243.0	1.3682178814640128e+18
14244.0	1.3680702545461245e+18
14245.0	1.3677896312815613e+18
14246.0	1.3675131310178301e+18
14247.0	1.367267822954086e+18
14248.0	1.3669904183984123e+18
14249.0	1.3667354735017984e+18
14250.0	1.3664707625877501e+18
14251.0	1.3662041248104445e+18
14252.0	1.3659406294056957e+18
14253.0	1.365674508366643e+18
14254.0	1.365406739804979e+18
14255.0	1.3651131209089021e+18
14256.0	1.3625192827846671e+18
14257.0	1.364533846422323e+18
14258.0	1.364342493885235e+18
14259.0	1.3640621877100541e+18
14260.0	1.3637354975657981e+18
14261.0	1.3635343555231741e+18
14262.0	1.3632940344868864e+18
14263.0	1.3595922323734556e+18
14264.0	1.3622054825754624e+18
14265.0	1.3624832235143165e+18
14266.0	1.362230422745907e+18
14267.0	1.3619662503804925e+18
14268.0	1.3616972335939581e+18
14269.0	1.3614296730697723e+18
14270.0	1.3611711378489341e+18
14271.0	1.3609035160879101e+18
14272.0	1.3606409342025723e+18
14273.0	1.360375529550643e+18
14274.0	1.3550782989205542e+18
14275.0	1.3593794427486208e+18
14276.0	1.3595662713094144e+18
14277.0	1.3593016358928381e+18
14278.0	1.3590532869586941e+18
14279.0	1.358788730395033e+18
14280.0	1.3585184905494523e+18
14281.0	1.3582605567918077e+18
14282.0	1.357996549681971e+18
14283.0	1.357731314479923e+18
14284.0	1.3574671261761536e+18
14285.0	1.3572026493042685e+18
14286.0	1.356927403137433e+18
14287.0	1.3566745201606653e+18
14288.0	1.3564104719466493e+18
14289.0	1.3552811790827487e+18
14290.0	1.3558798379646973e+18
14291.0	1.3556176847372283e+18
14292.0	1.355353240580915e+18
14293.0	1.355089238504243e+18
14294.0	1.354718928437248e+18
14295.0	1.354552078185267e+18
14296.0	1.3536030305026048e+18
14297.0	1.3540284738568192e+18
14298.0	1.3530223844786173e+18
14299.0	1.3534783967592445e+18
14300.0	1.3532380983721981e+18
14301.0	1.352980473315328e+18
14302.0	1.3527169821048827e+18
14303.0	1.352430376923955e+18
14304.0	1.3521808133193725e+18
14305.0	1.3519301508071421e+18
14306.0	1.351605353132851e+18
14307.0	1.3513759741968381e+18
14308.0	1.3511374097350656e+18
14309.0	1.3508708080287741e+18
14310.0	1.3504532457717757e+18
14311.0	1.3491223100653565e+18
14312.0	1.3499734190718973e+18
14313.0	1.3496871125254144e+18
14314.0	1.3495353206636541e+18
14315.0	1.3492979792609277e+18
14316.0	1.3490019226353661e+18
14317.0	1.348680094528307e+18
14318.0	1.3485169998561277e+18
14319.0	1.3482554036322301e+18
14320.0	1.347992731988787e+18
14321.0	1.3477273046876157e+18
14322.0	1.3474312958771195e+18
14323.0	1.347196938302259e+18
14324.0	1.3469400841584637e+18
14325.0	1.3466759252148221e+18
14326.0	1.346420581020467e+18
14327.0	1.3461542435553275e+18
14328.0	1.345890714596147e+18
14329.0	1.3456356723916795e+18
14330.0	1.3453740652625917e+18
14331.0	1.3451023121121275e+18
14332.0	1.3448507142701053e+18
14333.0	1.3445899267080192e+18
14334.0	1.3443288992317437e+18
14335.0	1.3440503747969021e+18
14336.0	1.3435483308687357e+18
14337.0	1.343561051353907e+18
14338.0	1.3433018995703808e+18
14339.0	1.3430292916207613e+18
14340.0	1.3427816288747517e+18
14341.0	1.3425013411545085e+18
14342.0	1.3422576764190717e+18
14343.0	1.3419956314046461e+18
14344.0	1.3417323457150973e+18
14345.0	1.3414745293979645e+18
14346.0	1.3412102504972285e+18
14347.0	1.3408235549622272e+18
14348.0	1.3406916390682621e+18
14349.0	1.3404318036131837e+18
14350.0	1.3399750606847995e+18
14351.0	1.339700662606233e+18
14352.0	1.3396425572352e+18
14353.0	1.3393717754855421e+18
14354.0	1.3390754562965501e+18
14355.0	1.338764913383833e+18
14356.0	1.3385333139832827e+18
14357.0	1.338319085712179e+18
14358.0	1.3380592016031741e+18
14359.0	1.3377899163811837e+18
14360.0	1.3375210950492157e+18
14361.0	1.3372763616051197e+18
14362.0	1.3370211491119101e+18
14363.0	1.3367610762592253e+18
14364.0	1.3358634415161347e+18
14365.0	1.3361731472457723e+18
14366.0	1.3358610876727293e+18
14367.0	1.3357230288011261e+18
14368.0	1.3354638963113981e+18
14369.0	1.3352058191085565e+18
14370.0	1.334944385623654e+18
14371.0	1.334685912478515e+18
14372.0	1.334417611240243e+18
14373.0	1.3341605993906173e+18
14374.0	1.3339078204325885e+18
14375.0	1.333645263713075e+18
14376.0	1.3333898960306173e+18
14377.0	1.3331307517968381e+18
14378.0	1.3328703014567933e+18
14379.0	1.3326135924359165e+18
14380.0	1.3323539658571773e+18
14381.0	1.332087213994803e+18
14382.0	1.3318363300233213e+18
14383.0	1.331570865812275e+18
14384.0	1.3313069375553536e+18
14385.0	1.3310612259995645e+18
14386.0	1.3307898813743101e+18
14387.0	1.3305421322256381e+18
14388.0	1.3302826297982973e+18
14389.0	1.3300151238000637e+18
14390.0	1.3297389834076157e+18
14391.0	1.3294795027906557e+18
14392.0	1.3292208073474045e+18
14393.0	1.328966773453619e+18
14394.0	1.3286805264662525e+18
14395.0	1.3284208361340925e+18
14396.0	1.3281912986533885e+18
14397.0	1.327932810408755e+18
14398.0	1.327673883439923e+18
14399.0	1.3274153985507328e+18
14400.0	1.3271315423166461e+18
14401.0	1.3268929627553792e+18
14402.0	1.3266389078900733e+18
14403.0	1.3244263563263954e+18
14404.0	1.3190551926996972e+18
14405.0	1.3246590378573755e+18
14406.0	1.3256120030199805e+18
14407.0	1.3221730378055695e+18
14408.0	1.3250178572091392e+18
14409.0	1.3248245299937277e+18
14410.0	1.3245359065137152e+18
14411.0	1.3243225078759421e+18
14412.0	1.324067088184115e+18
14413.0	1.3238133713797117e+18
14414.0	1.3235544158896125e+18
14415.0	1.3232984467439616e+18
14416.0	1.3230233901596667e+18
14417.0	1.322704564335411e+18
14418.0	1.3224369736122365e+18
14419.0	1.3222708791738365e+18
14420.0	1.3220106872029181e+18
14421.0	1.3217583897509888e+18
14422.0	1.3214993965121533e+18
14423.0	1.3212344205180923e+18
14424.0	1.3083472050519967e+18
14425.0	1.3207275229413373e+18
14426.0	1.320477107893043e+18
14427.0	1.3202196011155453e+18
14428.0	1.3199456367280125e+18
14429.0	1.319706794603315e+18
14430.0	1.3194509898743805e+18
14431.0	1.3180865324515336e+18
14432.0	1.3189313399357437e+18
14433.0	1.3162909441982446e+18
14434.0	1.318417364890419e+18
14435.0	1.3180333637763067e+18
14436.0	1.3179155927531517e+18
14437.0	1.317660305601331e+18
14438.0	1.3172444571369472e+18
14439.0	1.3171281297932285e+18
14440.0	1.3168928847036413e+18
14441.0	1.3166304345194493e+18
14442.0	1.316365918221107e+18
14443.0	1.3160795193999357e+18
14444.0	1.315867467972608e+18
14445.0	1.3156167618396157e+18
14446.0	1.3124072753856527e+18
14447.0	1.3150943696650237e+18
14448.0	1.3148514448048125e+18
14449.0	1.314594617504563e+18
14450.0	1.3143368045428736e+18
14451.0	1.3140840624947197e+18
14452.0	1.3138300193734653e+18
14453.0	1.3135379708248061e+18
14454.0	1.3133154546089981e+18
14455.0	1.3130597597708285e+18
14456.0	1.312794149598003e+18
14457.0	1.312526779495219e+18
14458.0	1.311755144999731e+18
14459.0	1.3115028123156477e+18
14460.0	1.3112472030412797e+18
14461.0	1.3109373010182141e+18
14462.0	1.3098939561541637e+18
14463.0	1.3104713004220416e+18
14464.0	1.3102310028738557e+18
14465.0	1.3099549262348285e+18
14466.0	1.3097215006343163e+18
14467.0	1.3094306499788797e+18
14468.0	1.3092112107044861e+18
14469.0	1.3088635507179517e+18
14470.0	1.308680072567193e+18
14471.0	1.3084442973175808e+18
14472.0	1.3081942429794301e+18
14473.0	1.3079439722151933e+18
14474.0	1.3076941972176893e+18
14475.0	1.3074365528670203e+18
14476.0	1.3070268876455936e+18
14477.0	1.3069270682435584e+18
14478.0	1.3066765735034877e+18
14479.0	1.3064137894526973e+18
14480.0	1.3061616908107773e+18
14481.0	1.3059327732482045e+18
14482.0	1.305676646396723e+18
14483.0	1.3054173268410365e+18
14484.0	1.3051701623783421e+18
14485.0	1.3048851233505277e+18
14486.0	1.3044222701600768e+18
14487.0	1.304410888496742e+18
14488.0	1.3040377497911293e+18
14489.0	1.3038012170502141e+18
14490.0	1.3036304358965245e+18
14491.0	1.303401588798259e+18
14492.0	1.3031420251340795e+18
14493.0	1.302878680724275e+18
14494.0	1.3026209868808192e+18
14495.0	1.3023904503169021e+18
14496.0	1.302029078311731e+18
14497.0	1.301885100438323e+18
14498.0	1.3016326226313216e+18
14499.0	1.3013811724287995e+18
14500.0	1.3011285880864765e+18
14501.0	1.3008129499332603e+18
14502.0	1.3003240039776256e+18
14503.0	1.3003333270765563e+18
14504.0	1.300115326448435e+18
14505.0	1.2998160435642363e+18
14506.0	1.2994845433921533e+18
14507.0	1.2991618126708736e+18
14508.0	1.2991104232194045e+18
14509.0	1.2988580133601277e+18
14510.0	1.298603723613798e+18
14511.0	1.2983546113163264e+18
14512.0	1.2980903408041981e+18
14513.0	1.2978497806925821e+18
14514.0	1.2975626646454272e+18
14515.0	1.2973445348327421e+18
14516.0	1.2949094100107277e+18
14517.0	1.2968390163431421e+18
14518.0	1.296591033152307e+18
14519.0	1.296337709773619e+18
14520.0	1.2960868409016317e+18
14521.0	1.2958331568127997e+18
14522.0	1.2955761214750717e+18
14523.0	1.2950960154345472e+18
14524.0	1.294937784477286e+18
14525.0	1.2948261488820221e+18
14526.0	1.2945742289174525e+18
14527.0	1.2943165199745021e+18
14528.0	1.293920796619571e+18
14529.0	1.2938176209354752e+18
14530.0	1.2935581663231997e+18
14531.0	1.2933218844016637e+18
14532.0	1.2928568560451584e+18
14533.0	1.2928194059436027e+18
14534.0	1.2925697878130685e+18
14535.0	1.2923104388972541e+18
14536.0	1.292065366553395e+18
14537.0	1.291808209580851e+18
14538.0	1.2915737429540861e+18
14539.0	1.2913223095287808e+18
14540.0	1.2910724732944381e+18
14541.0	1.2908053741436928e+18
14542.0	1.2905692146958333e+18
14543.0	1.2902236493447165e+18
14544.0	1.2900654452310016e+18
14545.0	1.289803789447987e+18
14546.0	1.2723342784069507e+18
14547.0	1.2740708519640932e+18
14548.0	1.2890561480491005e+18
14549.0	1.2887175116881917e+18
14550.0	1.2885601632124925e+18
14551.0	1.288316447306547e+18
14552.0	1.288065372074803e+18
14553.0	1.287806856147763e+18
14554.0	1.2875655695826944e+18
14555.0	1.2873158524665853e+18
14556.0	1.287062597874483e+18
14557.0	1.287023551420825e+18
14558.0	1.2868219085783037e+18
14559.0	1.2848197776965565e+18
14560.0	1.286247852644761e+18
14561.0	1.2860665395937277e+18
14562.0	1.2857818428211197e+18
14563.0	1.2855698912182272e+18
14564.0	1.2852202439704576e+18
14565.0	1.2850507127193595e+18
14566.0	1.284788353132134e+18
14567.0	1.2845343041388541e+18
14568.0	1.2841297417076736e+18
14569.0	1.2840350720720893e+18
14570.0	1.283233132891341e+18
14571.0	1.2835381972041725e+18
14572.0	1.2831829857927165e+18
14573.0	1.2829860187602941e+18
14574.0	1.2825401508233216e+18
14575.0	1.2825235732561917e+18
14576.0	1.2822651386986493e+18
14577.0	1.2820397007306747e+18
14578.0	1.2817874116673533e+18
14579.0	1.281546890982195e+18
14580.0	1.2812958308499453e+18
14581.0	1.281034036654899e+18
14582.0	1.2807863864918013e+18
14583.0	1.2805516388466685e+18
14584.0	1.2802529540702205e+18
14585.0	1.2800538622033917e+18
14586.0	1.2798030386298877e+18
14587.0	1.2795541217869821e+18
14588.0	1.2793081669615613e+18
14589.0	1.2790677435842557e+18
14590.0	1.2788277471870973e+18
14591.0	1.2785716757004288e+18
14592.0	1.278340278465331e+18
14593.0	1.2780093336190973e+18
14594.0	1.2778652802482173e+18
14595.0	1.2776192046268413e+18
14596.0	1.2767819821219825e+18
14597.0	1.2764070289604595e+18
14598.0	1.2768471154687995e+18
14599.0	1.2766632136933373e+18
14600.0	1.2764046675673088e+18
14601.0	1.2761792874807293e+18
14602.0	1.2758703258206205e+18
14603.0	1.275684491309875e+18
14604.0	1.2753453105283067e+18
14605.0	1.275021890263449e+18
14606.0	1.2748496746577917e+18
14607.0	1.2747030124298237e+18
14608.0	1.2744623407497216e+18
14609.0	1.2742108578316285e+18
14610.0	1.2736793472401408e+18
14611.0	1.2737297468358653e+18
14612.0	1.2735055319269373e+18
14613.0	1.2732678457524221e+18
14614.0	1.273023233943142e+18
14615.0	1.2727702368813053e+18
14616.0	1.2725488397058045e+18
14617.0	1.2723048629141501e+18
14618.0	1.2720082358632445e+18
14619.0	1.2715598446329838e+18
14620.0	1.270055578474906e+18
14621.0	1.2713500673572861e+18
14622.0	1.2711081424191485e+18
14623.0	1.2708708555423741e+18
14624.0	1.2705839609544701e+18
14625.0	1.2703890298372093e+18
14626.0	1.2701459481100285e+18
14627.0	1.2699012918411261e+18
14628.0	1.2696728490737664e+18
14629.0	1.269433150472192e+18
14630.0	1.2691780554194941e+18
14631.0	1.2689519010643965e+18
14632.0	1.26760524930089e+18
14633.0	1.2683383121379323e+18
14634.0	1.2682095017066493e+18
14635.0	1.266207212280201e+18
14636.0	1.2600031739641864e+18
14637.0	1.267512330367795e+18
14638.0	1.2672397064798205e+18
14639.0	1.2669960845262845e+18
14640.0	1.2667929434783741e+18
14641.0	1.2624533160722388e+18
14642.0	1.2663121244061693e+18
14643.0	1.266070504813363e+18
14644.0	1.2658145952268285e+18
14645.0	1.2655740728639488e+18
14646.0	1.265262124020531e+18
