# Flux units: erg / (cm m2 s)
# Wavelength units: Angstrom
wave	flux
14000.0	2.1403257796558843e+18
14001.0	2.1399032991580152e+18
14002.0	2.1395449143361533e+18
14003.0	2.13911839220695e+18
14004.0	2.1386910614159357e+18
14005.0	2.1382634319904763e+18
14006.0	2.1378296990138363e+18
14007.0	2.1373997107118077e+18
14008.0	2.1368975334047744e+18
14009.0	2.1365481160048637e+18
14010.0	2.136111386617446e+18
14011.0	2.1351865711067133e+18
14012.0	2.1352676755243005e+18
14013.0	2.1348450943631357e+18
14014.0	2.1344134266617853e+18
14015.0	2.1339901861560317e+18
14016.0	2.1335655413972987e+18
14017.0	2.133139227305574e+18
14018.0	2.1327127571857403e+18
14019.0	2.1322865152360443e+18
14020.0	2.1318596021977088e+18
14021.0	2.1314327713677304e+18
14022.0	2.131005606671155e+18
14023.0	2.1305686205923325e+18
14024.0	2.1301422494580733e+18
14025.0	2.129729707782963e+18
14026.0	2.1293031286112253e+18
14027.0	2.1288790358228987e+18
14028.0	2.1284472087379965e+18
14029.0	2.1280217116966912e+18
14030.0	2.126885748211712e+18
14031.0	2.1271238705938427e+18
14032.0	2.1267494668861435e+18
14033.0	2.1262873804144637e+18
14034.0	2.1259016319533053e+18
14035.0	2.1254786884042747e+18
14036.0	2.125054558706073e+18
14037.0	2.1246302931124221e+18
14038.0	2.124206027518771e+18
14039.0	2.1237778176016381e+18
14040.0	2.1233528993742845e+18
14041.0	2.1229316268359677e+18
14042.0	2.1225001805938683e+18
14043.0	2.122042295137075e+18
14044.0	2.1216335350464504e+18
14045.0	2.1212169584508928e+18
14046.0	2.1207908473634816e+18
14047.0	2.120364001434009e+18
14048.0	2.1199477368946688e+18
14049.0	2.1195256573722621e+18
14050.0	2.119102566183731e+18
14051.0	2.1186721634844667e+18
14052.0	2.118252244867481e+18
14053.0	2.1178336264847357e+18
14054.0	2.1174110906220536e+18
14055.0	2.1169884524183547e+18
14056.0	2.1165658863566843e+18
14057.0	2.1161434662567933e+18
14058.0	2.115721108232601e+18
14059.0	2.1152988525494267e+18
14060.0	2.1148766690082816e+18
14061.0	2.1144490546823165e+18
14062.0	2.1140323287695355e+18
14063.0	2.1135963375796221e+18
14064.0	2.113070173886873e+18
14065.0	2.1127599547744253e+18
14066.0	2.1123457739653115e+18
14067.0	2.1119189917892603e+18
14068.0	2.1115029990408187e+18
14069.0	2.111080085690777e+18
14070.0	2.1106600160788477e+18
14071.0	2.110237183259443e+18
14072.0	2.1098186001088504e+18
14073.0	2.1093977319014392e+18
14074.0	2.1089769123479547e+18
14075.0	2.1085396863549437e+18
14076.0	2.1081283979378683e+18
14077.0	2.1075544711888893e+18
14078.0	2.1072810763878392e+18
14079.0	2.1068648739241981e+18
14080.0	2.1064542398185467e+18
14081.0	2.1060343413342208e+18
14082.0	2.1056124983705597e+18
14083.0	2.1051927743692797e+18
14084.0	2.1047714951200765e+18
14085.0	2.1040838238797821e+18
14086.0	2.1039166875762683e+18
14087.0	2.1035149974044667e+18
14088.0	2.103084903405977e+18
14089.0	2.102672344953651e+18
14090.0	2.102256462934835e+18
14091.0	2.101839272293171e+18
14092.0	2.1014205247258621e+18
14093.0	2.1010015657656317e+18
14094.0	2.1005825111752701e+18
14095.0	2.100162555648409e+18
14096.0	2.0997164377309181e+18
14097.0	2.0993032132231163e+18
14098.0	2.098894743378329e+18
14099.0	2.098489248133939e+18
14100.0	2.0980621421576187e+18
14101.0	2.097654363534131e+18
14102.0	2.097236282022297e+18
14103.0	2.0968067299278843e+18
14104.0	2.0963982147846136e+18
14105.0	2.0959830860627965e+18
14106.0	2.095565595108966e+18
14107.0	2.0951475337297917e+18
14108.0	2.0947196560015357e+18
14109.0	2.0943089698865147e+18
14110.0	2.0938928529866747e+18
14111.0	2.0934688491175933e+18
14112.0	2.0930537354952701e+18
14113.0	2.0926442590175227e+18
14114.0	2.0922144116441088e+18
14115.0	2.0918062337228797e+18
14116.0	2.0913544149073917e+18
14117.0	2.0897117526556675e+18
14118.0	2.0905483535646715e+18
14119.0	2.090117613643366e+18
14120.0	2.0897106168381437e+18
14121.0	2.089296932634624e+18
14122.0	2.0888838943539197e+18
14123.0	2.0884652424167424e+18
14124.0	2.0880443272331261e+18
14125.0	2.0872440624185336e+18
14126.0	2.087225971546521e+18
14127.0	2.086817412782489e+18
14128.0	2.0864017320902656e+18
14129.0	2.085976828962406e+18
14130.0	2.085552403985203e+18
14131.0	2.0851568911843325e+18
14132.0	2.0847314042093565e+18
14133.0	2.0838553516769267e+18
14134.0	2.0839059651821563e+18
14135.0	2.083481515039129e+18
14136.0	2.0830672973201403e+18
14137.0	2.0826632516272125e+18
14138.0	2.0822421653159933e+18
14139.0	2.0818384232906747e+18
14140.0	2.0814197260550144e+18
14141.0	2.080989058275737e+18
14142.0	2.0805169390288896e+18
14143.0	2.0801768464056317e+18
14144.0	2.0797694905679864e+18
14145.0	2.0793565579837437e+18
14146.0	2.0789418453368827e+18
14147.0	2.0785282198536187e+18
14148.0	2.0781137890639872e+18
14149.0	2.0777007725936637e+18
14150.0	2.077290224051814e+18
14151.0	2.0768654282981373e+18
14152.0	2.0764296485011448e+18
14153.0	2.0760165598887933e+18
14154.0	2.0755798825107456e+18
14155.0	2.0751680639336445e+18
14156.0	2.0747746415738872e+18
14157.0	2.0743654352093181e+18
14158.0	2.0739495448018936e+18
14159.0	2.0735404609110008e+18
14160.0	2.0731193276235773e+18
14161.0	2.0726647690887168e+18
14162.0	2.0722103028285437e+18
14163.0	2.0718859623333888e+18
14164.0	2.071436086319513e+18
14165.0	2.0710220950929403e+18
14166.0	2.0706523034419197e+18
14167.0	2.0702309151408125e+18
14168.0	2.0698313523199997e+18
14169.0	2.0694220973015037e+18
14170.0	2.0690079299141627e+18
14171.0	2.0685972907753467e+18
14172.0	2.068188352846233e+18
14173.0	2.067747256349491e+18
14174.0	2.0673604744118267e+18
14175.0	2.0669558012510203e+18
14176.0	2.066545259420057e+18
14177.0	2.0661346454470653e+18
14178.0	2.0657232312008696e+18
14179.0	2.0653077501575165e+18
14180.0	2.064903266579251e+18
14181.0	2.0644929915060221e+18
14182.0	2.0640820755431421e+18
14183.0	2.0636723927056384e+18
14184.0	2.0632573747134461e+18
14185.0	2.0628482421686267e+18
14186.0	2.0621992273117181e+18
14187.0	2.062000749490995e+18
14188.0	2.0616186584629245e+18
14189.0	2.0612113848336381e+18
14190.0	2.0608023848288253e+18
14191.0	2.0603921584095227e+18
14192.0	2.0599771337064443e+18
14193.0	2.0595381813379067e+18
14194.0	2.0591651533619197e+18
14195.0	2.05875905078231e+18
14196.0	2.0583502235828221e+18
14197.0	2.0579414920134648e+18
14198.0	2.0575285946613752e+18
14199.0	2.057121869647052e+18
14200.0	2.0565765597954043e+18
14201.0	2.056294633780019e+18
14202.0	2.0558987820793856e+18
14203.0	2.0554847103221755e+18
14204.0	2.055080246876569e+18
14205.0	2.0546716478472187e+18
14206.0	2.0540325265145853e+18
14207.0	2.0537168027975675e+18
14208.0	2.0533102354890747e+18
14209.0	2.052785630399692e+18
14210.0	2.0524100321542136e+18
14211.0	2.052082200320409e+18
14212.0	2.0516790857629693e+18
14213.0	2.0512717030817787e+18
14214.0	2.0508641895383037e+18
14215.0	2.0504477639376893e+18
14216.0	2.050050588514713e+18
14217.0	2.0496433987715072e+18
14218.0	2.0492248944738301e+18
14219.0	2.0488290662612987e+18
14220.0	2.0484222120624125e+18
14221.0	2.0480135257915387e+18
14222.0	2.0475918036238333e+18
14223.0	2.0472010203201533e+18
14224.0	2.046646311872102e+18
14225.0	2.0457980692529152e+18
14226.0	2.0457979568455677e+18
14227.0	2.0453991171227645e+18
14228.0	2.0440067256352765e+18
14229.0	2.044397084475391e+18
14230.0	2.0441811013074936e+18
14231.0	2.0437674825351163e+18
14232.0	2.0433700655202301e+18
14233.0	2.042961000084275e+18
14234.0	2.042557969412915e+18
14235.0	2.042149838467891e+18
14236.0	2.0417459135709181e+18
14237.0	2.0413387456380925e+18
14238.0	2.040932945048371e+18
14239.0	2.040518084762009e+18
14240.0	2.038811298313011e+18
14241.0	2.0397006316896253e+18
14242.0	2.0393049309839355e+18
14243.0	2.0387715077898237e+18
14244.0	2.0383550704451581e+18
14245.0	2.037938299233894e+18
14246.0	2.0375311615000573e+18
14247.0	2.037134061574553e+18
14248.0	2.0367204629348347e+18
14249.0	2.036326448339353e+18
14250.0	2.03592127521751e+18
14251.0	2.035518373730713e+18
14252.0	2.035113212352921e+18
14253.0	2.034707220502937e+18
14254.0	2.0343001163235328e+18
14255.0	2.0338652290744317e+18
14256.0	2.0330478951202816e+18
14257.0	2.033026700463308e+18
14258.0	2.0326817541914621e+18
14259.0	2.032260932960256e+18
14260.0	2.0318589693198333e+18
14261.0	2.0314502411059197e+18
14262.0	2.0310852796153853e+18
14263.0	2.0300363814928384e+18
14264.0	2.0300897531723768e+18
14265.0	2.029871533601587e+18
14266.0	2.0294550929014784e+18
14267.0	2.0289247651037176e+18
14268.0	2.0285211740733437e+18
14269.0	2.028108743127859e+18
14270.0	2.0277130793320443e+18
14271.0	2.0273079984848893e+18
14272.0	2.026902033478451e+18
14273.0	2.0264820108427261e+18
14274.0	2.0250591452200963e+18
14275.0	2.025560490377216e+18
14276.0	2.025271663892889e+18
14277.0	2.0248764899917821e+18
14278.0	2.024485040632627e+18
14279.0	2.024081580464537e+18
14280.0	2.0236741373853693e+18
14281.0	2.0232775005110272e+18
14282.0	2.0228750704639997e+18
14283.0	2.02247241728e+18
14284.0	2.0220697523519483e+18
14285.0	2.0216668340879355e+18
14286.0	2.0212636977201147e+18
14287.0	2.020861254251315e+18
14288.0	2.0204540343091197e+18
14289.0	2.019214303743179e+18
14290.0	2.0196493721862136e+18
14291.0	2.0192514283667453e+18
14292.0	2.0187085545668603e+18
14293.0	2.0182926977138688e+18
14294.0	2.017772461411532e+18
14295.0	2.0174722096431101e+18
14296.0	2.0164101212733437e+18
14297.0	2.0166720656244728e+18
14298.0	2.0160626785517565e+18
14299.0	2.015865819732377e+18
14300.0	2.0154726943293437e+18
14301.0	2.0150744250318845e+18
14302.0	2.0146749511303165e+18
14303.0	2.0142414614233088e+18
14304.0	2.013857528256921e+18
14305.0	2.0134687632523261e+18
14306.0	2.013053683184435e+18
14307.0	2.0126552628920315e+18
14308.0	2.0122598507544573e+18
14309.0	2.011851411108659e+18
14310.0	2.0113957134008315e+18
14311.0	2.0110005009121277e+18
14312.0	2.010612571412889e+18
14313.0	2.010182765982515e+18
14314.0	2.0098511643082747e+18
14315.0	2.0094561296580603e+18
14316.0	2.0090133671837693e+18
14317.0	2.0086434094383101e+18
14318.0	2.0082598118162427e+18
14319.0	2.007830325152972e+18
14320.0	2.0072961100742653e+18
14321.0	2.0068934216581115e+18
14322.0	2.0064615006207992e+18
14323.0	2.0060771060809725e+18
14324.0	2.005695811970662e+18
14325.0	2.005286243218227e+18
14326.0	2.0048959883968507e+18
14327.0	2.004489546917478e+18
14328.0	2.0040903733280765e+18
14329.0	2.003696184249548e+18
14330.0	2.0032963982917627e+18
14331.0	2.0028963942301693e+18
14332.0	2.002496883418726e+18
14333.0	2.0020972736217088e+18
14334.0	2.0016976185262077e+18
14335.0	2.0012875280023547e+18
14336.0	2.000851914299801e+18
14337.0	2.0004960494157821e+18
14338.0	2.0000971811717117e+18
14339.0	1.999689546832281e+18
14340.0	1.9993008556474368e+18
14341.0	1.998900150298214e+18
14342.0	1.9985011545473021e+18
14343.0	1.9981019960573944e+18
14344.0	1.9977006246526968e+18
14345.0	1.9973063080673275e+18
14346.0	1.9969041615552512e+18
14347.0	1.9964925325606907e+18
14348.0	1.9961080121917437e+18
14349.0	1.9957114843693053e+18
14350.0	1.9952767632146427e+18
14351.0	1.994849541475532e+18
14352.0	1.9943543317463037e+18
14353.0	1.9939629310410747e+18
14354.0	1.9935604909277181e+18
14355.0	1.9931536451174397e+18
14356.0	1.9927578286489597e+18
14357.0	1.99237047460823e+18
14358.0	1.9919723831492605e+18
14359.0	1.9915589724143608e+18
14360.0	1.9911726703050747e+18
14361.0	1.9907761290608635e+18
14362.0	1.9903795676839933e+18
14363.0	1.989980417582694e+18
14364.0	1.9894696570519547e+18
14365.0	1.9891530122657787e+18
14366.0	1.9887678744952827e+18
14367.0	1.9883906757033981e+18
14368.0	1.9879928409358333e+18
14369.0	1.987595821540966e+18
14370.0	1.9871984548577277e+18
14371.0	1.9868012140036093e+18
14372.0	1.9863988527431677e+18
14373.0	1.9860062373675003e+18
14374.0	1.9856090183237632e+18
14375.0	1.9852108597559293e+18
14376.0	1.984814907392e+18
14377.0	1.984417257173811e+18
14378.0	1.9840184325505024e+18
14379.0	1.983623778743091e+18
14380.0	1.9832260094066683e+18
14381.0	1.9828187139670016e+18
14382.0	1.9824318162665472e+18
14383.0	1.9820334932819968e+18
14384.0	1.9816219448180733e+18
14385.0	1.9812434877349888e+18
14386.0	1.9808294780534781e+18
14387.0	1.980450250896179e+18
14388.0	1.9799804267724792e+18
14389.0	1.9795034706542587e+18
14390.0	1.979105364095795e+18
14391.0	1.97871050728407e+18
14392.0	1.9783129560514555e+18
14393.0	1.977917428151091e+18
14394.0	1.977484663219814e+18
14395.0	1.97711355791278e+18
14396.0	1.9767277893189627e+18
14397.0	1.976331570197299e+18
14398.0	1.9759346598543355e+18
14399.0	1.97553827128279e+18
14400.0	1.975125407485132e+18
14401.0	1.974737674279321e+18
14402.0	1.9743400609710075e+18
14403.0	1.9731873739571187e+18
14404.0	1.970177160563915e+18
14405.0	1.9717540024418268e+18
14406.0	1.972748903094681e+18
14407.0	1.9713446819921917e+18
14408.0	1.9719436638355448e+18
14409.0	1.9715601702322173e+18
14410.0	1.9711744016383992e+18
14411.0	1.9707872942227453e+18
14412.0	1.970390353680793e+18
14413.0	1.9699983489957883e+18
14414.0	1.9696007541424125e+18
14415.0	1.969206410713497e+18
14416.0	1.9688102670893053e+18
14417.0	1.9684074931093501e+18
14418.0	1.9680066669641728e+18
14419.0	1.9676237236535293e+18
14420.0	1.9672252597403643e+18
14421.0	1.9668328389804024e+18
14422.0	1.966428707723673e+18
14423.0	1.9659921259757565e+18
14424.0	1.9614537749626852e+18
14425.0	1.9652026438778875e+18
14426.0	1.964854741460582e+18
14427.0	1.9644659747782653e+18
14428.0	1.9640511111364605e+18
14429.0	1.9635879911882752e+18
14430.0	1.963128246815948e+18
14431.0	1.9625410157346816e+18
14432.0	1.9623297519976445e+18
14433.0	1.9611657554624507e+18
14434.0	1.9615293814865915e+18
14435.0	1.9611286761373693e+18
14436.0	1.9607616191725565e+18
14437.0	1.9603686145654781e+18
14438.0	1.959939339295129e+18
14439.0	1.9595709435084792e+18
14440.0	1.959185337653657e+18
14441.0	1.958785595316633e+18
14442.0	1.9583867438497787e+18
14443.0	1.9579567823912955e+18
14444.0	1.9576028166881277e+18
14445.0	1.9572082417336315e+18
14446.0	1.955455235732276e+18
14447.0	1.9563956674756605e+18
14448.0	1.9560311036051456e+18
14449.0	1.9556388590059515e+18
14450.0	1.9552395075780603e+18
14451.0	1.9548471237279741e+18
14452.0	1.9544547096788987e+18
14453.0	1.954051576666521e+18
14454.0	1.953668406863462e+18
14455.0	1.9532664700665848e+18
14456.0	1.9528774215270392e+18
14457.0	1.9524818030297083e+18
14458.0	1.9520890567917565e+18
14459.0	1.951691577701171e+18
14460.0	1.951293043323699e+18
14461.0	1.9508698816708603e+18
14462.0	1.9504576570851325e+18
14463.0	1.950101738514022e+18
14464.0	1.9497235649658877e+18
14465.0	1.9493158081527805e+18
14466.0	1.9489412786159616e+18
14467.0	1.9485267270303741e+18
14468.0	1.9481541788827645e+18
14469.0	1.947738417659903e+18
14470.0	1.9473461831270397e+18
14471.0	1.9469739805900792e+18
14472.0	1.9465846770368507e+18
14473.0	1.9461964086378493e+18
14474.0	1.945806272934707e+18
14475.0	1.9454106930249725e+18
14476.0	1.944972644948377e+18
14477.0	1.9446278765150203e+18
14478.0	1.944214073193267e+18
14479.0	1.943692182657433e+18
14480.0	1.9432828085207037e+18
14481.0	1.9429071867871227e+18
14482.0	1.9425101573259261e+18
14483.0	1.9421113863897088e+18
14484.0	1.9417149223206907e+18
14485.0	1.9412958912184315e+18
14486.0	1.9406636368003072e+18
14487.0	1.9405464613683197e+18
14488.0	1.940143809862041e+18
14489.0	1.9397458861752315e+18
14490.0	1.939365284963942e+18
14491.0	1.9389777111416832e+18
14492.0	1.9385867365777405e+18
14493.0	1.938189215544115e+18
14494.0	1.9377804185436155e+18
14495.0	1.9374051591979005e+18
14496.0	1.9368904107229181e+18
14497.0	1.9366211716382717e+18
14498.0	1.936230826219929e+18
14499.0	1.9358384625025024e+18
14500.0	1.935445149194649e+18
14501.0	1.9350225965547515e+18
14502.0	1.9344556810043387e+18
14503.0	1.9342472727494653e+18
14504.0	1.933869023703859e+18
14505.0	1.933457310823219e+18
14506.0	1.933041714017075e+18
14507.0	1.932468993549926e+18
14508.0	1.9322976646201341e+18
14509.0	1.931873155756851e+18
14510.0	1.9314783375327232e+18
14511.0	1.9310882672607224e+18
14512.0	1.9306821982355453e+18
14513.0	1.9303028989362173e+18
14514.0	1.9298806902292477e+18
14515.0	1.9295109170331645e+18
14516.0	1.926990554726401e+18
14517.0	1.928707714528051e+18
14518.0	1.928332074339532e+18
14519.0	1.927942270825267e+18
14520.0	1.9275508600537088e+18
14521.0	1.9271585852555261e+18
14522.0	1.9267644616081403e+18
14523.0	1.9263093477474296e+18
14524.0	1.925926802056806e+18
14525.0	1.9255853873889277e+18
14526.0	1.9251969596063741e+18
14527.0	1.9247854732181496e+18
14528.0	1.9242977998143483e+18
14529.0	1.9240132330651645e+18
14530.0	1.9236153026674683e+18
14531.0	1.923237904226713e+18
14532.0	1.9227818256760832e+18
14533.0	1.922455381318041e+18
14534.0	1.9220668864266235e+18
14535.0	1.9215268379099133e+18
14536.0	1.9211342661550077e+18
14537.0	1.9207349734473725e+18
14538.0	1.920354305127219e+18
14539.0	1.919962370906521e+18
14540.0	1.9195701061746683e+18
14541.0	1.9191544707809275e+18
14542.0	1.9187821055049725e+18
14543.0	1.9183484715139072e+18
14544.0	1.9179959989829632e+18
14545.0	1.9175884736954365e+18
14546.0	1.9123052461686758e+18
14547.0	1.912272886274454e+18
14548.0	1.9164028462956541e+18
14549.0	1.9159234138603517e+18
14550.0	1.9156372834746365e+18
14551.0	1.915257261077299e+18
14552.0	1.9148649544024061e+18
14553.0	1.9144677705908221e+18
14554.0	1.91408232244183e+18
14555.0	1.9136898446393341e+18
14556.0	1.9132964474454008e+18
14557.0	1.9129042884100096e+18
14558.0	1.9125031233650688e+18
14559.0	1.910542244302026e+18
14560.0	1.9117154062303227e+18
14561.0	1.911329028623564e+18
14562.0	1.9109184230391803e+18
14563.0	1.9105486901084155e+18
14564.0	1.9101472767606781e+18
14565.0	1.9097687928340477e+18
14566.0	1.9093772126126075e+18
14567.0	1.9089833825665021e+18
14568.0	1.9085804945014781e+18
14569.0	1.9081957493178365e+18
14570.0	1.9073665823932416e+18
14571.0	1.907410305495859e+18
14572.0	1.9069861086887933e+18
14573.0	1.9065817190629373e+18
14574.0	1.9062120129757181e+18
14575.0	1.9058384128966653e+18
14576.0	1.9054452287733755e+18
14577.0	1.9050569435971581e+18
14578.0	1.9046704737157117e+18
14579.0	1.9042803698892797e+18
14580.0	1.903888313194905e+18
14581.0	1.9034914934489088e+18
14582.0	1.9030996431142912e+18
14583.0	1.9027109015977981e+18
14584.0	1.9023034920730621e+18
14585.0	1.90192563561431e+18
14586.0	1.9015310724038653e+18
14587.0	1.9011409786437627e+18
14588.0	1.9007494856638461e+18
14589.0	1.9003617776238587e+18
14590.0	1.899974173602611e+18
14591.0	1.8995848532721656e+18
14592.0	1.8991905467531261e+18
14593.0	1.8986999826350075e+18
14594.0	1.8984208231825403e+18
14595.0	1.8980261056217083e+18
14596.0	1.89754195878871e+18
14597.0	1.897134205331046e+18
14598.0	1.8968570624999421e+18
14599.0	1.8964699047526392e+18
14600.0	1.8959542553411581e+18
14601.0	1.895566059084185e+18
14602.0	1.8951750039896061e+18
14603.0	1.8947874083569661e+18
14604.0	1.8943576482250747e+18
14605.0	1.893994978502246e+18
14606.0	1.8935567425208315e+18
14607.0	1.8932271205580797e+18
14608.0	1.8928425012035581e+18
14609.0	1.8924503572676603e+18
14610.0	1.8920537975685115e+18
14611.0	1.8916711008829435e+18
14612.0	1.8912901540610045e+18
14613.0	1.8909034794975232e+18
14614.0	1.8905122532753403e+18
14615.0	1.8901262028242941e+18
14616.0	1.8897384410972155e+18
14617.0	1.8893489748049912e+18
14618.0	1.8889529721094144e+18
14619.0	1.888470454344089e+18
14620.0	1.887906932824473e+18
14621.0	1.8877902439317496e+18
14622.0	1.8874000495083515e+18
14623.0	1.8870135611719677e+18
14624.0	1.8865696310034432e+18
14625.0	1.8862303554306045e+18
14626.0	1.8858438687719421e+18
14627.0	1.88545124836311e+18
14628.0	1.8850658320908283e+18
14629.0	1.8846756041129981e+18
14630.0	1.88428359607255e+18
14631.0	1.8838940777709563e+18
14632.0	1.8831699781615616e+18
14633.0	1.8830597048762365e+18
14634.0	1.88271979176919e+18
14635.0	1.8823067199340536e+18
14636.0	1.881864737600307e+18
14637.0	1.881553562186547e+18
14638.0	1.8811561904701437e+18
14639.0	1.8807565253083133e+18
14640.0	1.8803661211697147e+18
14641.0	1.8786783399510003e+18
14642.0	1.8795820279136253e+18
14643.0	1.8792052183531517e+18
14644.0	1.87880319263703e+18
14645.0	1.8784035895508987e+18
14646.0	1.87802040968151e+18
14647.0	1.8776205901692925e+18
14648.0	1.8772427152556027e+18
