# Flux units: erg / (cm m2 s)
# Wavelength units: Angstrom
wave	flux
14000.0	2.1450484552302587e+18
14001.0	2.1445513815523325e+18
14002.0	2.1441215106908155e+18
14003.0	2.1436554899619837e+18
14004.0	2.1431889239736315e+18
14005.0	2.1427223462412283e+18
14006.0	2.1422511983951867e+18
14007.0	2.1417204746551293e+18
14008.0	2.141201144322457e+18
14009.0	2.1407923540328443e+18
14010.0	2.1403187667795963e+18
14011.0	2.1395274576429056e+18
14012.0	2.139394820328652e+18
14013.0	2.1389293079494656e+18
14014.0	2.1384601616252925e+18
14015.0	2.1379966943887352e+18
14016.0	2.1375326533713915e+18
14017.0	2.1370673741955067e+18
14018.0	2.1366019675127805e+18
14019.0	2.1361370893123581e+18
14020.0	2.13567168095191e+18
14021.0	2.1352063967428605e+18
14022.0	2.1347417098027005e+18
14023.0	2.1342696157216765e+18
14024.0	2.1337897235906555e+18
14025.0	2.1332855984488443e+18
14026.0	2.132820169955737e+18
14027.0	2.1323570734956536e+18
14028.0	2.1318929234264061e+18
14029.0	2.1314286005518333e+18
14030.0	2.1307572988411901e+18
14031.0	2.130486298148864e+18
14032.0	2.1300358634536957e+18
14033.0	2.129547893093171e+18
14034.0	2.129109798040371e+18
14035.0	2.1286469968592896e+18
14036.0	2.1281838332903421e+18
14037.0	2.1277207586406395e+18
14038.0	2.1272577796210688e+18
14039.0	2.1267949130088445e+18
14040.0	2.1263267850616827e+18
14041.0	2.1258670675329021e+18
14042.0	2.125400107279974e+18
14043.0	2.1249228055511037e+18
14044.0	2.1244355868098555e+18
14045.0	2.1239556762238973e+18
14046.0	2.1234921351675901e+18
14047.0	2.1230289564991488e+18
14048.0	2.1225701919162365e+18
14049.0	2.12210926307246e+18
14050.0	2.121647533955481e+18
14051.0	2.1211807918063608e+18
14052.0	2.1207243106025467e+18
14053.0	2.120262945551155e+18
14054.0	2.1198017667268605e+18
14055.0	2.119340611390668e+18
14056.0	2.1188795399405563e+18
14057.0	2.118418646328934e+18
14058.0	2.1179578332479488e+18
14059.0	2.117497144318361e+18
14060.0	2.1170365627629565e+18
14061.0	2.1165724747694077e+18
14062.0	2.1161157351964667e+18
14063.0	2.1156461459537915e+18
14064.0	2.1151640174198781e+18
14065.0	2.1147307139399675e+18
14066.0	2.1142673993760765e+18
14067.0	2.1137503155126267e+18
14068.0	2.1132939920146427e+18
14069.0	2.1128334591131643e+18
14070.0	2.1123745754120187e+18
14071.0	2.1119137019330552e+18
14072.0	2.1114558735187968e+18
14073.0	2.11099663246295e+18
14074.0	2.110537554146099e+18
14075.0	2.1100679665811453e+18
14076.0	2.1096156041838587e+18
14077.0	2.109112933626675e+18
14078.0	2.1086984860598267e+18
14079.0	2.1082397801971704e+18
14080.0	2.1077852317286397e+18
14081.0	2.107326915097395e+18
14082.0	2.106864219612774e+18
14083.0	2.106409729864499e+18
14084.0	2.1059524550983675e+18
14085.0	2.105337623819059e+18
14086.0	2.1050327230840827e+18
14087.0	2.1045793104330747e+18
14088.0	2.1041150429233152e+18
14089.0	2.10366423409623e+18
14090.0	2.103206323473612e+18
14091.0	2.1027334693847037e+18
14092.0	2.1022318474035197e+18
14093.0	2.1017747336986614e+18
14094.0	2.101317718979379e+18
14095.0	2.1008607680135168e+18
14096.0	2.1003925041709053e+18
14097.0	2.0999388297953275e+18
14098.0	2.0994859338825728e+18
14099.0	2.0990343365263355e+18
14100.0	2.0985715923877883e+18
14101.0	2.0981219428663293e+18
14102.0	2.097565182564761e+18
14103.0	2.0969789514055677e+18
14104.0	2.0965307396915192e+18
14105.0	2.0960744531034112e+18
14106.0	2.0956192939442179e+18
14107.0	2.0951622507036664e+18
14108.0	2.09470125810647e+18
14109.0	2.094250224464691e+18
14110.0	2.0937924279271421e+18
14111.0	2.0933314521071616e+18
14112.0	2.0928830273224701e+18
14113.0	2.0924329785032707e+18
14114.0	2.0919702377201661e+18
14115.0	2.0915227692367867e+18
14116.0	2.0910526347345915e+18
14117.0	2.090263874057011e+18
14118.0	2.0901600096681981e+18
14119.0	2.089641103799091e+18
14120.0	2.08918524502999e+18
14121.0	2.0887271951564797e+18
14122.0	2.0882761128607747e+18
14123.0	2.0878205627924477e+18
14124.0	2.0873664857636861e+18
14125.0	2.0866523383988214e+18
14126.0	2.0864673662369792e+18
14127.0	2.0860142807416827e+18
14128.0	2.0855602641108992e+18
14129.0	2.0851005046390784e+18
14130.0	2.084641874273894e+18
14131.0	2.0842017357561848e+18
14132.0	2.0837453082394621e+18
14133.0	2.0829817217744886e+18
14134.0	2.0828429557432315e+18
14135.0	2.0823818893262843e+18
14136.0	2.0819250105024504e+18
14137.0	2.0814851135766525e+18
14138.0	2.0810294846554112e+18
14139.0	2.0805814121922557e+18
14140.0	2.0801209984090112e+18
14141.0	2.0796748519702525e+18
14142.0	2.079194317271859e+18
14143.0	2.0787669495709693e+18
14144.0	2.078322912028262e+18
14145.0	2.0778714874773501e+18
14146.0	2.0774191687008253e+18
14147.0	2.0769682374000635e+18
14148.0	2.0765172809334781e+18
14149.0	2.0760668848259064e+18
14150.0	2.0755959785717755e+18
14151.0	2.0751032300601344e+18
14152.0	2.0746538456186875e+18
14153.0	2.074203016658944e+18
14154.0	2.0737370261291005e+18
14155.0	2.0732822327132155e+18
14156.0	2.0728482497560573e+18
14157.0	2.0724012258689021e+18
14158.0	2.071948546382233e+18
14159.0	2.0715009453588477e+18
14160.0	2.0710467726999547e+18
14161.0	2.0705666943418365e+18
14162.0	2.0700891896086528e+18
14163.0	2.0697006376747005e+18
14164.0	2.069234053231411e+18
14165.0	2.0687120133783552e+18
14166.0	2.0683508351500283e+18
14167.0	2.0678953773563901e+18
14168.0	2.067453272548966e+18
14169.0	2.0670060540461048e+18
14170.0	2.0665549902053373e+18
14171.0	2.0661068372115453e+18
14172.0	2.0656596539408384e+18
14173.0	2.0651642546290683e+18
14174.0	2.0647592912224248e+18
14175.0	2.0643143040892925e+18
14176.0	2.0638660420435963e+18
14177.0	2.0634178823389176e+18
14178.0	2.062968476087091e+18
14179.0	2.0625125351096315e+18
14180.0	2.0620741514887163e+18
14181.0	2.0616264397357053e+18
14182.0	2.0611783773388792e+18
14183.0	2.060731309830963e+18
14184.0	2.060280881846681e+18
14185.0	2.0598364601057275e+18
14186.0	2.0593023909887997e+18
14187.0	2.058868839206092e+18
14188.0	2.0584354166079483e+18
14189.0	2.0579874833956864e+18
14190.0	2.0575413872885755e+18
14191.0	2.057094460709273e+18
14192.0	2.056643571351552e+18
14193.0	2.056190690538291e+18
14194.0	2.0557543067615227e+18
14195.0	2.055309051192934e+18
14196.0	2.0548625859870715e+18
14197.0	2.0544163858612221e+18
14198.0	2.053967638953984e+18
14199.0	2.0535223431200768e+18
14200.0	2.0530395451752443e+18
14201.0	2.0526306273787901e+18
14202.0	2.0521870142996475e+18
14203.0	2.0517308535406584e+18
14204.0	2.0512941912621053e+18
14205.0	2.050848942404403e+18
14206.0	2.0503320162467837e+18
14207.0	2.0499599865151483e+18
14208.0	2.0495151554101245e+18
14209.0	2.0489954308128765e+18
14210.0	2.048570567950336e+18
14211.0	2.0481776136749053e+18
14212.0	2.0477354635689984e+18
14213.0	2.0472909025771517e+18
14214.0	2.0468466066653184e+18
14215.0	2.0463961652592637e+18
14216.0	2.0459586708307968e+18
14217.0	2.045514509136691e+18
14218.0	2.0450632590688253e+18
14219.0	2.0446265431031805e+18
14220.0	2.0441828260052987e+18
14221.0	2.0437388270501888e+18
14222.0	2.0432865502167035e+18
14223.0	2.0428517200101368e+18
14224.0	2.0424084911292416e+18
14225.0	2.0418517845147643e+18
14226.0	2.0415214042218493e+18
14227.0	2.0410317175521277e+18
14228.0	2.040325567886131e+18
14229.0	2.0400825784336381e+18
14230.0	2.039692900748492e+18
14231.0	2.0392446387027965e+18
14232.0	2.0388072415821816e+18
14233.0	2.0383612696264701e+18
14234.0	2.037922193106534e+18
14235.0	2.037478323335987e+18
14236.0	2.0370372100620283e+18
14237.0	2.036594368734822e+18
14238.0	2.036152720267673e+18
14239.0	2.0357076828028925e+18
14240.0	2.0344366526627837e+18
14241.0	2.0347377869127675e+18
14242.0	2.03424862872535e+18
14243.0	2.0337167758786555e+18
14244.0	2.0333657227001853e+18
14245.0	2.032915606772121e+18
14246.0	2.0324684822216701e+18
14247.0	2.0320386415591421e+18
14248.0	2.03159229211607e+18
14249.0	2.0311582319837176e+18
14250.0	2.0307171338092544e+18
14251.0	2.030277760332595e+18
14252.0	2.029836960792576e+18
14253.0	2.0293958340968443e+18
14254.0	2.0289543500464125e+18
14255.0	2.0284973839810555e+18
14256.0	2.0279539951206397e+18
14257.0	2.02762875872215e+18
14258.0	2.027194460353331e+18
14259.0	2.026742524097331e+18
14260.0	2.026309385034137e+18
14261.0	2.0258621665312763e+18
14262.0	2.025451186814976e+18
14263.0	2.0248339714932733e+18
14264.0	2.024533090579251e+18
14265.0	2.0241299441451003e+18
14266.0	2.0236935570128893e+18
14267.0	2.0232542741331965e+18
14268.0	2.022815179158323e+18
14269.0	2.0223746698641405e+18
14270.0	2.0219370965827581e+18
14271.0	2.0214967886151675e+18
14272.0	2.0210592388218877e+18
14273.0	2.0206195516112893e+18
14274.0	2.0199114222338045e+18
14275.0	2.019713253113856e+18
14276.0	2.0192350286381056e+18
14277.0	2.0187992538742781e+18
14278.0	2.0183721948741627e+18
14279.0	2.0179333448466427e+18
14280.0	2.0174917534220283e+18
14281.0	2.017057847640064e+18
14282.0	2.016620034444492e+18
14283.0	2.016182152462336e+18
14284.0	2.0157443526885373e+18
14285.0	2.0153065713696765e+18
14286.0	2.014868617245491e+18
14287.0	2.0144315086929915e+18
14288.0	2.01399383139287e+18
14289.0	2.0130229456470006e+18
14290.0	2.0131174332497915e+18
14291.0	2.012681780959641e+18
14292.0	2.0122453200076797e+18
14293.0	2.011807043760947e+18
14294.0	2.01129097995223e+18
14295.0	2.0109264177594365e+18
14296.0	2.0100653741244419e+18
14297.0	2.0100603459928061e+18
14298.0	2.0095266325528573e+18
14299.0	2.0091799884267515e+18
14300.0	2.0087471949742075e+18
14301.0	2.008312322824601e+18
14302.0	2.0078781603512315e+18
14303.0	2.0074219945590781e+18
14304.0	2.006997333023129e+18
14305.0	2.0065696935313403e+18
14306.0	2.0061141585625088e+18
14307.0	2.0056916394770427e+18
14308.0	2.005262699751014e+18
14309.0	2.0048243966607355e+18
14310.0	2.004292704875315e+18
14311.0	2.0039198362828797e+18
14312.0	2.0034962535219197e+18
14313.0	2.0030466459435005e+18
14314.0	2.0026497674772477e+18
14315.0	2.00221678108672e+18
14316.0	2.0017519347630075e+18
14317.0	2.0013385575825405e+18
14318.0	2.0009133205880827e+18
14319.0	2.0004791648255997e+18
14320.0	2.0000444386377725e+18
14321.0	1.9996103785054205e+18
14322.0	1.999152479626854e+18
14323.0	1.998730364872294e+18
14324.0	1.9983078357204987e+18
14325.0	1.997867564662784e+18
14326.0	1.9974398815502333e+18
14327.0	1.9970019106488317e+18
14328.0	1.996568516571955e+18
14329.0	1.9961385601466363e+18
14330.0	1.9957049697763325e+18
14331.0	1.995234085332582e+18
14332.0	1.994784024769331e+18
14333.0	1.99435060552663e+18
14334.0	1.993917228226969e+18
14335.0	1.9934760461664256e+18
14336.0	1.993034958058291e+18
14337.0	1.9926172221571064e+18
14338.0	1.9921833079865336e+18
14339.0	1.9917444428595197e+18
14340.0	1.9913185565868027e+18
14341.0	1.9908849980932093e+18
14342.0	1.990453199529574e+18
14343.0	1.990016236938854e+18
14344.0	1.9895834887847933e+18
14345.0	1.9891556731322365e+18
14346.0	1.988721577767731e+18
14347.0	1.9882823468974077e+18
14348.0	1.987858463824281e+18
14349.0	1.9874267843788792e+18
14350.0	1.9869852533522424e+18
14351.0	1.9865490658689024e+18
14352.0	1.9861260015239163e+18
14353.0	1.9856359709212672e+18
14354.0	1.9851848131280893e+18
14355.0	1.9847512881889277e+18
14356.0	1.984320662352691e+18
14357.0	1.983891979318067e+18
14358.0	1.9834604659671037e+18
14359.0	1.9830196546830333e+18
14360.0	1.9825969862803453e+18
14361.0	1.9821665349271547e+18
14362.0	1.981735821849395e+18
14363.0	1.9813046289432573e+18
14364.0	1.9808424401305592e+18
14365.0	1.9804364164038656e+18
14366.0	1.9800070337593344e+18
14367.0	1.9795816877129728e+18
14368.0	1.979150763242291e+18
14369.0	1.978720558514176e+18
14370.0	1.978290140715417e+18
14371.0	1.9778598286131192e+18
14372.0	1.9774263942709243e+18
14373.0	1.9769991540768765e+18
14374.0	1.9765692077178875e+18
14375.0	1.97613915734016e+18
14376.0	1.9757091774267387e+18
14377.0	1.9752789274001405e+18
14378.0	1.9748479089770496e+18
14379.0	1.9744197057708027e+18
14380.0	1.9739892728725501e+18
14381.0	1.9735533991231483e+18
14382.0	1.9731299690348541e+18
14383.0	1.9726952495579133e+18
14384.0	1.9722599764328443e+18
14385.0	1.9718428713549821e+18
14386.0	1.9714044961226747e+18
14387.0	1.9709844265107456e+18
14388.0	1.970554171450982e+18
14389.0	1.9701263188885501e+18
14390.0	1.969696489970073e+18
14391.0	1.9692686441185277e+18
14392.0	1.968838491399782e+18
14393.0	1.9684114877644797e+18
14394.0	1.9679602142085117e+18
14395.0	1.967508875221401e+18
14396.0	1.9670741792325632e+18
14397.0	1.9666457478561787e+18
14398.0	1.9662162444156925e+18
14399.0	1.9657886804213755e+18
14400.0	1.9653497616072701e+18
14401.0	1.964928116614758e+18
14402.0	1.964502299128627e+18
14403.0	1.962524897863268e+18
14404.0	1.9592764933013494e+18
14405.0	1.9623326594891756e+18
14406.0	1.9627900651175933e+18
14407.0	1.960215732184679e+18
14408.0	1.9619181397803003e+18
14409.0	1.961497531619737e+18
14410.0	1.961078178394931e+18
14411.0	1.9606529749549053e+18
14412.0	1.9602149201674235e+18
14413.0	1.9597846063874043e+18
14414.0	1.9593556817608696e+18
14415.0	1.9589291042668544e+18
14416.0	1.9585013624340472e+18
14417.0	1.9580687870853115e+18
14418.0	1.9576351967150077e+18
14419.0	1.9572199455195136e+18
14420.0	1.9567907155476475e+18
14421.0	1.956366236883353e+18
14422.0	1.955938659467264e+18
14423.0	1.955502763907481e+18
14424.0	1.946366709124296e+18
14425.0	1.9546487314710525e+18
14426.0	1.9542321280319483e+18
14427.0	1.953806513550131e+18
14428.0	1.9533666585673725e+18
14429.0	1.9529506037432315e+18
14430.0	1.9525275662417915e+18
14431.0	1.9520486689996797e+18
14432.0	1.9516670141792248e+18
14433.0	1.9496366757642227e+18
14434.0	1.9508131260268541e+18
14435.0	1.9503843591061501e+18
14436.0	1.9499705943719936e+18
14437.0	1.9495446376349693e+18
14438.0	1.9490716828827645e+18
14439.0	1.9486792419901437e+18
14440.0	1.9482666533388283e+18
14441.0	1.9478374216892416e+18
14442.0	1.9474094080655355e+18
14443.0	1.9469607836319736e+18
14444.0	1.9465614842134528e+18
14445.0	1.946138158143897e+18
14446.0	1.943745014110618e+18
14447.0	1.9452757421326336e+18
14448.0	1.944862770960793e+18
14449.0	1.944437703416217e+18
14450.0	1.9440090656800765e+18
14451.0	1.9435862378938363e+18
14452.0	1.9431595630919677e+18
14453.0	1.9427069540696061e+18
14454.0	1.9423116090408955e+18
14455.0	1.9418837313126392e+18
14456.0	1.9414548805058555e+18
14457.0	1.9410269541236733e+18
14458.0	1.9406097987141627e+18
14459.0	1.9401831541112832e+18
14460.0	1.9397594639761403e+18
14461.0	1.9393196610027515e+18
14462.0	1.938879274182246e+18
14463.0	1.9384817397268477e+18
14464.0	1.9380627287572477e+18
14465.0	1.9376271754526715e+18
14466.0	1.9372155045150715e+18
14467.0	1.9367605366161403e+18
14468.0	1.936363768879513e+18
14469.0	1.9359280796794875e+18
14470.0	1.9355016783462397e+18
14471.0	1.935087250912051e+18
14472.0	1.9346563952279547e+18
14473.0	1.9341985013825533e+18
14474.0	1.9337745696555005e+18
14475.0	1.9333477438586877e+18
14476.0	1.932823160579686e+18
14477.0	1.9325022896127997e+18
14478.0	1.9320782924546043e+18
14479.0	1.9316539765293053e+18
14480.0	1.9312203492491261e+18
14481.0	1.9308073260679165e+18
14482.0	1.9303812435017728e+18
14483.0	1.9299534295269373e+18
14484.0	1.929529293117849e+18
14485.0	1.929088909652787e+18
14486.0	1.9285074650333181e+18
14487.0	1.928264131647897e+18
14488.0	1.9278346466623488e+18
14489.0	1.9274128456417277e+18
14490.0	1.926991663700377e+18
14491.0	1.9265694197612541e+18
14492.0	1.9261468973203453e+18
14493.0	1.9257201923194875e+18
14494.0	1.9252868166975488e+18
14495.0	1.9248759292559355e+18
14496.0	1.92437027906519e+18
14497.0	1.924028354369945e+18
14498.0	1.9236054309535736e+18
14499.0	1.923182427006566e+18
14500.0	1.9227588006248443e+18
14501.0	1.922284072520908e+18
14502.0	1.921748659548979e+18
14503.0	1.921477668922982e+18
14504.0	1.9210618808565755e+18
14505.0	1.9205928905605115e+18
14506.0	1.9201183637831675e+18
14507.0	1.9196473434439675e+18
14508.0	1.919373123203891e+18
14509.0	1.9189501427449853e+18
14510.0	1.9185270347792381e+18
14511.0	1.9181038446051328e+18
14512.0	1.9176707877502968e+18
14513.0	1.9172575649202173e+18
14514.0	1.916811190311321e+18
14515.0	1.9164108876152827e+18
14516.0	1.914653625234228e+18
14517.0	1.9155643025850365e+18
14518.0	1.9151425518960635e+18
14519.0	1.9147197861855232e+18
14520.0	1.914296889612697e+18
14521.0	1.913873407515033e+18
14522.0	1.9134507810553853e+18
14523.0	1.9129170273501181e+18
14524.0	1.9124904263679992e+18
14525.0	1.9121788986327037e+18
14526.0	1.9117596578152445e+18
14527.0	1.9113205057978365e+18
14528.0	1.9108398050050043e+18
14529.0	1.9104835827662845e+18
14530.0	1.910056548931993e+18
14531.0	1.9096428915720195e+18
14532.0	1.909069270168371e+18
14533.0	1.908797293042073e+18
14534.0	1.9083759282290688e+18
14535.0	1.9079458946285563e+18
14536.0	1.9075296921649147e+18
14537.0	1.9070991669919741e+18
14538.0	1.90668382184407e+18
14539.0	1.906260955470233e+18
14540.0	1.9058379062247424e+18
14541.0	1.9054015258034168e+18
14542.0	1.9049913933365243e+18
14543.0	1.9044922594164733e+18
14544.0	1.904144246269542e+18
14545.0	1.903715907167846e+18
14546.0	1.8934371377479631e+18
14547.0	1.8939402831003584e+18
14548.0	1.9024418722283512e+18
14549.0	1.9019550276190203e+18
14550.0	1.9016013035077627e+18
14551.0	1.9011822522728443e+18
14552.0	1.9007578021298173e+18
14553.0	1.9003314259623933e+18
14554.0	1.8999123243958272e+18
14555.0	1.899488473199411e+18
14556.0	1.8990626439692283e+18
14557.0	1.898641935145369e+18
14558.0	1.8982178809446397e+18
14559.0	1.8968122019020782e+18
14560.0	1.8973671603306493e+18
14561.0	1.8969438711709693e+18
14562.0	1.8965093312102397e+18
14563.0	1.8960619097030653e+18
14564.0	1.8956271013068792e+18
14565.0	1.8952084443365373e+18
14566.0	1.8947846585712637e+18
14567.0	1.8943603208355835e+18
14568.0	1.8939268059627517e+18
14569.0	1.8935125429452797e+18
14570.0	1.8928128927727608e+18
14571.0	1.8926627232677883e+18
14572.0	1.892215776555827e+18
14573.0	1.8917873586012152e+18
14574.0	1.8913796940627965e+18
14575.0	1.8909654964764664e+18
14576.0	1.8905418885496827e+18
14577.0	1.8901140225654784e+18
14578.0	1.889692662785638e+18
14579.0	1.8892691521667072e+18
14580.0	1.88884453425152e+18
14581.0	1.8884162840690683e+18
14582.0	1.8879945468018683e+18
14583.0	1.8875697158160381e+18
14584.0	1.8871374105804797e+18
14585.0	1.8867191763959805e+18
14586.0	1.8862917248090112e+18
14587.0	1.885866304942899e+18
14588.0	1.8854429318971387e+18
14589.0	1.8850281085206525e+18
14590.0	1.8846137112854525e+18
14591.0	1.8841985456537597e+18
14592.0	1.883780848340172e+18
14593.0	1.8832979044335613e+18
14594.0	1.8829544999878653e+18
14595.0	1.8825359705243645e+18
14596.0	1.882090525373235e+18
14597.0	1.881677487092531e+18
14598.0	1.8812905608708093e+18
14599.0	1.8808787037061123e+18
14600.0	1.880462476076646e+18
14601.0	1.8800471628054528e+18
14602.0	1.8796288011141115e+18
14603.0	1.8792150699343864e+18
14604.0	1.8787728376201216e+18
14605.0	1.8783770849050621e+18
14606.0	1.8779303697186813e+18
14607.0	1.8775447873519616e+18
14608.0	1.8771333261295608e+18
14609.0	1.8767084179685373e+18
14610.0	1.876292012500582e+18
14611.0	1.8758802375442427e+18
14612.0	1.8754669425721341e+18
14613.0	1.8750504146305021e+18
14614.0	1.8746312157560832e+18
14615.0	1.8742151877754875e+18
14616.0	1.8737984182419453e+18
14617.0	1.873380365251379e+18
14618.0	1.8729585021550587e+18
14619.0	1.872522406946406e+18
14620.0	1.8720515778674683e+18
14621.0	1.8717067356143616e+18
14622.0	1.8712877833650179e+18
14623.0	1.8708684603391997e+18
14624.0	1.870412734110105e+18
14625.0	1.8700272876388347e+18
14626.0	1.869606662701056e+18
14627.0	1.8691826823200765e+18
14628.0	1.8687696239067128e+18
14629.0	1.8683492976033787e+18
14630.0	1.8679280267427837e+18
14631.0	1.8675072575209472e+18
14632.0	1.8663956142882819e+18
14633.0	1.866570635883315e+18
14634.0	1.8662423560978427e+18
14635.0	1.8657957264752635e+18
14636.0	1.8653355123408893e+18
14637.0	1.8649804879953915e+18
14638.0	1.8645566636425213e+18
14639.0	1.8641289167765507e+18
14640.0	1.8637087314018304e+18
14641.0	1.8605632517046257e+18
14642.0	1.8628615944011776e+18
14643.0	1.8624422931857408e+18
14644.0	1.862011598562918e+18
14645.0	1.8615802479509504e+18
14646.0	1.861163028788019e+18
14647.0	1.8607366945636347e+18
