# Flux units: erg / (cm m2 s)
# Wavelength units: Angstrom
wave	flux
14000.0	1.6182217067724797e+18
14001.0	1.6178321884708861e+18
14002.0	1.6175030362701821e+18
14003.0	1.6171424888651776e+18
14004.0	1.6167807536332797e+18
14005.0	1.616421607125811e+18
14006.0	1.6160587176214525e+18
14007.0	1.6156978145394688e+18
14008.0	1.6153084942090237e+18
14009.0	1.6149804325273597e+18
14010.0	1.6146161740021757e+18
14011.0	1.6140586822139904e+18
14012.0	1.6139001274564603e+18
14013.0	1.6135408064659453e+18
14014.0	1.613179301081907e+18
14015.0	1.6128207837200381e+18
14016.0	1.6124611741614077e+18
14017.0	1.612102715519795e+18
14018.0	1.6117430891839485e+18
14019.0	1.6113842346000381e+18
14020.0	1.611024871666483e+18
14021.0	1.6106656916045821e+18
14022.0	1.6103004667117568e+18
14023.0	1.6099041016283133e+18
14024.0	1.609571194686668e+18
14025.0	1.609229701165875e+18
14026.0	1.6088718599258112e+18
14027.0	1.6085140673396733e+18
14028.0	1.6081537430716413e+18
14029.0	1.6077960595374075e+18
14030.0	1.6055831615242253e+18
14031.0	1.6070716411609085e+18
14032.0	1.6067197306667005e+18
14033.0	1.606325258053222e+18
14034.0	1.6060031086624765e+18
14035.0	1.6056464401498107e+18
14036.0	1.6052846260649981e+18
14037.0	1.6049271723786237e+18
14038.0	1.6045740455362557e+18
14039.0	1.6042154090561533e+18
14040.0	1.6038552643043325e+18
14041.0	1.603501048620646e+18
14042.0	1.6031422544347133e+18
14043.0	1.6027745901346813e+18
14044.0	1.6024277933359101e+18
14045.0	1.6020738242772987e+18
14046.0	1.6017166709030912e+18
14047.0	1.601352395600691e+18
14048.0	1.6010013256450048e+18
14049.0	1.6006488665358339e+18
14050.0	1.6002904263491581e+18
14051.0	1.5999298487451648e+18
14052.0	1.5995532522553341e+18
14053.0	1.5991938809331712e+18
14054.0	1.5988381116792824e+18
14055.0	1.5984817820663805e+18
14056.0	1.59812662853632e+18
14057.0	1.5977710136328192e+18
14058.0	1.5974155413356541e+18
14059.0	1.5970580608057341e+18
14060.0	1.596704804778803e+18
14061.0	1.5963472957276152e+18
14062.0	1.5959944675196925e+18
14063.0	1.595634406653952e+18
14064.0	1.5949733893767165e+18
14065.0	1.5949269030666235e+18
14066.0	1.5945741453230075e+18
14067.0	1.5941771594825725e+18
14068.0	1.5938650495778813e+18
14069.0	1.5935063359225853e+18
14070.0	1.5931527879720952e+18
14071.0	1.5927979213324285e+18
14072.0	1.5924448733429757e+18
14073.0	1.5920907784552448e+18
14074.0	1.5917367909416957e+18
14075.0	1.5913751714725885e+18
14076.0	1.590979588207411e+18
14077.0	1.59022929936384e+18
14078.0	1.5902909354999803e+18
14079.0	1.5899648803733504e+18
14080.0	1.5896146811551744e+18
14081.0	1.5892612607115264e+18
14082.0	1.5889028758896637e+18
14083.0	1.588554055758643e+18
14084.0	1.588201705701376e+18
14085.0	1.587506107226521e+18
14086.0	1.5874635081973752e+18
14087.0	1.5871431153811453e+18
14088.0	1.5867818213900285e+18
14089.0	1.5863996900966397e+18
14090.0	1.5860772974362621e+18
14091.0	1.5857327957606397e+18
14092.0	1.5853789642751997e+18
14093.0	1.585024792212275e+18
14094.0	1.5846727240122365e+18
14095.0	1.5843207363428347e+18
14096.0	1.583882698332569e+18
14097.0	1.5835928954142715e+18
14098.0	1.5832262830456835e+18
14099.0	1.582913346024243e+18
14100.0	1.5825546357243901e+18
14101.0	1.582210347119411e+18
14102.0	1.581858242009497e+18
14103.0	1.5815028804419584e+18
14104.0	1.5811554528198653e+18
14105.0	1.580804433195827e+18
14106.0	1.5804541467361277e+18
14107.0	1.5801007078375421e+18
14108.0	1.5797441198555133e+18
14109.0	1.5793997909852157e+18
14110.0	1.5790437398740987e+18
14111.0	1.578687190479667e+18
14112.0	1.578344775889715e+18
14113.0	1.5779734843555837e+18
14114.0	1.5776433708204032e+18
14115.0	1.577293755449344e+18
14116.0	1.576837520870604e+18
14117.0	1.5736091113947151e+18
14118.0	1.5762431980601341e+18
14119.0	1.5758500860788733e+18
14120.0	1.575499824784998e+18
14121.0	1.575188716480102e+18
14122.0	1.5747700645429243e+18
14123.0	1.574424551201177e+18
14124.0	1.5740488908799995e+18
14125.0	1.5736502927491067e+18
14126.0	1.5734294441885693e+18
14127.0	1.573098513602969e+18
14128.0	1.5727501397458941e+18
14129.0	1.5723981352992765e+18
14130.0	1.5720463372124157e+18
14131.0	1.5717005973782525e+18
14132.0	1.5713534012817405e+18
14133.0	1.5708344501141494e+18
14134.0	1.570658554426163e+18
14135.0	1.5702977150975997e+18
14136.0	1.5697682278383613e+18
14137.0	1.569611644403712e+18
14138.0	1.5692238373781504e+18
14139.0	1.5689174938025981e+18
14140.0	1.5685598572445693e+18
14141.0	1.5682196740243453e+18
14142.0	1.5676146842599424e+18
14143.0	1.5675157808939003e+18
14144.0	1.5671785169092605e+18
14145.0	1.5668276717682688e+18
14146.0	1.5664747764514813e+18
14147.0	1.5661301606907901e+18
14148.0	1.5657723748155387e+18
14149.0	1.565418347036672e+18
14150.0	1.5650914715041792e+18
14151.0	1.5647164470394875e+18
14152.0	1.5643977386557437e+18
14153.0	1.5640515424813053e+18
14154.0	1.5636969862201341e+18
14155.0	1.5621119318949898e+18
14156.0	1.5629736113864701e+18
14157.0	1.5626644928593915e+18
14158.0	1.562312617597337e+18
14159.0	1.5619724645761016e+18
14160.0	1.561626504960409e+18
14161.0	1.5612602197475323e+18
14162.0	1.5609011336380413e+18
14163.0	1.560588411364966e+18
14164.0	1.560145328445849e+18
14165.0	1.5597962533011453e+18
14166.0	1.559551398222233e+18
14167.0	1.5592020412203003e+18
14168.0	1.558841577701376e+18
14169.0	1.5585138213650432e+18
14170.0	1.5581586275696637e+18
14171.0	1.5578207277285373e+18
14172.0	1.5574804505559035e+18
14173.0	1.5570879744311293e+18
14174.0	1.5567849997205501e+18
14175.0	1.556445358404403e+18
14176.0	1.5560911192326141e+18
14177.0	1.555751335310131e+18
14178.0	1.5554077882580987e+18
14179.0	1.5550541849427965e+18
14180.0	1.5547200952074235e+18
14181.0	1.5543758636449784e+18
14182.0	1.5540314592772093e+18
14183.0	1.5536876421119997e+18
14184.0	1.5533420717277184e+18
14185.0	1.5529997678673915e+18
14186.0	1.5521179523612672e+18
14187.0	1.5523044646715387e+18
14188.0	1.5519674120798205e+18
14189.0	1.5516192261275643e+18
14190.0	1.5512775077920765e+18
14191.0	1.5509315699867648e+18
14192.0	1.550591950480998e+18
14193.0	1.5501595529707515e+18
14194.0	1.549903467223449e+18
14195.0	1.5495659733909501e+18
14196.0	1.549222964887552e+18
14197.0	1.5488796292284413e+18
14198.0	1.5485357013336056e+18
14199.0	1.5481924831150083e+18
14200.0	1.547503481441485e+18
14201.0	1.5475061590851584e+18
14202.0	1.5471661167935485e+18
14203.0	1.5468139110203387e+18
14204.0	1.5464782089945085e+18
14205.0	1.5461400138743803e+18
14206.0	1.545759130805862e+18
14207.0	1.5454569010036733e+18
14208.0	1.5451153504403453e+18
14209.0	1.5447277682294781e+18
14210.0	1.5444060701458424e+18
14211.0	1.5440881402249213e+18
14212.0	1.5437478143983613e+18
14213.0	1.543394207727616e+18
14214.0	1.5430627033612285e+18
14215.0	1.542715634771558e+18
14216.0	1.542380684365004e+18
14217.0	1.5420396354404347e+18
14218.0	1.5416950616227835e+18
14219.0	1.541357863069286e+18
14220.0	1.541014076103065e+18
14221.0	1.5406666786799613e+18
14222.0	1.5402602975985664e+18
14223.0	1.5399918990524413e+18
14224.0	1.5396547340533757e+18
14225.0	1.5382981988319237e+18
14226.0	1.5389739347607547e+18
14227.0	1.5386340652744701e+18
14228.0	1.5356030716215306e+18
14229.0	1.5376807100415974e+18
14230.0	1.5376141883801595e+18
14231.0	1.53720146886656e+18
14232.0	1.5369347312648187e+18
14233.0	1.5365927277166587e+18
14234.0	1.5362556147269624e+18
14235.0	1.5359152905781248e+18
14236.0	1.5355766055632893e+18
14237.0	1.5352357596430333e+18
14238.0	1.5348966551977981e+18
14239.0	1.5345488047898621e+18
14240.0	1.5337218692349955e+18
14241.0	1.5338734983577595e+18
14242.0	1.5335401988292605e+18
14243.0	1.533154774168371e+18
14244.0	1.5328652564627453e+18
14245.0	1.5325200216227835e+18
14246.0	1.532176279955046e+18
14247.0	1.531848218273382e+18
14248.0	1.5315064177295357e+18
14249.0	1.5311718380994557e+18
14250.0	1.5308344449302523e+18
14251.0	1.530497202755993e+18
14252.0	1.5301592290951163e+18
14253.0	1.5298184351842304e+18
14254.0	1.529479574008627e+18
14255.0	1.5291322655047677e+18
14256.0	1.5278647720017923e+18
14257.0	1.528458952205926e+18
14258.0	1.5281301355495421e+18
14259.0	1.5277848252121085e+18
14260.0	1.5274273161609216e+18
14261.0	1.5271120605282301e+18
14262.0	1.5267878810943485e+18
14263.0	1.5250681778667528e+18
14264.0	1.5259289413222397e+18
14265.0	1.525763888748953e+18
14266.0	1.5254398032674816e+18
14267.0	1.525103782474547e+18
14268.0	1.5247662651539453e+18
14269.0	1.524428016346726e+18
14270.0	1.5240944852926464e+18
14271.0	1.523756093879091e+18
14272.0	1.5234214102302715e+18
14273.0	1.5230854850674685e+18
14274.0	1.520757382945179e+18
14275.0	1.5222335632048128e+18
14276.0	1.5220663983800315e+18
14277.0	1.5217338404044797e+18
14278.0	1.5214064464560123e+18
14279.0	1.5210707595296765e+18
14280.0	1.520732745603481e+18
14281.0	1.520399877249433e+18
14282.0	1.5200646500188157e+18
14283.0	1.5197293791674365e+18
14284.0	1.5193941871689728e+18
14285.0	1.519058946516582e+18
14286.0	1.5187193723092992e+18
14287.0	1.5183891765657597e+18
14288.0	1.5180543167561725e+18
14289.0	1.5174023960854515e+18
14290.0	1.5173828539842557e+18
14291.0	1.5170500812603387e+18
14292.0	1.5167152063512573e+18
14293.0	1.5163808028819453e+18
14294.0	1.5160008861810685e+18
14295.0	1.515707162427392e+18
14296.0	1.515122312033075e+18
14297.0	1.5150451083182077e+18
14298.0	1.5143768214732797e+18
14299.0	1.5143608495636477e+18
14300.0	1.5140410422722557e+18
14301.0	1.5137080732549115e+18
14302.0	1.5133720323293184e+18
14303.0	1.513026849498726e+18
14304.0	1.512700896713113e+18
14305.0	1.5123716639817725e+18
14306.0	1.5119989212184568e+18
14307.0	1.5116899687858173e+18
14308.0	1.5113693578657787e+18
14309.0	1.511033578664755e+18
14310.0	1.5105763508748285e+18
14311.0	1.5098034513772541e+18
14312.0	1.509978132394803e+18
14313.0	1.5096639807029248e+18
14314.0	1.5093600144588797e+18
14315.0	1.5090388364689405e+18
14316.0	1.5086943968690176e+18
14317.0	1.5083246773600253e+18
14318.0	1.5080465497063421e+18
14319.0	1.5077146326204413e+18
14320.0	1.5073781470986237e+18
14321.0	1.5070211698851837e+18
14322.0	1.5066751045730304e+18
14323.0	1.5063543745347581e+18
14324.0	1.5060224457048064e+18
14325.0	1.5056920670896123e+18
14326.0	1.505363508802355e+18
14327.0	1.505029902250803e+18
14328.0	1.5046985572679677e+18
14329.0	1.5043693111148541e+18
14330.0	1.5040380701507581e+18
14331.0	1.503699334804275e+18
14332.0	1.5033758482694141e+18
14333.0	1.503044887484825e+18
14334.0	1.5027139938091003e+18
14335.0	1.5023746326724603e+18
14336.0	1.5019435186192381e+18
14337.0	1.5017206651813885e+18
14338.0	1.5013899510218747e+18
14339.0	1.5010531333111803e+18
14340.0	1.5007303916847104e+18
14341.0	1.5003909869273085e+18
14342.0	1.500069317364941e+18
14343.0	1.4997356923584507e+18
14344.0	1.4994062599782395e+18
14345.0	1.4990804716093437e+18
14346.0	1.4987487910821885e+18
14347.0	1.4983655323598843e+18
14348.0	1.498090387695206e+18
14349.0	1.4977614770864125e+18
14350.0	1.4973514285055995e+18
14351.0	1.4970153439592443e+18
14352.0	1.4967700744830973e+18
14353.0	1.4964434019549181e+18
14354.0	1.4961051179155453e+18
14355.0	1.4957564454240253e+18
14356.0	1.495438265522585e+18
14357.0	1.495125925770035e+18
14358.0	1.4947955874201597e+18
14359.0	1.494462205683302e+18
14360.0	1.4941306123976701e+18
14361.0	1.4938077701079035e+18
14362.0	1.4934810036273147e+18
14363.0	1.4931524235296765e+18
14364.0	1.4925461670854656e+18
14365.0	1.4924678409748475e+18
14366.0	1.4921202757795837e+18
14367.0	1.4918399419219963e+18
14368.0	1.4915117409894397e+18
14369.0	1.4911839393546237e+18
14370.0	1.4908275124338685e+18
14371.0	1.4905003399446525e+18
14372.0	1.490167914509107e+18
14373.0	1.4898432116260864e+18
14374.0	1.489517426612633e+18
14375.0	1.4891894202957821e+18
14376.0	1.488862672270131e+18
14377.0	1.4885351491371003e+18
14378.0	1.4882073273696253e+18
14379.0	1.4878810256179197e+18
14380.0	1.4875538313183232e+18
14381.0	1.4872231305805821e+18
14382.0	1.486899691021926e+18
14383.0	1.4865664485359613e+18
14384.0	1.4862403195895803e+18
14385.0	1.4859200609910781e+18
14386.0	1.4855879979433981e+18
14387.0	1.485266959204352e+18
14388.0	1.4849392850763776e+18
14389.0	1.484614295302963e+18
14390.0	1.4842873711165437e+18
14391.0	1.4839589789237245e+18
14392.0	1.4836324120920064e+18
14393.0	1.4833100110430203e+18
14394.0	1.4829721581780992e+18
14395.0	1.482607644639232e+18
14396.0	1.4823232557285373e+18
14397.0	1.4819560158920701e+18
14398.0	1.4816288601800704e+18
14399.0	1.4813045431730173e+18
14400.0	1.480955459639705e+18
14401.0	1.4806523154792448e+18
14402.0	1.4803282534858747e+18
14403.0	1.4783179856543706e+18
14404.0	1.47476360326021e+18
14405.0	1.478901899880036e+18
14406.0	1.479029015812505e+18
14407.0	1.4760422485786637e+18
14408.0	1.4783287381721085e+18
14409.0	1.478048530143641e+18
14410.0	1.477710017934131e+18
14411.0	1.4774023271481341e+18
14412.0	1.4770803992166395e+18
14413.0	1.4767571089752064e+18
14414.0	1.476432218187366e+18
14415.0	1.476108448117555e+18
14416.0	1.475772576641843e+18
14417.0	1.4754076151513088e+18
14418.0	1.4750894352498688e+18
14419.0	1.4748124132147197e+18
14420.0	1.4744875324932093e+18
14421.0	1.4741639033520123e+18
14422.0	1.4738375898562557e+18
14423.0	1.4735118551744512e+18
14424.0	1.4625230269972398e+18
14425.0	1.4728670044225536e+18
14426.0	1.4725451268227067e+18
14427.0	1.4722219758321664e+18
14428.0	1.471890307049062e+18
14429.0	1.471575420515123e+18
14430.0	1.4712531570393085e+18
14431.0	1.470480331361485e+18
14432.0	1.4705998707032064e+18
14433.0	1.4682934464217073e+18
14434.0	1.469957355339776e+18
14435.0	1.4695772205350907e+18
14436.0	1.4693171082559485e+18
14437.0	1.4689948347138048e+18
14438.0	1.468583044657971e+18
14439.0	1.4683373842726907e+18
14440.0	1.468027849670656e+18
14441.0	1.4677035595071485e+18
14442.0	1.4673791670026237e+18
14443.0	1.4670447517892603e+18
14444.0	1.4667387336916984e+18
14445.0	1.466418471737753e+18
14446.0	1.46391139530834e+18
14447.0	1.4657723912159232e+18
14448.0	1.4654538472488957e+18
14449.0	1.4651317213462525e+18
14450.0	1.4648090719944696e+18
14451.0	1.4644886439460864e+18
14452.0	1.4641677377470464e+18
14453.0	1.463813072433971e+18
14454.0	1.4635242442719232e+18
14455.0	1.463202361638912e+18
14456.0	1.4628733906321405e+18
14457.0	1.4625509375737853e+18
14458.0	1.4622304742932475e+18
14459.0	1.461917200049766e+18
14460.0	1.4615978021224445e+18
14461.0	1.4612503241687037e+18
14462.0	1.4604622463238144e+18
14463.0	1.460630218132684e+18
14464.0	1.4603179807211515e+18
14465.0	1.459991469254246e+18
14466.0	1.4596781782335485e+18
14467.0	1.4593318008651773e+18
14468.0	1.4590366527258621e+18
14469.0	1.4586811166752765e+18
14470.0	1.4583893323677693e+18
14471.0	1.4580746404495357e+18
14472.0	1.4577568296468475e+18
14473.0	1.4574396194684925e+18
14474.0	1.4571216945807357e+18
14475.0	1.4568002666102781e+18
14476.0	1.456351125438464e+18
14477.0	1.4561619220627453e+18
14478.0	1.4558434519154685e+18
14479.0	1.4555199771246592e+18
14480.0	1.4552007083819003e+18
14481.0	1.4548879139667963e+18
14482.0	1.4545680093675515e+18
14483.0	1.454246625017856e+18
14484.0	1.4539306949410816e+18
14485.0	1.4535991620534272e+18
14486.0	1.4531972604887037e+18
14487.0	1.4529742006910973e+18
14488.0	1.4525687859773437e+18
14489.0	1.4522944499744763e+18
14490.0	1.452011654899302e+18
14491.0	1.4517034725408765e+18
14492.0	1.4513809171415037e+18
14493.0	1.451056017965056e+18
14494.0	1.4507394050555904e+18
14495.0	1.4504320951123965e+18
14496.0	1.4500699186397181e+18
14497.0	1.449796500350566e+18
14498.0	1.4494785217757181e+18
14499.0	1.449159227867136e+18
14500.0	1.4488409556910077e+18
14501.0	1.4484688219406336e+18
14502.0	1.4480425464365053e+18
14503.0	1.4478649612828667e+18
14504.0	1.4475697762336765e+18
14505.0	1.4472067357343741e+18
14506.0	1.4468198548111357e+18
14507.0	1.446540400079667e+18
14508.0	1.4463036718841853e+18
14509.0	1.4459866613547008e+18
14510.0	1.445669201195827e+18
14511.0	1.4453536066633725e+18
14512.0	1.4450317726842877e+18
14513.0	1.4447204630527995e+18
14514.0	1.444384569766707e+18
14515.0	1.444086354752307e+18
14516.0	1.4429836218990597e+18
14517.0	1.4434550146924544e+18
14518.0	1.4431388514123773e+18
14519.0	1.442822807250534e+18
14520.0	1.442506461098803e+18
14521.0	1.4421889539637248e+18
14522.0	1.4418688614596608e+18
14523.0	1.4413881438896125e+18
14524.0	1.4411151920070653e+18
14525.0	1.4409259148115963e+18
14526.0	1.4406099629244413e+18
14527.0	1.4402904291016701e+18
14528.0	1.4399027177062397e+18
14529.0	1.4396624998498301e+18
14530.0	1.4393439693045757e+18
14531.0	1.4390345773088765e+18
14532.0	1.4385263551709181e+18
14533.0	1.4384048377954301e+18
14534.0	1.4380901207113723e+18
14535.0	1.4377713150197757e+18
14536.0	1.437458985333555e+18
14537.0	1.4371405420298237e+18
14538.0	1.436830606452326e+18
14539.0	1.4365161947135997e+18
14540.0	1.4362015950700544e+18
14541.0	1.4358797929676797e+18
14542.0	1.435571926020915e+18
14543.0	1.4351785254715392e+18
14544.0	1.4349438138974203e+18
14545.0	1.434624466301747e+18
14546.0	1.4209072517611423e+18
14547.0	1.4221849944653706e+18
14548.0	1.4336828937076736e+18
14549.0	1.4333338907049981e+18
14550.0	1.4330567227080701e+18
14551.0	1.4327457754644475e+18
14552.0	1.4324311791763453e+18
14553.0	1.4321148330246141e+18
14554.0	1.4318045753245693e+18
14555.0	1.4314908648734715e+18
14556.0	1.4311743425609725e+18
14557.0	1.4308641972682747e+18
14558.0	1.4305505723809787e+18
14559.0	1.4295639898718185e+18
14560.0	1.429837866178969e+18
14561.0	1.429608912545382e+18
14562.0	1.4292801982300157e+18
14563.0	1.428984536707891e+18
14564.0	1.4286255328067581e+18
14565.0	1.428359644132147e+18
14566.0	1.4280468279066621e+18
14567.0	1.4277328272097275e+18
14568.0	1.4273096169029632e+18
14569.0	1.4271062820782077e+18
14570.0	1.4265643025039357e+18
14571.0	1.4264824347230208e+18
14572.0	1.426109185287782e+18
14573.0	1.4258320156131325e+18
14574.0	1.4254223445196797e+18
14575.0	1.4252236737609725e+18
14576.0	1.424908995264512e+18
14577.0	1.4246079214125053e+18
14578.0	1.424295455830835e+18
14579.0	1.4239856712482813e+18
14580.0	1.423672975818752e+18
14581.0	1.4233546918985725e+18
14582.0	1.423044516406886e+18
14583.0	1.4227387298349053e+18
14584.0	1.4224083277316093e+18
14585.0	1.42211559718912e+18
14586.0	1.4218029202145277e+18
14587.0	1.4214901140553725e+18
14588.0	1.4211814418022397e+18
14589.0	1.4208811027922941e+18
14590.0	1.4205805205127165e+18
14591.0	1.4202750543855613e+18
14592.0	1.4199798743695357e+18
14593.0	1.4196443266940925e+18
14594.0	1.41938510528512e+18
14595.0	1.4190841790726141e+18
14596.0	1.418550653537484e+18
14597.0	1.4182085644255222e+18
14598.0	1.4181708089786363e+18
14599.0	1.4178930789449725e+18
14600.0	1.4175863964696573e+18
14601.0	1.4172879297970173e+18
14602.0	1.4169338047102973e+18
14603.0	1.416665589035827e+18
14604.0	1.4163339185750013e+18
14605.0	1.4159989732016125e+18
14606.0	1.4157250062974976e+18
14607.0	1.415474980480614e+18
14608.0	1.4151765037416445e+18
14609.0	1.414868024426496e+18
14610.0	1.4144446799020032e+18
14611.0	1.4142774345465853e+18
14612.0	1.4139862206644221e+18
14613.0	1.4136891834105853e+18
14614.0	1.4133903291842557e+18
14615.0	1.4130767009415165e+18
14616.0	1.4127967428935677e+18
14617.0	1.4124991117262845e+18
14618.0	1.4121597338124285e+18
14619.0	1.4117922171518966e+18
14620.0	1.4109563141750781e+18
14621.0	1.4113093722308603e+18
14622.0	1.4110110498422781e+18
14623.0	1.410714727297843e+18
14624.0	1.410398342558515e+18
14625.0	1.4101190891536381e+18
14626.0	1.4098194178768893e+18
14627.0	1.4095182299398141e+18
14628.0	1.4092286199595003e+18
14629.0	1.4089314635874301e+18
14630.0	1.4086287002697725e+18
14631.0	1.408336439489331e+18
14632.0	1.4071386519633925e+18
14633.0	1.4076366819426296e+18
14634.0	1.4074366757175293e+18
14635.0	1.4061117856808876e+18
14636.0	1.4027327797198843e+18
14637.0	1.4065555455606781e+18
14638.0	1.4062442795499517e+18
14639.0	1.4059469184958464e+18
14640.0	1.4056636679192573e+18
14641.0	1.4019871666864095e+18
14642.0	1.4050696244494333e+18
14643.0	1.4047717483347965e+18
14644.0	1.4044681704833021e+18
14645.0	1.4041708647940093e+18
14646.0	1.4038242399617021e+18
