# Flux units: erg / (cm m2 s)
# Wavelength units: Angstrom
wave	flux
14000.0	1.8488703508807675e+18
14001.0	1.8487236106387453e+18
14002.0	1.8485454147944443e+18
14003.0	1.8482147023126525e+18
14004.0	1.8478803995066365e+18
14005.0	1.8475447360684027e+18
14006.0	1.847200348477849e+18
14007.0	1.8468611685351421e+18
14008.0	1.846428089869926e+18
14009.0	1.8461893685411837e+18
14010.0	1.8458429995614203e+18
14011.0	1.8448341620752381e+18
14012.0	1.845180121690931e+18
14013.0	1.8448551688273915e+18
14014.0	1.8445141836562427e+18
14015.0	1.844182764853657e+18
14016.0	1.843849233799577e+18
14017.0	1.8435138807398397e+18
14018.0	1.8431678892474365e+18
14019.0	1.8428427182800893e+18
14020.0	1.8425062965116925e+18
14021.0	1.8421696901939197e+18
14022.0	1.841829215050137e+18
14023.0	1.8414821078728704e+18
14024.0	1.841146082046771e+18
14025.0	1.8408273753407483e+18
14026.0	1.840492166565068e+18
14027.0	1.8401579308679165e+18
14028.0	1.839813097003417e+18
14029.0	1.8394652986048512e+18
14030.0	1.8371337303097357e+18
14031.0	1.838627484703129e+18
14032.0	1.8384715790680061e+18
14033.0	1.8380948231946235e+18
14034.0	1.8378104997150717e+18
14035.0	1.8374815572295675e+18
14036.0	1.8371364666736637e+18
14037.0	1.836813751890739e+18
14038.0	1.8364816016015355e+18
14039.0	1.8361432135434235e+18
14040.0	1.8358104022319104e+18
14041.0	1.8354786243969021e+18
14042.0	1.8351351041884155e+18
14043.0	1.8347701041102843e+18
14044.0	1.8344599890165755e+18
14045.0	1.8341355797348352e+18
14046.0	1.8338065651073021e+18
14047.0	1.8334641874272253e+18
14048.0	1.833143031247667e+18
14049.0	1.832811931212185e+18
14050.0	1.832478955483955e+18
14051.0	1.8321372807692285e+18
14052.0	1.8318079809290237e+18
14053.0	1.83147999306711e+18
14054.0	1.8311472991961085e+18
14055.0	1.8308145348607997e+18
14056.0	1.8304817537482752e+18
14057.0	1.8301491303415805e+18
14058.0	1.829816486802227e+18
14059.0	1.8294745822396413e+18
14060.0	1.8291513909837821e+18
14061.0	1.8288114158010365e+18
14062.0	1.8284855552901115e+18
14063.0	1.828132270741913e+18
14064.0	1.8274139794046979e+18
14065.0	1.8274786471837693e+18
14066.0	1.8271555314253824e+18
14067.0	1.8268165796528125e+18
14068.0	1.826494337987379e+18
14069.0	1.8261591896096765e+18
14070.0	1.82582930088919e+18
14071.0	1.8254961389338621e+18
14072.0	1.825167820560793e+18
14073.0	1.8248362239197184e+18
14074.0	1.8245043772981243e+18
14075.0	1.8241523359416317e+18
14076.0	1.8238278108971005e+18
14077.0	1.823054585921536e+18
14078.0	1.8231353094963197e+18
14079.0	1.822834794325606e+18
14080.0	1.8225148259729403e+18
14081.0	1.8221858448998397e+18
14082.0	1.821854900892467e+18
14083.0	1.821522191921971e+18
14084.0	1.821183693134233e+18
14085.0	1.8204314749108221e+18
14086.0	1.8204800113967104e+18
14087.0	1.8201924952129533e+18
14088.0	1.8198549594374136e+18
14089.0	1.819535271264256e+18
14090.0	1.8192075166056443e+18
14091.0	1.818882020160307e+18
14092.0	1.818552611268198e+18
14093.0	1.8182224390127613e+18
14094.0	1.8178915990241277e+18
14095.0	1.8175576418287613e+18
14096.0	1.8171631272722427e+18
14097.0	1.816857874215731e+18
14098.0	1.8165381675876347e+18
14099.0	1.8162403636150264e+18
14100.0	1.815900858194329e+18
14101.0	1.8155856226942976e+18
14102.0	1.8152543951519741e+18
14103.0	1.814910484034355e+18
14104.0	1.8145951780700155e+18
14105.0	1.8142693242699776e+18
14106.0	1.8139402542776315e+18
14107.0	1.813603008747929e+18
14108.0	1.813267004732211e+18
14109.0	1.8129476319707133e+18
14110.0	1.8126212228448256e+18
14111.0	1.8122863949119485e+18
14112.0	1.8119559424770045e+18
14113.0	1.8116329726803965e+18
14114.0	1.8112882898108408e+18
14115.0	1.8109607968767992e+18
14116.0	1.8105135817293821e+18
14117.0	1.8066649370329093e+18
14118.0	1.8099302295404541e+18
14119.0	1.809595040897433e+18
14120.0	1.8092879608020987e+18
14121.0	1.8089804881199104e+18
14122.0	1.808642390307635e+18
14123.0	1.8083221686190077e+18
14124.0	1.8079846529761277e+18
14125.0	1.8072021703327736e+18
14126.0	1.8073575592296443e+18
14127.0	1.807043461224857e+18
14128.0	1.8067167937298424e+18
14129.0	1.8063787177279485e+18
14130.0	1.8060408111759355e+18
14131.0	1.8057360228483072e+18
14132.0	1.8053911168417787e+18
14133.0	1.804506558260837e+18
14134.0	1.804734350911078e+18
14135.0	1.8044067724132347e+18
14136.0	1.8040811820154877e+18
14137.0	1.8037602707832824e+18
14138.0	1.8034184081637376e+18
14139.0	1.803118273835827e+18
14140.0	1.8027863852711933e+18
14141.0	1.802400856591564e+18
14142.0	1.8019441321181181e+18
14143.0	1.8018023629651965e+18
14144.0	1.8014889175941117e+18
14145.0	1.8011635268452347e+18
14146.0	1.800832378155827e+18
14147.0	1.8005110927917053e+18
14148.0	1.8001838297055227e+18
14149.0	1.7998603884691453e+18
14150.0	1.799538515902464e+18
14151.0	1.7992055686955003e+18
14152.0	1.7988854963240952e+18
14153.0	1.798562039988224e+18
14154.0	1.7982084484169725e+18
14155.0	1.7978453743632381e+18
14156.0	1.7975775261097981e+18
14157.0	1.7972599501881344e+18
14158.0	1.7969310915887096e+18
14159.0	1.7966095092678653e+18
14160.0	1.79627048870871e+18
14161.0	1.7958984673656824e+18
14162.0	1.795520676338073e+18
14163.0	1.7952888521228285e+18
14164.0	1.7948885360050176e+18
14165.0	1.794625600120422e+18
14166.0	1.7943317689925627e+18
14167.0	1.7939948606849021e+18
14168.0	1.7936823430938616e+18
14169.0	1.7933631112609787e+18
14170.0	1.7930351351431163e+18
14171.0	1.7927116838404093e+18
14172.0	1.7923906115469307e+18
14173.0	1.7920432460005376e+18
14174.0	1.7917342684020733e+18
14175.0	1.791418043046297e+18
14176.0	1.7910953483960315e+18
14177.0	1.7907716068474877e+18
14178.0	1.7904473133285376e+18
14179.0	1.7901192516468733e+18
14180.0	1.78980040736768e+18
14181.0	1.7894766976958461e+18
14182.0	1.7891519897796605e+18
14183.0	1.7888284042592253e+18
14184.0	1.7884971213520893e+18
14185.0	1.788163449369395e+18
14186.0	1.787236483019571e+18
14187.0	1.7874646212804603e+18
14188.0	1.78720336815063e+18
14189.0	1.7868831850495997e+18
14190.0	1.7865612839616507e+18
14191.0	1.786235889857331e+18
14192.0	1.78590590215127e+18
14193.0	1.785496073351987e+18
14194.0	1.7852694785949696e+18
14195.0	1.7849540551901181e+18
14196.0	1.7846322329550843e+18
14197.0	1.7843098503610363e+18
14198.0	1.7839816158740475e+18
14199.0	1.7836565724135421e+18
14200.0	1.7829483339841539e+18
14201.0	1.782967364380262e+18
14202.0	1.782693409220198e+18
14203.0	1.7823711407112187e+18
14204.0	1.7820521219489787e+18
14205.0	1.7817287763427325e+18
14206.0	1.7812783701688315e+18
14207.0	1.7810851352281088e+18
14208.0	1.7807666197823485e+18
14209.0	1.780304593708646e+18
14210.0	1.7800179767836664e+18
14211.0	1.779795057914675e+18
14212.0	1.7794824010727421e+18
14213.0	1.7791614629969912e+18
14214.0	1.7788401759551488e+18
14215.0	1.778503732376371e+18
14216.0	1.7781996218482685e+18
14217.0	1.7778788783882235e+18
14218.0	1.7775445940371453e+18
14219.0	1.7772368344645627e+18
14220.0	1.7769111819911168e+18
14221.0	1.7765925776261115e+18
14222.0	1.7762526091542525e+18
14223.0	1.7759504095510523e+18
14224.0	1.7756202087743488e+18
14225.0	1.774031772162458e+18
14226.0	1.7749326197424125e+18
14227.0	1.7746477677805565e+18
14228.0	1.7709596944629768e+18
14229.0	1.7733178294796262e+18
14230.0	1.7737001654550525e+18
14231.0	1.7733768013938688e+18
14232.0	1.7730506489593856e+18
14233.0	1.7727098080722941e+18
14234.0	1.7723924116668416e+18
14235.0	1.7720700341059581e+18
14236.0	1.7717527954063355e+18
14237.0	1.7714294128902141e+18
14238.0	1.771108372473446e+18
14239.0	1.7707674007240704e+18
14240.0	1.768651934715085e+18
14241.0	1.7701094083788797e+18
14242.0	1.769818056923545e+18
14243.0	1.7693521939005437e+18
14244.0	1.769194558534451e+18
14245.0	1.7688682584604672e+18
14246.0	1.7685497748914176e+18
14247.0	1.7682349118455803e+18
14248.0	1.7679026625708032e+18
14249.0	1.7675972752965627e+18
14250.0	1.7672626956664832e+18
14251.0	1.7669232556769275e+18
14252.0	1.7666033946984443e+18
14253.0	1.7662815909183485e+18
14254.0	1.7659560659517435e+18
14255.0	1.7655797966176256e+18
14256.0	1.7640383664095235e+18
14257.0	1.7647457659781112e+18
14258.0	1.764672464643686e+18
14259.0	1.7643425356578808e+18
14260.0	1.763999312406118e+18
14261.0	1.7636985204113403e+18
14262.0	1.7633952504217597e+18
14263.0	1.7612359723909128e+18
14264.0	1.762117366788915e+18
14265.0	1.7624481799340032e+18
14266.0	1.7621606822051835e+18
14267.0	1.7618490772946944e+18
14268.0	1.7615315701596157e+18
14269.0	1.7612055938859005e+18
14270.0	1.7608734301749243e+18
14271.0	1.76053241816023e+18
14272.0	1.760201324835635e+18
14273.0	1.759806023427686e+18
14274.0	1.7565125451972616e+18
14275.0	1.758786153244262e+18
14276.0	1.7589036960972797e+18
14277.0	1.758616060795289e+18
14278.0	1.758314533958451e+18
14279.0	1.7579990988095485e+18
14280.0	1.7576784493019133e+18
14281.0	1.7573695773999104e+18
14282.0	1.7570535617593341e+18
14283.0	1.756736928717209e+18
14284.0	1.7564200406614008e+18
14285.0	1.756102414408089e+18
14286.0	1.7557839274835965e+18
14287.0	1.7554673699389435e+18
14288.0	1.7551381489516544e+18
14289.0	1.753665151329892e+18
14290.0	1.7545061831016443e+18
14291.0	1.7542006599319552e+18
14292.0	1.7538838238855165e+18
14293.0	1.7535374968487933e+18
14294.0	1.7530650722566141e+18
14295.0	1.752865636456857e+18
14296.0	1.7516445051125763e+18
14297.0	1.7522208947568637e+18
14298.0	1.7514880961609728e+18
14299.0	1.7515947438899197e+18
14300.0	1.7513035836948475e+18
14301.0	1.7509934199472123e+18
14302.0	1.7506791273267197e+18
14303.0	1.7503244603359227e+18
14304.0	1.750027803924889e+18
14305.0	1.7497266310873085e+18
14306.0	1.7493904492331005e+18
14307.0	1.7490715143569405e+18
14308.0	1.7487620938399741e+18
14309.0	1.748426479055667e+18
14310.0	1.7480386636414976e+18
14311.0	1.7476295445184512e+18
14312.0	1.7474061105889272e+18
14313.0	1.7470347100028925e+18
14314.0	1.746862322430771e+18
14315.0	1.7465639731986427e+18
14316.0	1.7462022933315581e+18
14317.0	1.7459117102727165e+18
14318.0	1.745615120970547e+18
14319.0	1.7452813634240512e+18
14320.0	1.7449680707256315e+18
14321.0	1.7446512548118525e+18
14322.0	1.7443010119729147e+18
14323.0	1.744003208000307e+18
14324.0	1.7437135242002427e+18
14325.0	1.7433892592025595e+18
14326.0	1.7430863331459072e+18
14327.0	1.7427647021711357e+18
14328.0	1.7424512417005568e+18
14329.0	1.7421445894242296e+18
14330.0	1.741830759854899e+18
14331.0	1.7415165796417528e+18
14332.0	1.7412029547544576e+18
14333.0	1.7408890631094272e+18
14334.0	1.7405748308869117e+18
14335.0	1.7402437610504187e+18
14336.0	1.7398160393502717e+18
14337.0	1.7396289113161725e+18
14338.0	1.7393170228707325e+18
14339.0	1.7389939188563965e+18
14340.0	1.73869113540608e+18
14341.0	1.7383740896444413e+18
14342.0	1.7380637111484413e+18
14343.0	1.7377518361247741e+18
14344.0	1.7374299501363197e+18
14345.0	1.737122418733875e+18
14346.0	1.7367756353568763e+18
14347.0	1.7364148178386941e+18
14348.0	1.7361310127751165e+18
14349.0	1.7358234545291261e+18
14350.0	1.73540095557632e+18
14351.0	1.735081482151526e+18
14352.0	1.7348757179858941e+18
14353.0	1.734573498250035e+18
14354.0	1.7342490789019643e+18
14355.0	1.733910999544627e+18
14356.0	1.7336032064176125e+18
14357.0	1.733323708065382e+18
14358.0	1.7330146583248893e+18
14359.0	1.732685219233792e+18
14360.0	1.7323810298527744e+18
14361.0	1.7320719666905085e+18
14362.0	1.731763982303232e+18
14363.0	1.7314468342005763e+18
14364.0	1.73081871033303e+18
14365.0	1.730713658117324e+18
14366.0	1.7304446270701565e+18
14367.0	1.7301995538874365e+18
14368.0	1.7298885445681147e+18
14369.0	1.7295777013432312e+18
14370.0	1.729266426943897e+18
14371.0	1.7289552934731776e+18
14372.0	1.7286375128694781e+18
14373.0	1.7283282265702397e+18
14374.0	1.7280190828773368e+18
14375.0	1.7277028659101693e+18
14376.0	1.727390865057382e+18
14377.0	1.7270787148873725e+18
14378.0	1.7267424306921467e+18
14379.0	1.726413713021337e+18
14380.0	1.7261013330034685e+18
14381.0	1.7257775159574525e+18
14382.0	1.7254778413252605e+18
14383.0	1.7251663991537661e+18
14384.0	1.7248365322436603e+18
14385.0	1.7245462377529341e+18
14386.0	1.7242146209792e+18
14387.0	1.72392366211072e+18
14388.0	1.7236088946950141e+18
14389.0	1.7233012911505403e+18
14390.0	1.7229888473792512e+18
14391.0	1.7226803596754941e+18
14392.0	1.7223688269070333e+18
14393.0	1.722059012125491e+18
14394.0	1.7217038317518843e+18
14395.0	1.7214248618819581e+18
14396.0	1.7211267726966781e+18
14397.0	1.7208163707125752e+18
14398.0	1.72050529428439e+18
14399.0	1.7201941608136704e+18
14400.0	1.719861292459622e+18
14401.0	1.7195619785375736e+18
14402.0	1.719246419237273e+18
14403.0	1.7185036449087478e+18
14404.0	1.715214881076017e+18
14405.0	1.7163055259451346e+18
14406.0	1.7179895507451904e+18
14407.0	1.7171399072284672e+18
14408.0	1.717369672879308e+18
14409.0	1.7170674313330685e+18
14410.0	1.7167582373085181e+18
14411.0	1.7164712378630136e+18
14412.0	1.7161611143806976e+18
14413.0	1.7158562589442043e+18
14414.0	1.7155440550871037e+18
14415.0	1.7152032611762168e+18
14416.0	1.7148809423355904e+18
14417.0	1.7145571840098304e+18
14418.0	1.7142346688757757e+18
14419.0	1.7139496927625216e+18
14420.0	1.713636819494502e+18
14421.0	1.7133304574640123e+18
14422.0	1.7130077074489341e+18
14423.0	1.7126354730352635e+18
14424.0	1.710059173812632e+18
14425.0	1.7120339142115325e+18
14426.0	1.7117790431346685e+18
14427.0	1.7114762294853627e+18
14428.0	1.711143173226496e+18
14429.0	1.7108569522438141e+18
14430.0	1.710534598171033e+18
14431.0	1.7096621024083965e+18
14432.0	1.709918186477977e+18
14433.0	1.7091803278737405e+18
14434.0	1.7092869823135744e+18
14435.0	1.708946607833088e+18
14436.0	1.708695674368819e+18
14437.0	1.7083928355536896e+18
14438.0	1.708018661693849e+18
14439.0	1.7077605979127803e+18
14440.0	1.707468874003251e+18
14441.0	1.7071506907463675e+18
14442.0	1.7068345123667965e+18
14443.0	1.7064798285987837e+18
14444.0	1.706226626854912e+18
14445.0	1.705917333844787e+18
14446.0	1.7043527846330373e+18
14447.0	1.7052652370132987e+18
14448.0	1.705000782790656e+18
14449.0	1.70469566227415e+18
14450.0	1.7043812438245376e+18
14451.0	1.7040756770340861e+18
14452.0	1.703770469276057e+18
14453.0	1.7034578946424827e+18
14454.0	1.7031523362406397e+18
14455.0	1.702835072375193e+18
14456.0	1.7024948522450941e+18
14457.0	1.702178329932595e+18
14458.0	1.701868176251289e+18
14459.0	1.7015501272121341e+18
14460.0	1.7012229798887421e+18
14461.0	1.7008403251462144e+18
14462.0	1.700441953507737e+18
14463.0	1.7002664168521723e+18
14464.0	1.700003230987059e+18
14465.0	1.6996831502270461e+18
14466.0	1.6994083645947904e+18
14467.0	1.699083111419085e+18
14468.0	1.6987962562576381e+18
14469.0	1.6984355142369277e+18
14470.0	1.6981482295787515e+18
14471.0	1.697875098179993e+18
14472.0	1.6975752842969085e+18
14473.0	1.6972729991299067e+18
14474.0	1.696971182047232e+18
14475.0	1.6966626003910656e+18
14476.0	1.696331327550259e+18
14477.0	1.6960489753935867e+18
14478.0	1.6957428885094395e+18
14479.0	1.695434853790515e+18
14480.0	1.695110810252083e+18
14481.0	1.694827162894336e+18
14482.0	1.6945152677380093e+18
14483.0	1.694202416280371e+18
14484.0	1.693888875279155e+18
14485.0	1.693548133377638e+18
14486.0	1.692946688638976e+18
14487.0	1.6929822781472765e+18
14488.0	1.6926635966070781e+18
14489.0	1.6923227926298621e+18
14490.0	1.6920553369632768e+18
14491.0	1.691763311063859e+18
14492.0	1.6914592307347453e+18
14493.0	1.6911375007743997e+18
14494.0	1.690820196643635e+18
14495.0	1.690533541131059e+18
14496.0	1.6900810445160448e+18
14497.0	1.689925617031577e+18
14498.0	1.689623964365619e+18
14499.0	1.6893184730726395e+18
14500.0	1.6890118073745403e+18
14501.0	1.688681643507712e+18
14502.0	1.6881353672884221e+18
14503.0	1.688070593812889e+18
14504.0	1.687779239002112e+18
14505.0	1.687458770688409e+18
14506.0	1.6871051690508285e+18
14507.0	1.6865444409376765e+18
14508.0	1.686520513272217e+18
14509.0	1.6862189159710715e+18
14510.0	1.685910973526835e+18
14511.0	1.6856083343605757e+18
14512.0	1.6852868426366976e+18
14513.0	1.6849944979701757e+18
14514.0	1.6846533181833208e+18
14515.0	1.6843621596659712e+18
14516.0	1.6810598935298066e+18
14517.0	1.6837082827718653e+18
14518.0	1.6834649879740413e+18
14519.0	1.6831602701107197e+18
14520.0	1.682860741440307e+18
14521.0	1.6825568255279104e+18
14522.0	1.6822478412185597e+18
14523.0	1.6818856714567675e+18
14524.0	1.681608010209689e+18
14525.0	1.681330179512729e+18
14526.0	1.68102926001111e+18
14527.0	1.680693564696166e+18
14528.0	1.6802641753407485e+18
14529.0	1.680104278405939e+18
14530.0	1.6797929150873597e+18
14531.0	1.6795063568826363e+18
14532.0	1.679171295746457e+18
14533.0	1.6788986357874688e+18
14534.0	1.678596786828083e+18
14535.0	1.6782789760253947e+18
14536.0	1.677982430343987e+18
14537.0	1.6776667653472253e+18
14538.0	1.677378386814566e+18
14539.0	1.6770742930636797e+18
14540.0	1.6767696322428925e+18
14541.0	1.676437733611929e+18
14542.0	1.6761566179360765e+18
14543.0	1.675823920709632e+18
14544.0	1.675545116934144e+18
14545.0	1.6752173085884416e+18
14546.0	1.671801658671102e+18
14547.0	1.6716191309496294e+18
14548.0	1.6742922414194685e+18
14549.0	1.6738813489446912e+18
14550.0	1.67370906706903e+18
14551.0	1.673421289160704e+18
14552.0	1.6731168833535997e+18
14553.0	1.672804256710656e+18
14554.0	1.672510897022566e+18
14555.0	1.6722064610164739e+18
14556.0	1.6719010670313467e+18
14557.0	1.6715942654377981e+18
14558.0	1.6712661903343613e+18
14559.0	1.668748210392265e+18
14560.0	1.6706526005690365e+18
14561.0	1.670368543847219e+18
14562.0	1.669997926757171e+18
14563.0	1.6697171499810813e+18
14564.0	1.669386202618265e+18
14565.0	1.6691240502296576e+18
14566.0	1.6688221677158397e+18
14567.0	1.6685150490329085e+18
14568.0	1.6681984881328123e+18
14569.0	1.6678983068286976e+18
14570.0	1.6669816601444347e+18
14571.0	1.6672911242821624e+18
14572.0	1.666948021826355e+18
14573.0	1.6666255956115453e+18
14574.0	1.6663210639753213e+18
14575.0	1.666059923252838e+18
14576.0	1.6657565257564157e+18
14577.0	1.6654708047347712e+18
14578.0	1.6651733379842048e+18
14579.0	1.6648755574996992e+18
14580.0	1.6645710527070203e+18
14581.0	1.6642612849016824e+18
14582.0	1.6639540991098875e+18
14583.0	1.6636616772681725e+18
14584.0	1.6633269617426432e+18
14585.0	1.6630520435703805e+18
14586.0	1.662749028594483e+18
14587.0	1.6624487952809981e+18
14588.0	1.6621461024276475e+18
14589.0	1.6618444816383997e+18
14590.0	1.6615427249537021e+18
14591.0	1.6612344771641341e+18
14592.0	1.6609230651916285e+18
14593.0	1.6604990109908987e+18
14594.0	1.6603280276717565e+18
14595.0	1.6600197463277565e+18
14596.0	1.65940275749847e+18
14597.0	1.6590313518792694e+18
14598.0	1.6590804655013888e+18
14599.0	1.6588220108111872e+18
14600.0	1.6585168030531581e+18
14601.0	1.6582153349365763e+18
14602.0	1.6579043742711803e+18
14603.0	1.657608190977638e+18
14604.0	1.6572458047897597e+18
14605.0	1.656953993638707e+18
14606.0	1.6566038682402816e+18
14607.0	1.6563975823032315e+18
14608.0	1.6560933795004413e+18
14609.0	1.6557790919131133e+18
14610.0	1.6554431533285376e+18
14611.0	1.6551627389403133e+18
14612.0	1.654897969306009e+18
14613.0	1.6546028580765693e+18
14614.0	1.65429157864407e+18
14615.0	1.653997116692889e+18
14616.0	1.6537028510351357e+18
14617.0	1.6533814851403776e+18
14618.0	1.6530668183879677e+18
14619.0	1.6524561596022781e+18
14620.0	1.65170226701271e+18
14621.0	1.6521828486873085e+18
14622.0	1.6518902674620413e+18
14623.0	1.6515944012578808e+18
14624.0	1.651228701569843e+18
14625.0	1.650988106226073e+18
14626.0	1.650683792693657e+18
14627.0	1.650342435068313e+18
14628.0	1.6500512127975424e+18
14629.0	1.6497486742945787e+18
14630.0	1.649436079528345e+18
14631.0	1.6491386463322107e+18
14632.0	1.648642166567731e+18
14633.0	1.648502308339712e+18
14634.0	1.6482312220835837e+18
14635.0	1.6478656532578296e+18
14636.0	1.6474040885575675e+18
14637.0	1.6473375350194176e+18
14638.0	1.6470137817268221e+18
14639.0	1.6467021952712696e+18
14640.0	1.646415199181209e+18
14641.0	1.6453989511987197e+18
14642.0	1.6458082129281021e+18
14643.0	1.6455203511336957e+18
14644.0	1.6452030872682493e+18
14645.0	1.644887474280857e+18
14646.0	1.6445904890363904e+18
14647.0	1.6442661133090813e+18
14648.0	1.6439886248673275e+18
