# Flux units: erg / (cm m2 s)
# Wavelength units: Angstrom
wave	flux
14000.0	1.8000237616431104e+18
14001.0	1.7995680538689533e+18
14002.0	1.799353646081638e+18
14003.0	1.799013454472806e+18
14004.0	1.7986709056651261e+18
14005.0	1.7983282813599744e+18
14006.0	1.797977406019993e+18
14007.0	1.7976341106262019e+18
14008.0	1.7971965893541888e+18
14009.0	1.796957000643379e+18
14010.0	1.7966023705624576e+18
14011.0	1.7955897296814075e+18
14012.0	1.7959314161401853e+18
14013.0	1.795589984695091e+18
14014.0	1.7952421460312061e+18
14015.0	1.794903719385497e+18
14016.0	1.79456445555671e+18
14017.0	1.7942228211073021e+18
14018.0	1.793875323020902e+18
14019.0	1.793531583030886e+18
14020.0	1.7931893429239805e+18
14021.0	1.7928472001249275e+18
14022.0	1.7925050220937216e+18
14023.0	1.792152005980979e+18
14024.0	1.7918086065684477e+18
14025.0	1.791483366814515e+18
14026.0	1.7911407592865787e+18
14027.0	1.7908019098550264e+18
14028.0	1.7904546550382587e+18
14029.0	1.7901198942142461e+18
14030.0	1.7892045746077696e+18
14031.0	1.7894099092766715e+18
14032.0	1.7890957374521341e+18
14033.0	1.7887119351480317e+18
14034.0	1.788416441398067e+18
14035.0	1.7880772027351037e+18
14036.0	1.7877370648133632e+18
14037.0	1.7873969537351675e+18
14038.0	1.7870568913108987e+18
14039.0	1.7867126043836416e+18
14040.0	1.786369241880985e+18
14041.0	1.786033580120473e+18
14042.0	1.7856844982648832e+18
14043.0	1.7853139700940795e+18
14044.0	1.785004633463193e+18
14045.0	1.7846741273411581e+18
14046.0	1.7843347259392e+18
14047.0	1.783990757779046e+18
14048.0	1.7836578994913275e+18
14049.0	1.7833211304345595e+18
14050.0	1.7829820008235005e+18
14051.0	1.7826336085114877e+18
14052.0	1.7823000841682941e+18
14053.0	1.7819646522556413e+18
14054.0	1.7816261786337277e+18
14055.0	1.7812874097328125e+18
14056.0	1.7809486810972155e+18
14057.0	1.7806101051342843e+18
14058.0	1.780271559370342e+18
14059.0	1.7799331042033661e+18
14060.0	1.7795947010457597e+18
14061.0	1.7792489679224827e+18
14062.0	1.7789181396779005e+18
14063.0	1.7785634861088765e+18
14064.0	1.7781338920714235e+18
14065.0	1.7778945449525248e+18
14066.0	1.7775659665326075e+18
14067.0	1.7772229966168061e+18
14068.0	1.7768903614660603e+18
14069.0	1.7765507771924477e+18
14070.0	1.7762146842574843e+18
14071.0	1.7758742963552253e+18
14072.0	1.775539948250726e+18
14073.0	1.7752025517260797e+18
14074.0	1.7748653129072637e+18
14075.0	1.774509941273395e+18
14076.0	1.774184563946291e+18
14077.0	1.7737245544939517e+18
14078.0	1.7735072190824443e+18
14079.0	1.773169260521062e+18
14080.0	1.772842990646067e+18
14081.0	1.7725062215892984e+18
14082.0	1.772165857175142e+18
14083.0	1.7718312792227837e+18
14084.0	1.7714959949496317e+18
14085.0	1.7708587476320256e+18
14086.0	1.7708125163356155e+18
14087.0	1.7704870064685053e+18
14088.0	1.7701381561384955e+18
14089.0	1.7698099065520125e+18
14090.0	1.7694750115102715e+18
14091.0	1.7691425323876347e+18
14092.0	1.7688066156134395e+18
14093.0	1.76847073574912e+18
14094.0	1.7681349146050555e+18
14095.0	1.767799071650611e+18
14096.0	1.7674351453143037e+18
14097.0	1.7671132828139517e+18
14098.0	1.7667805402890237e+18
14099.0	1.7664569396690936e+18
14100.0	1.7661083510636541e+18
14101.0	1.7657864684306427e+18
14102.0	1.7654510415511547e+18
14103.0	1.7650993642602493e+18
14104.0	1.7647781577490432e+18
14105.0	1.7644457373466621e+18
14106.0	1.7641110805413885e+18
14107.0	1.763775210743398e+18
14108.0	1.7634297343115261e+18
14109.0	1.763101635719987e+18
14110.0	1.7627674436435963e+18
14111.0	1.7624263477428221e+18
14112.0	1.762095190664806e+18
14113.0	1.76176873120727e+18
14114.0	1.761420944552755e+18
14115.0	1.7610984847835133e+18
14116.0	1.7607400076869627e+18
14117.0	1.7594346127753216e+18
14118.0	1.7600970124951547e+18
14119.0	1.7597436507717632e+18
14120.0	1.7594168440258557e+18
14121.0	1.7590830411808765e+18
14122.0	1.7587408799268861e+18
14123.0	1.758415843177267e+18
14124.0	1.7580796026028027e+18
14125.0	1.7572660720435195e+18
14126.0	1.7574282355802112e+18
14127.0	1.7570954393681915e+18
14128.0	1.75676082618368e+18
14129.0	1.7564165174460413e+18
14130.0	1.756074582684467e+18
14131.0	1.7557630381719547e+18
14132.0	1.7554240260014075e+18
14133.0	1.7545167359705075e+18
14134.0	1.7547636177371133e+18
14135.0	1.7544160022102013e+18
14136.0	1.754076911186739e+18
14137.0	1.7537643466194941e+18
14138.0	1.7534224538009597e+18
14139.0	1.753100896645939e+18
14140.0	1.7527618257551357e+18
14141.0	1.752431197159424e+18
14142.0	1.7520271414001661e+18
14143.0	1.7517668445716477e+18
14144.0	1.751440370014617e+18
14145.0	1.7511068960030717e+18
14146.0	1.7506414356332544e+18
14147.0	1.7501709504872448e+18
14148.0	1.7498379512709117e+18
14149.0	1.74950664152023e+18
14150.0	1.7491773383245824e+18
14151.0	1.748839487137382e+18
14152.0	1.7485142742269947e+18
14153.0	1.7481826591309824e+18
14154.0	1.7478252473876475e+18
14155.0	1.7474547611598848e+18
14156.0	1.747178462222745e+18
14157.0	1.7468577019854843e+18
14158.0	1.7465222029639677e+18
14159.0	1.74619532239831e+18
14160.0	1.7458568101887995e+18
14161.0	1.745471029850931e+18
14162.0	1.7450897911054333e+18
14163.0	1.7448701421158397e+18
14164.0	1.7445008923688957e+18
14165.0	1.7441314849161213e+18
14166.0	1.7438784459112448e+18
14167.0	1.7435352293703677e+18
14168.0	1.7432166233276413e+18
14169.0	1.742889472648806e+18
14170.0	1.74255508595671e+18
14171.0	1.7422259153010688e+18
14172.0	1.741899029702246e+18
14173.0	1.7415200223264765e+18
14174.0	1.7412338281873405e+18
14175.0	1.7409093585076221e+18
14176.0	1.7405796207820797e+18
14177.0	1.7402499451322363e+18
14178.0	1.7399191873519608e+18
14179.0	1.7395809972649981e+18
14180.0	1.7392613594234875e+18
14181.0	1.738931967308595e+18
14182.0	1.7386017547878397e+18
14183.0	1.7382733625950205e+18
14184.0	1.737938695723417e+18
14185.0	1.7376147780141053e+18
14186.0	1.7370906393313277e+18
14187.0	1.736930728974745e+18
14188.0	1.7366238804049915e+18
14189.0	1.7362970635927544e+18
14190.0	1.7359689146695677e+18
14191.0	1.735639754080256e+18
14192.0	1.7353043070681085e+18
14193.0	1.7349550809284605e+18
14194.0	1.7346538242047997e+18
14195.0	1.7343280089923581e+18
14196.0	1.733999398695731e+18
14197.0	1.7336711658864637e+18
14198.0	1.7333376348323835e+18
14199.0	1.7330123548131325e+18
14200.0	1.7325761757183997e+18
14201.0	1.7323530639114237e+18
14202.0	1.7320312517427197e+18
14203.0	1.7316926925570048e+18
14204.0	1.7313626377420797e+18
14205.0	1.7310021171806205e+18
14206.0	1.7305427620397053e+18
14207.0	1.7303493626822653e+18
14208.0	1.7300221113401344e+18
14209.0	1.72955270161367e+18
14210.0	1.7292660142243835e+18
14211.0	1.7290345389752315e+18
14212.0	1.7287115356241915e+18
14213.0	1.7283843195142141e+18
14214.0	1.7279598358167547e+18
14215.0	1.7273562855374843e+18
14216.0	1.7270439004864512e+18
14217.0	1.7267170048212987e+18
14218.0	1.7263780647927803e+18
14219.0	1.7260634383056893e+18
14220.0	1.725736970459545e+18
14221.0	1.7254084356603907e+18
14222.0	1.7250585652756475e+18
14223.0	1.724715489663385e+18
14224.0	1.7243892348878843e+18
14225.0	1.7237178593574912e+18
14226.0	1.7237348060233725e+18
14227.0	1.7234101031403515e+18
14228.0	1.7221997712900093e+18
14229.0	1.722572928450559e+18
14230.0	1.722431771666022e+18
14231.0	1.7220972457230333e+18
14232.0	1.7217797872418813e+18
14233.0	1.721449309641113e+18
14234.0	1.721128270902067e+18
14235.0	1.7207997746905088e+18
14236.0	1.7204767461736448e+18
14237.0	1.7201497750110205e+18
14238.0	1.719825147625472e+18
14239.0	1.7194938026426365e+18
14240.0	1.7174067656261632e+18
14241.0	1.7188449656242179e+18
14242.0	1.7185082703871995e+18
14243.0	1.7179919062663163e+18
14244.0	1.717833039452569e+18
14245.0	1.7174912170983421e+18
14246.0	1.7171618165948413e+18
14247.0	1.7168529413373947e+18
14248.0	1.7165144693932032e+18
14249.0	1.7162057434529787e+18
14250.0	1.715880658049433e+18
14251.0	1.715558560668057e+18
14252.0	1.7152337470554107e+18
14253.0	1.714908242221465e+18
14254.0	1.7145818783940603e+18
14255.0	1.714223015421542e+18
14256.0	1.7135841809793021e+18
14257.0	1.7135892795752443e+18
14258.0	1.713286779659878e+18
14259.0	1.7129423417376765e+18
14260.0	1.7126230058860541e+18
14261.0	1.7122939023392765e+18
14262.0	1.7120107868192763e+18
14263.0	1.7111729594957824e+18
14264.0	1.7112559916154877e+18
14265.0	1.7110149801967616e+18
14266.0	1.7106749748150267e+18
14267.0	1.71035277173719e+18
14268.0	1.7100290536767485e+18
14269.0	1.7096957591814141e+18
14270.0	1.7093816578211837e+18
14271.0	1.7090569096396797e+18
14272.0	1.7087342988754941e+18
14273.0	1.7084087437099005e+18
14274.0	1.7073022359830528e+18
14275.0	1.7076918834692093e+18
14276.0	1.7074238556995581e+18
14277.0	1.7071014831718397e+18
14278.0	1.706794483607142e+18
14279.0	1.706470280685158e+18
14280.0	1.7061409724563453e+18
14281.0	1.705825725212262e+18
14282.0	1.705503169812889e+18
14283.0	1.7051803694661627e+18
14284.0	1.7048576026738688e+18
14285.0	1.7045347251519485e+18
14286.0	1.7042108628074493e+18
14287.0	1.7038896244195328e+18
14288.0	1.7035665556373504e+18
14289.0	1.7021113284427753e+18
14290.0	1.7029082210369533e+18
14291.0	1.7025598941560832e+18
14292.0	1.7022386473795581e+18
14293.0	1.7019138069233656e+18
14294.0	1.7014450380865533e+18
14295.0	1.701257806033715e+18
14296.0	1.7000343359455237e+18
14297.0	1.7006253351895035e+18
14298.0	1.7000768426999805e+18
14299.0	1.6999691984044027e+18
14300.0	1.6996526928691195e+18
14301.0	1.6993355229560827e+18
14302.0	1.6990156452003837e+18
14303.0	1.698659526980403e+18
14304.0	1.698355476850278e+18
14305.0	1.6980511314411515e+18
14306.0	1.6977102016348157e+18
14307.0	1.6973995177934848e+18
14308.0	1.6970867904872448e+18
14309.0	1.696761230288486e+18
14310.0	1.6963475930611707e+18
14311.0	1.6959945886924797e+18
14312.0	1.6957506496495613e+18
14313.0	1.6953529205784576e+18
14314.0	1.695156555009228e+18
14315.0	1.6948404454162432e+18
14316.0	1.6944642146697213e+18
14317.0	1.6941859158884347e+18
14318.0	1.6938585789825021e+18
14319.0	1.6935214072725504e+18
14320.0	1.6932001286193147e+18
14321.0	1.6928772460642304e+18
14322.0	1.692517072791142e+18
14323.0	1.692218371237478e+18
14324.0	1.6919189616852984e+18
14325.0	1.6915887105769467e+18
14326.0	1.6912783589244923e+18
14327.0	1.6909512267005947e+18
14328.0	1.6906306560458747e+18
14329.0	1.6903178297540603e+18
14330.0	1.6899977657712637e+18
14331.0	1.6896774182535165e+18
14332.0	1.6893577384689661e+18
14333.0	1.6890378875568125e+18
14334.0	1.6887180383223803e+18
14335.0	1.6883830543613947e+18
14336.0	1.68803978748887e+18
14337.0	1.687755779420979e+18
14338.0	1.6874357255045112e+18
14339.0	1.6871077644861437e+18
14340.0	1.6867996911796221e+18
14341.0	1.6864780685934587e+18
14342.0	1.6861588115947515e+18
14343.0	1.6858371688759296e+18
14344.0	1.6855170629500923e+18
14345.0	1.685203416252416e+18
14346.0	1.6848806897254397e+18
14347.0	1.684542190937702e+18
14348.0	1.6842453902426107e+18
14349.0	1.6839273126821888e+18
14350.0	1.6835610694123515e+18
14351.0	1.683216576125337e+18
14352.0	1.6829232516694013e+18
14353.0	1.6826121299427325e+18
14354.0	1.6822911230803965e+18
14355.0	1.6819666181685243e+18
14356.0	1.6816505521963005e+18
14357.0	1.6813398364782587e+18
14358.0	1.6810210542747648e+18
14359.0	1.6806873420267515e+18
14360.0	1.6803814547914747e+18
14361.0	1.6800649123463163e+18
14362.0	1.679747626670489e+18
14363.0	1.6794289803624448e+18
14364.0	1.6790244279975939e+18
14365.0	1.6787750179045376e+18
14366.0	1.67845861303255e+18
14367.0	1.6781570006319096e+18
14368.0	1.6778384600203261e+18
14369.0	1.6775211223351296e+18
14370.0	1.6772033283096576e+18
14371.0	1.6768856315920381e+18
14372.0	1.6765621719007224e+18
14373.0	1.6761147772370944e+18
14374.0	1.6754962482593784e+18
14375.0	1.6751770717913085e+18
14376.0	1.6748621466697728e+18
14377.0	1.6745441429291005e+18
14378.0	1.6742246007177216e+18
14379.0	1.6739103617843197e+18
14380.0	1.67359183627223e+18
14381.0	1.6732639524290557e+18
14382.0	1.6729573706170365e+18
14383.0	1.672636234570137e+18
14384.0	1.6723056210739195e+18
14385.0	1.6720083220955133e+18
14386.0	1.6716759436361725e+18
14387.0	1.6713443688054784e+18
14388.0	1.6710193303781379e+18
14389.0	1.6707044673323003e+18
14390.0	1.6703857706926077e+18
14391.0	1.670071251579699e+18
14392.0	1.669752893839769e+18
14393.0	1.669438371371417e+18
14394.0	1.6690817531903997e+18
14395.0	1.6687926431711224e+18
14396.0	1.6684887859789816e+18
14397.0	1.6681725253910523e+18
14398.0	1.6678554225868795e+18
14399.0	1.6675396820926461e+18
14400.0	1.6672020641087485e+18
14401.0	1.6668998980599803e+18
14402.0	1.666588819954073e+18
14403.0	1.6648308747403238e+18
14404.0	1.6604895989727212e+18
14405.0	1.6637309923360727e+18
14406.0	1.665324452046438e+18
14407.0	1.662836785178215e+18
14408.0	1.664293896454144e+18
14409.0	1.6639746210004992e+18
14410.0	1.663674147772825e+18
14411.0	1.6633644890193915e+18
14412.0	1.663045832645017e+18
14413.0	1.6627344861036541e+18
14414.0	1.6624159975014397e+18
14415.0	1.6621016595824635e+18
14416.0	1.6617855063687165e+18
14417.0	1.661463627091148e+18
14418.0	1.6611371256905723e+18
14419.0	1.6608388133683197e+18
14420.0	1.660519200692633e+18
14421.0	1.6602089681584125e+18
14422.0	1.6598890115497984e+18
14423.0	1.6595636157677565e+18
14424.0	1.6511100111552466e+18
14425.0	1.6589365488648187e+18
14426.0	1.6586332017000448e+18
14427.0	1.6583179729108992e+18
14428.0	1.6579476158676987e+18
14429.0	1.6576473104121853e+18
14430.0	1.6573381532975104e+18
14431.0	1.6568686093533184e+18
14432.0	1.656701412651827e+18
14433.0	1.6548628780810227e+18
14434.0	1.6560591690792957e+18
14435.0	1.655733635724083e+18
14436.0	1.6554492719792123e+18
14437.0	1.655134767965798e+18
14438.0	1.654769642058547e+18
14439.0	1.654493866570547e+18
14440.0	1.6541900580323325e+18
14441.0	1.653865442390835e+18
14442.0	1.6535448197267453e+18
14443.0	1.6531843008430077e+18
14444.0	1.652927178263756e+18
14445.0	1.652617930552115e+18
14446.0	1.649988559962113e+18
14447.0	1.651974522640793e+18
14448.0	1.6516762690387965e+18
14449.0	1.6513623723606013e+18
14450.0	1.6510424140742653e+18
14451.0	1.650732342601318e+18
14452.0	1.650418122122854e+18
14453.0	1.6500805376933885e+18
14454.0	1.649791410896896e+18
14455.0	1.6494677280686077e+18
14456.0	1.6491580122726397e+18
14457.0	1.6488414345953277e+18
14458.0	1.648533498861977e+18
14459.0	1.6482172751839232e+18
14460.0	1.647902693995315e+18
14461.0	1.647557184009011e+18
14462.0	1.6471630888828925e+18
14463.0	1.6469537478148093e+18
14464.0	1.6466508251135997e+18
14465.0	1.6463111653425147e+18
14466.0	1.646023184429875e+18
14467.0	1.6456758071394304e+18
14468.0	1.6453938509250557e+18
14469.0	1.6450529127301115e+18
14470.0	1.6447392073121784e+18
14471.0	1.644446934787686e+18
14472.0	1.6441395241811965e+18
14473.0	1.6438314928177147e+18
14474.0	1.6435201932525563e+18
14475.0	1.6432035501441021e+18
14476.0	1.6427969778024443e+18
14477.0	1.6425634205007867e+18
14478.0	1.6422304548388861e+18
14479.0	1.64191888516055e+18
14480.0	1.641587620708352e+18
14481.0	1.6412948784218107e+18
14482.0	1.6409775440920576e+18
14483.0	1.6406569348497403e+18
14484.0	1.64034342069207e+18
14485.0	1.6400003266248704e+18
14486.0	1.6393853829382141e+18
14487.0	1.639416073499443e+18
14488.0	1.6390948736991232e+18
14489.0	1.6387777188855805e+18
14490.0	1.6384724758953981e+18
14491.0	1.6381645720387581e+18
14492.0	1.6378536499609597e+18
14493.0	1.6375362015461376e+18
14494.0	1.6372048045539325e+18
14495.0	1.6369155234070525e+18
14496.0	1.6364481403682819e+18
14497.0	1.6362892148342781e+18
14498.0	1.6359780612308987e+18
14499.0	1.6356659379044344e+18
14500.0	1.6352424474181632e+18
14501.0	1.634735614433689e+18
14502.0	1.6341856640040957e+18
14503.0	1.6341383790985213e+18
14504.0	1.6338400164446203e+18
14505.0	1.633492961276723e+18
14506.0	1.633136297797222e+18
14507.0	1.6326270455382013e+18
14508.0	1.6325986232565757e+18
14509.0	1.6322868069531643e+18
14510.0	1.6319709876060152e+18
14511.0	1.6316623707176957e+18
14512.0	1.6313326178926592e+18
14513.0	1.631038484774912e+18
14514.0	1.63068671688704e+18
14515.0	1.6304130653945856e+18
14516.0	1.627204531886491e+18
14517.0	1.6297875436732413e+18
14518.0	1.6294786700935168e+18
14519.0	1.6291670349840381e+18
14520.0	1.6288541885595648e+18
14521.0	1.6285424511090685e+18
14522.0	1.628230440189952e+18
14523.0	1.6278142863802368e+18
14524.0	1.627508603826995e+18
14525.0	1.6272897785987072e+18
14526.0	1.6269817438797824e+18
14527.0	1.6266427501641725e+18
14528.0	1.6262066616664067e+18
14529.0	1.6260360390574077e+18
14530.0	1.6257170370723837e+18
14531.0	1.625422935831347e+18
14532.0	1.6249781298921467e+18
14533.0	1.624789926438502e+18
14534.0	1.6244575983108093e+18
14535.0	1.6241337594544125e+18
14536.0	1.623829771399987e+18
14537.0	1.6235081857236992e+18
14538.0	1.6232106501865467e+18
14539.0	1.6228990066884605e+18
14540.0	1.6225872373612544e+18
14541.0	1.622250426361446e+18
14542.0	1.6219613415079933e+18
14543.0	1.621579431673856e+18
14544.0	1.6213390410121216e+18
14545.0	1.6210195893977085e+18
14546.0	1.6099766379216845e+18
14547.0	1.6105917158260667e+18
14548.0	1.620075198231347e+18
14549.0	1.6196414015012861e+18
14550.0	1.6194600616067067e+18
14551.0	1.6191585129594875e+18
14552.0	1.6188451162423296e+18
14553.0	1.618525537121075e+18
14554.0	1.618223956597145e+18
14555.0	1.6179119440003067e+18
14556.0	1.6175982268383224e+18
14557.0	1.6172888952406016e+18
14558.0	1.6169759716409341e+18
14559.0	1.6145314926821343e+18
14560.0	1.6163478058303485e+18
14561.0	1.6155814393806848e+18
14562.0	1.6151935065260032e+18
14563.0	1.6149088458244093e+18
14564.0	1.6145846227697661e+18
14565.0	1.614286543650816e+18
14566.0	1.613974666949427e+18
14567.0	1.6136618909892605e+18
14568.0	1.61333379072e+18
14569.0	1.6130378943168507e+18
14570.0	1.612130832456089e+18
14571.0	1.6124104868364285e+18
14572.0	1.6120547377151995e+18
14573.0	1.6117357860618237e+18
14574.0	1.611446387474432e+18
14575.0	1.6111624314159104e+18
14576.0	1.6108473049677821e+18
14577.0	1.6105344434438141e+18
14578.0	1.6102274321350653e+18
14579.0	1.6099177918365693e+18
14580.0	1.6096057842728957e+18
14581.0	1.609288564028211e+18
14582.0	1.60898056454144e+18
14583.0	1.608668984796774e+18
14584.0	1.6083408727834621e+18
14585.0	1.6080441291309053e+18
14586.0	1.6077279457181693e+18
14587.0	1.6074175135350781e+18
14588.0	1.607107004176793e+18
14589.0	1.606801321623552e+18
14590.0	1.6064955920941053e+18
14591.0	1.6061880103600123e+18
14592.0	1.6058771923009533e+18
14593.0	1.605441806768537e+18
14594.0	1.6052712177139707e+18
14595.0	1.6049588343406587e+18
14596.0	1.604571278973337e+18
14597.0	1.604254132548403e+18
14598.0	1.6040215869128704e+18
14599.0	1.6037082791149565e+18
14600.0	1.6034000095150077e+18
14601.0	1.6030949913395197e+18
14602.0	1.6027819821760507e+18
14603.0	1.6024818193268733e+18
14604.0	1.6021223892844544e+18
14605.0	1.6018496068517888e+18
14606.0	1.6014805131329533e+18
14607.0	1.6012416542310397e+18
14608.0	1.6009452209569787e+18
14609.0	1.6006333224452093e+18
14610.0	1.600302861621657e+18
14611.0	1.600020024603443e+18
14612.0	1.5997210177044477e+18
14613.0	1.5994151422132221e+18
14614.0	1.5991039936430077e+18
14615.0	1.598799992166809e+18
14616.0	1.598494208950272e+18
14617.0	1.5981865852731387e+18
14618.0	1.597874213643878e+18
14619.0	1.5975116093521912e+18
14620.0	1.5970562673213437e+18
14621.0	1.5969568572833787e+18
14622.0	1.5966459100397565e+18
14623.0	1.5963415797301243e+18
14624.0	1.5959660251054077e+18
14625.0	1.5957222521569277e+18
14626.0	1.595415148573491e+18
14627.0	1.595102245106483e+18
14628.0	1.594801652760576e+18
14629.0	1.5944933982601216e+18
14630.0	1.5941829442666493e+18
14631.0	1.593875979934105e+18
14632.0	1.5928982574727168e+18
14633.0	1.593167008340377e+18
14634.0	1.592946470158336e+18
14635.0	1.5925444578639862e+18
14636.0	1.592106099408896e+18
14637.0	1.592024342357606e+18
14638.0	1.5917102762295293e+18
14639.0	1.5913902843887613e+18
14640.0	1.5910902356246528e+18
14641.0	1.58817412395827e+18
14642.0	1.5904690491359232e+18
14643.0	1.590165322806067e+18
14644.0	1.5898428798140413e+18
14645.0	1.5895177088466941e+18
14646.0	1.589222652982067e+18
14647.0	1.5889035889213437e+18
14648.0	1.588610824824422e+18
