# Flux units: erg / (cm m2 s)
# Wavelength units: Angstrom
wave	flux
14000.0	2.323151558436454e+18
14001.0	2.322659335051673e+18
14002.0	2.3222123178754043e+18
14003.0	2.3217258608197627e+18
14004.0	2.321239039698534e+18
14005.0	2.3207520692600827e+18
14006.0	2.320260654537113e+18
14007.0	2.3197713856200704e+18
14008.0	2.319227904484966e+18
14009.0	2.318799357345792e+18
14010.0	2.3183060954513403e+18
14011.0	2.3174533968035835e+18
14012.0	2.317341902136934e+18
14013.0	2.3168605487103995e+18
14014.0	2.316370870429286e+18
14015.0	2.3158881295269883e+18
14016.0	2.3154039877271547e+18
14017.0	2.3149187151429627e+18
14018.0	2.3144332949192694e+18
14019.0	2.313948131386982e+18
14020.0	2.3134624628604923e+18
14021.0	2.312976968817049e+18
14022.0	2.3124923706769403e+18
14023.0	2.3119989393326075e+18
14024.0	2.3115139855155195e+18
14025.0	2.3110387960381435e+18
14026.0	2.3105533724590075e+18
14027.0	2.3100701517283323e+18
14028.0	2.309585890810265e+18
14029.0	2.3091003850227707e+18
14030.0	2.3083954919702523e+18
14031.0	2.308104581755699e+18
14032.0	2.307648667621785e+18
14033.0	2.3071359710003195e+18
14034.0	2.3066832881582075e+18
14035.0	2.3062004616921083e+18
14036.0	2.3057174322216955e+18
14037.0	2.3052344413388795e+18
14038.0	2.3047515460861942e+18
14039.0	2.3042654061199355e+18
14040.0	2.303782007550771e+18
14041.0	2.3033017060556792e+18
14042.0	2.3028134806814715e+18
14043.0	2.3023138870657021e+18
14044.0	2.3018496749207547e+18
14045.0	2.301372207097446e+18
14046.0	2.300888030065459e+18
14047.0	2.3004052505755643e+18
14048.0	2.2999280528654328e+18
14049.0	2.2994470735708157e+18
14050.0	2.2989655557275643e+18
14051.0	2.2984785433460728e+18
14052.0	2.2979989850816504e+18
14053.0	2.297521607855308e+18
14054.0	2.2970407845887995e+18
14055.0	2.2965598824693752e+18
14056.0	2.296079074302361e+18
14057.0	2.295598420485734e+18
14058.0	2.295117857266073e+18
14059.0	2.2946374148423677e+18
14060.0	2.2941570546270205e+18
14061.0	2.2936727551213565e+18
14062.0	2.293196468414054e+18
14063.0	2.29270596133847e+18
14064.0	2.2922023277690875e+18
14065.0	2.2917517890551805e+18
14066.0	2.2912775844003832e+18
14067.0	2.2907960665571323e+18
14068.0	2.290318756439654e+18
14069.0	2.2898388324319227e+18
14070.0	2.2893602220802043e+18
14071.0	2.288879618595225e+18
14072.0	2.288402462828134e+18
14073.0	2.2879236964483067e+18
14074.0	2.287445032409497e+18
14075.0	2.286953204967014e+18
14076.0	2.2864852112375803e+18
14077.0	2.2859589217157117e+18
14078.0	2.2855267892854781e+18
14079.0	2.2850460817817592e+18
14080.0	2.2845753164562427e+18
14081.0	2.2840975801974776e+18
14082.0	2.2836181074968573e+18
14083.0	2.283140804090265e+18
14084.0	2.2826620108668923e+18
14085.0	2.282012697375539e+18
14086.0	2.281700510295654e+18
14087.0	2.2812322565193723e+18
14088.0	2.2807476416020477e+18
14089.0	2.2802772336312315e+18
14090.0	2.279802065964236e+18
14091.0	2.2793259168301048e+18
14092.0	2.2788494841610232e+18
14093.0	2.278373029681561e+18
14094.0	2.2778965886238717e+18
14095.0	2.277419843898572e+18
14096.0	2.2769351165739005e+18
14097.0	2.2764550432489472e+18
14098.0	2.275988477260595e+18
14099.0	2.2755163798241277e+18
14100.0	2.275033919101337e+18
14101.0	2.2745660042248187e+18
14102.0	2.2740905278570493e+18
14103.0	2.2736069095063547e+18
14104.0	2.2731403904942077e+18
14105.0	2.2726652144386043e+18
14106.0	2.2721904544579584e+18
14107.0	2.2717151173410808e+18
14108.0	2.271231844601036e+18
14109.0	2.2707631713943552e+18
14110.0	2.2702890690805755e+18
14111.0	2.2698116532666365e+18
14112.0	2.2693366634381312e+18
14113.0	2.268868956599091e+18
14114.0	2.2683845950177277e+18
14115.0	2.2679187789709304e+18
14116.0	2.2674276813373437e+18
14117.0	2.266578411952537e+18
14118.0	2.266494542649753e+18
14119.0	2.2660158752555005e+18
14120.0	2.265548139895193e+18
14121.0	2.265070249286041e+18
14122.0	2.2646039685103613e+18
14123.0	2.264128721990451e+18
14124.0	2.2636498868240381e+18
14125.0	2.2628772893163512e+18
14126.0	2.2627112049442813e+18
14127.0	2.262243298456371e+18
14128.0	2.261770883930521e+18
14129.0	2.261290731752652e+18
14130.0	2.2608108077449213e+18
14131.0	2.260354774492774e+18
14132.0	2.259872555361894e+18
14133.0	2.2590476464947192e+18
14134.0	2.2589328047734781e+18
14135.0	2.258457929030041e+18
14136.0	2.257992044196659e+18
14137.0	2.2575243642011643e+18
14138.0	2.2570517785477117e+18
14139.0	2.256583214392934e+18
14140.0	2.2561087278809085e+18
14141.0	2.2556340987625472e+18
14142.0	2.255148270852505e+18
14143.0	2.2546967137615864e+18
14144.0	2.2542306393456632e+18
14145.0	2.2537607162363896e+18
14146.0	2.2532896791199736e+18
14147.0	2.2528200865218555e+18
14148.0	2.2523504737910781e+18
14149.0	2.2518810489651192e+18
14150.0	2.2514112667844603e+18
14151.0	2.2509401323601917e+18
14152.0	2.2504722493603837e+18
14153.0	2.250002750714675e+18
14154.0	2.2495139213606904e+18
14155.0	2.2490588662202365e+18
14156.0	2.2485941859909627e+18
14157.0	2.248125984224051e+18
14158.0	2.247654510900019e+18
14159.0	2.2471882267688957e+18
14160.0	2.2467112740061181e+18
14161.0	2.2462122256498683e+18
14162.0	2.24571046274007e+18
14163.0	2.2453103496265728e+18
14164.0	2.2448276422787067e+18
14165.0	2.2443383498735608e+18
14166.0	2.2439057107714043e+18
14167.0	2.2434312611692544e+18
14168.0	2.2429741625638904e+18
14169.0	2.2425076150304765e+18
14170.0	2.2420383596543995e+18
14171.0	2.241571006814617e+18
14172.0	2.2411051521802237e+18
14173.0	2.2406129539612667e+18
14174.0	2.240165648216883e+18
14175.0	2.239704472748032e+18
14176.0	2.2392379235368955e+18
14177.0	2.238771310572339e+18
14178.0	2.238303853713817e+18
14179.0	2.2378333786341373e+18
14180.0	2.2373720286822395e+18
14181.0	2.2369058485698557e+18
14182.0	2.236439238960742e+18
14183.0	2.2359735957192701e+18
14184.0	2.235504021576089e+18
14185.0	2.2350398396301312e+18
14186.0	2.234490305275494e+18
14187.0	2.2340885211512827e+18
14188.0	2.2336441782632445e+18
14189.0	2.233179085314457e+18
14190.0	2.2327140947066875e+18
14191.0	2.2322487383556093e+18
14192.0	2.2317785568772096e+18
14193.0	2.231307955968409e+18
14194.0	2.2308541356310528e+18
14195.0	2.2303907908681723e+18
14196.0	2.2299262196908027e+18
14197.0	2.22931900694528e+18
14198.0	2.2287984401317883e+18
14199.0	2.2283351490559992e+18
14200.0	2.2278297740115965e+18
14201.0	2.227402958281113e+18
14202.0	2.226943322960691e+18
14203.0	2.2264740273192955e+18
14204.0	2.2260131924279293e+18
14205.0	2.2255484618670075e+18
14206.0	2.2250023953629181e+18
14207.0	2.2246210660204544e+18
14208.0	2.2241590701457405e+18
14209.0	2.2236062071914493e+18
14210.0	2.2231656223997947e+18
14211.0	2.2227654992199675e+18
14212.0	2.222306335339315e+18
14213.0	2.2218439535886333e+18
14214.0	2.221380640702464e+18
14215.0	2.2207596840615933e+18
14216.0	2.2202421354692603e+18
14217.0	2.2197790708858875e+18
14218.0	2.219306745279283e+18
14219.0	2.2188530893586427e+18
14220.0	2.2183903787745275e+18
14221.0	2.217927384655462e+18
14222.0	2.217455956629913e+18
14223.0	2.217002238633574e+18
14224.0	2.2165393049124861e+18
14225.0	2.2159516896329723e+18
14226.0	2.2156112597876728e+18
14227.0	2.2151526160007165e+18
14228.0	2.214411786151526e+18
14229.0	2.214170348591513e+18
14230.0	2.2137678833123328e+18
14231.0	2.2133036107694075e+18
14232.0	2.2128454568771581e+18
14233.0	2.2123815031013373e+18
14234.0	2.2119228710584317e+18
14235.0	2.2112663987290104e+18
14236.0	2.2107773210722301e+18
14237.0	2.2103147312840701e+18
14238.0	2.2098530105556987e+18
14239.0	2.2093835387535355e+18
14240.0	2.2079749169872896e+18
14241.0	2.2084578206285821e+18
14242.0	2.2080035489841152e+18
14243.0	2.207444902923468e+18
14244.0	2.2070868737785853e+18
14245.0	2.2066184555855867e+18
14246.0	2.2061565251420155e+18
14247.0	2.2057030604816376e+18
14248.0	2.2052373685862395e+18
14249.0	2.2047850045112315e+18
14250.0	2.2043248960733181e+18
14251.0	2.2038665257549821e+18
14252.0	2.2034064995254267e+18
14253.0	2.2029458978373624e+18
14254.0	2.2024847307571192e+18
14255.0	2.20200410546176e+18
14256.0	2.201434176723353e+18
14257.0	2.201076917652684e+18
14258.0	2.2004242503958523e+18
14259.0	2.199950290688409e+18
14260.0	2.19950005396439e+18
14261.0	2.1990294597664768e+18
14262.0	2.1986078600724475e+18
14263.0	2.1979554243411968e+18
14264.0	2.1976208732323832e+18
14265.0	2.1972274240290808e+18
14266.0	2.1967748854710264e+18
14267.0	2.1963166174937083e+18
14268.0	2.19585798209536e+18
14269.0	2.1953951423266816e+18
14270.0	2.1949404109864957e+18
14271.0	2.1944810793336827e+18
14272.0	2.1940216939937787e+18
14273.0	2.1935552102137848e+18
14274.0	2.1927856342827005e+18
14275.0	2.1926007158079483e+18
14276.0	2.1921757875142656e+18
14277.0	2.191723248956211e+18
14278.0	2.1912745624469496e+18
14279.0	2.1908162827255805e+18
14280.0	2.1903554662891515e+18
14281.0	2.1899026190303227e+18
14282.0	2.1894454751264765e+18
14283.0	2.1887964082601984e+18
14284.0	2.188299307738726e+18
14285.0	2.187841432348262e+18
14286.0	2.1873834562945024e+18
14287.0	2.1869253695111165e+18
14288.0	2.1864627243581437e+18
14289.0	2.1853948260384755e+18
14290.0	2.185547973499289e+18
14291.0	2.1850953091121147e+18
14292.0	2.1846393530351616e+18
14293.0	2.1841800465481728e+18
14294.0	2.1836333693534205e+18
14295.0	2.1832519225704443e+18
14296.0	2.1823172118577152e+18
14297.0	2.1823416193515517e+18
14298.0	2.18178633376727e+18
14299.0	2.1814307121528827e+18
14300.0	2.1809802573250557e+18
14301.0	2.1805268413186045e+18
14302.0	2.1800731031896056e+18
14303.0	2.1795912229584893e+18
14304.0	2.1791507673513984e+18
14305.0	2.178704968201011e+18
14306.0	2.1782409859039227e+18
14307.0	2.1777884876111867e+18
14308.0	2.1773373482729464e+18
14309.0	2.1768789326561277e+18
14310.0	2.1763592164474875e+18
14311.0	2.1757194106044408e+18
14312.0	2.175258092529254e+18
14313.0	2.1747805626302461e+18
14314.0	2.1743656872443896e+18
14315.0	2.173910424066457e+18
14316.0	2.1734225359142904e+18
14317.0	2.17299616310231e+18
14318.0	2.1725471829917693e+18
14319.0	2.1720931042852856e+18
14320.0	2.1716380206235643e+18
14321.0	2.171183284250214e+18
14322.0	2.1707025582915581e+18
14323.0	2.1702586197344253e+18
14324.0	2.169819526437273e+18
14325.0	2.1693571279093757e+18
14326.0	2.1689110586458104e+18
14327.0	2.16845146694615e+18
14328.0	2.1679983009202173e+18
14329.0	2.1675484634939392e+18
14330.0	2.1670944518963192e+18
14331.0	2.1666402993700861e+18
14332.0	2.1661865562079227e+18
14333.0	2.165732766069555e+18
14334.0	2.1652789809643517e+18
14335.0	2.16481789944791e+18
14336.0	2.1643561384542203e+18
14337.0	2.163915684524851e+18
14338.0	2.1634626443280376e+18
14339.0	2.1630023093977083e+18
14340.0	2.1625581242155005e+18
14341.0	2.162104667943731e+18
14342.0	2.1616303273934843e+18
14343.0	2.16095432638464e+18
14344.0	2.1604984340611072e+18
14345.0	2.1600489942548477e+18
14346.0	2.1595939022045181e+18
14347.0	2.159135389279846e+18
14348.0	2.158688397269401e+18
14349.0	2.1582359342088187e+18
14350.0	2.1577716750876667e+18
14351.0	2.157314306369126e+18
14352.0	2.1568709449482237e+18
14353.0	2.1564238757625848e+18
14354.0	2.1559703322492925e+18
14355.0	2.155515560643788e+18
14356.0	2.1550638676574203e+18
14357.0	2.15461488754688e+18
14358.0	2.15416269963264e+18
14359.0	2.1536977358684157e+18
14360.0	2.153257312138035e+18
14361.0	2.1528058657767424e+18
14362.0	2.152354348951142e+18
14363.0	2.1519018741465085e+18
14364.0	2.1514158398767101e+18
14365.0	2.1509871820079101e+18
14366.0	2.1505412570284027e+18
14367.0	2.15009598636032e+18
14368.0	2.1496443151843328e+18
14369.0	2.1491933134192637e+18
14370.0	2.1487420516073464e+18
14371.0	2.148290888781004e+18
14372.0	2.1478357866643456e+18
14373.0	2.1473884708536317e+18
14374.0	2.1469377039695867e+18
14375.0	2.1464868079009787e+18
14376.0	2.1460359705526272e+18
14377.0	2.145584816114892e+18
14378.0	2.1451327741624315e+18
14379.0	2.1445773879148536e+18
14380.0	2.14398441399255e+18
14381.0	2.1435197840949245e+18
14382.0	2.1430571389419515e+18
14383.0	2.1426048033882104e+18
14384.0	2.14214161465344e+18
14385.0	2.141705797946572e+18
14386.0	2.1412431494381565e+18
14387.0	2.1408042306240512e+18
14388.0	2.1403528312389627e+18
14389.0	2.1399029854240763e+18
14390.0	2.1394517286453243e+18
14391.0	2.139002746857062e+18
14392.0	2.138551860854784e+18
14393.0	2.1381025250672635e+18
14394.0	2.137623377844633e+18
14395.0	2.1371942518915067e+18
14396.0	2.1367522578137088e+18
14397.0	2.1363023247572987e+18
14398.0	2.1358518950952955e+18
14399.0	2.1354019620388861e+18
14400.0	2.1349398487236608e+18
14401.0	2.1344950679502843e+18
14402.0	2.1340413398876155e+18
14403.0	2.1328837824479222e+18
14404.0	2.1304435883900913e+18
14405.0	2.1316563076382697e+18
14406.0	2.132235950384742e+18
14407.0	2.1308852637007872e+18
14408.0	2.1313238855581693e+18
14409.0	2.13089362378752e+18
14410.0	2.1304563776618493e+18
14411.0	2.1300106892410877e+18
14412.0	2.1295608887246845e+18
14413.0	2.1291147422859261e+18
14414.0	2.128664455230259e+18
14415.0	2.1282166495248381e+18
14416.0	2.1277682985598973e+18
14417.0	2.1273164780666875e+18
14418.0	2.126865300140851e+18
14419.0	2.1264216786731003e+18
14420.0	2.1258331322580987e+18
14421.0	2.1252734443323387e+18
14422.0	2.124815577330483e+18
14423.0	2.1243237347885053e+18
14424.0	2.120148900747672e+18
14425.0	2.123416830633574e+18
14426.0	2.1230240810401787e+18
14427.0	2.1225822916444157e+18
14428.0	2.1221181432528893e+18
14429.0	2.121685036066406e+18
14430.0	2.1212386866233344e+18
14431.0	2.1207312697917435e+18
14432.0	2.1203303815708667e+18
14433.0	2.1191943341998072e+18
14434.0	2.1194272086687744e+18
14435.0	2.1189873587191803e+18
14436.0	2.1185515520786427e+18
14437.0	2.1181040416522237e+18
14438.0	2.1176373733228544e+18
14439.0	2.1172011170529275e+18
14440.0	2.1167609802129408e+18
14441.0	2.116310124409651e+18
14442.0	2.115859729979801e+18
14443.0	2.1153856427655163e+18
14444.0	2.1149664774455293e+18
14445.0	2.114516517545574e+18
14446.0	2.1129541091065859e+18
14447.0	2.1135961916178424e+18
14448.0	2.113181185369702e+18
14449.0	2.1127362921889787e+18
14450.0	2.112285156206182e+18
14451.0	2.1118418686050296e+18
14452.0	2.1113934203322363e+18
14453.0	2.1109393416257533e+18
14454.0	2.1105017867993083e+18
14455.0	2.1100491341561853e+18
14456.0	2.1096062022320125e+18
14457.0	2.109158716971417e+18
14458.0	2.1087141442355197e+18
14459.0	2.1082660801609725e+18
14460.0	2.1078192559226877e+18
14461.0	2.1073608101068797e+18
14462.0	2.106918857972121e+18
14463.0	2.10647739573207e+18
14464.0	2.106035722099097e+18
14465.0	2.105577410501017e+18
14466.0	2.1051427430334461e+18
14467.0	2.1046790476267517e+18
14468.0	2.1042489016188925e+18
14469.0	2.1037552957915133e+18
14470.0	2.1030943506563067e+18
14471.0	2.1026618323501048e+18
14472.0	2.1022172814245883e+18
14473.0	2.1017749333475328e+18
14474.0	2.1013303639670776e+18
14475.0	2.100881039923609e+18
14476.0	2.1003950559854587e+18
14477.0	2.099991956527513e+18
14478.0	2.0995440233152504e+18
14479.0	2.0991002323976187e+18
14480.0	2.098615785252454e+18
14481.0	2.0981813493104637e+18
14482.0	2.0977320269447165e+18
14483.0	2.0972820016136187e+18
14484.0	2.0968318907187197e+18
14485.0	2.096366066283315e+18
14486.0	2.095740203984486e+18
14487.0	2.0955032090312701e+18
14488.0	2.0950560660258816e+18
14489.0	2.094609983340544e+18
14490.0	2.0941678617559037e+18
14491.0	2.0937234165268477e+18
14492.0	2.0932793806618621e+18
14493.0	2.092830023063961e+18
14494.0	2.0923722298818555e+18
14495.0	2.0919395085713403e+18
14496.0	2.0914027819433981e+18
14497.0	2.0910505409380347e+18
14498.0	2.09060749157335e+18
14499.0	2.0901624037769208e+18
14500.0	2.089716391555891e+18
14501.0	2.0892441649348605e+18
14502.0	2.0886757478236155e+18
14503.0	2.0883683959373824e+18
14504.0	2.087930758902579e+18
14505.0	2.0874661105500155e+18
14506.0	2.0870005981708283e+18
14507.0	2.0864272334585853e+18
14508.0	2.086154977830502e+18
14509.0	2.085712618009395e+18
14510.0	2.0852661125382136e+18
14511.0	2.0848226940747773e+18
14512.0	2.0843677832183805e+18
14513.0	2.0839322097811448e+18
14514.0	2.0834649475383293e+18
14515.0	2.0830353602117627e+18
14516.0	2.081054950791578e+18
14517.0	2.0821301270675453e+18
14518.0	2.0817094484426752e+18
14519.0	2.0812673402798075e+18
14520.0	2.0808236215042043e+18
14521.0	2.08037931384832e+18
14522.0	2.0799338754080763e+18
14523.0	2.0794398769938427e+18
14524.0	2.0789954737078267e+18
14525.0	2.0785977228263421e+18
14526.0	2.0779164034400256e+18
14527.0	2.0774504598863864e+18
14528.0	2.0769401875726333e+18
14529.0	2.0765708841385984e+18
14530.0	2.0761214913085435e+18
14531.0	2.0756869865799675e+18
14532.0	2.0751845156716544e+18
14533.0	2.074797591127654e+18
14534.0	2.074356617104588e+18
14535.0	2.0739030551363581e+18
14536.0	2.0734636934037501e+18
14537.0	2.0730140203941888e+18
14538.0	2.072577943640473e+18
14539.0	2.0721334799564797e+18
14540.0	2.0716886471737344e+18
14541.0	2.0712246095118333e+18
14542.0	2.070795394639462e+18
14543.0	2.0703139439050747e+18
14544.0	2.0699031420272637e+18
14545.0	2.0694423323017208e+18
14546.0	2.0648584697348076e+18
14547.0	2.0647202422521828e+18
14548.0	2.068101044214169e+18
14549.0	2.0675959241834493e+18
14550.0	2.0672344355766264e+18
14551.0	2.0667986574573565e+18
14552.0	2.0663544471093243e+18
14553.0	2.0659071195545597e+18
14554.0	2.065467423955353e+18
14555.0	2.0650229250392061e+18
14556.0	2.064577657726566e+18
14557.0	2.0641333836251128e+18
14558.0	2.0636802058551293e+18
14559.0	2.062105291679332e+18
14560.0	2.062790333929881e+18
14561.0	2.0623524670472187e+18
14562.0	2.061895487560089e+18
14563.0	2.0614692439326717e+18
14564.0	2.0610232702992376e+18
14565.0	2.0605830009192445e+18
14566.0	2.0601392653664253e+18
14567.0	2.0596946255216635e+18
14568.0	2.0592446152900605e+18
14569.0	2.058802718520115e+18
14570.0	2.058045067834163e+18
14571.0	2.0579139052371965e+18
14572.0	2.057447731835699e+18
14573.0	2.0569940473937915e+18
14574.0	2.0565796031823867e+18
14575.0	2.0561401894404096e+18
14576.0	2.0556977256005627e+18
14577.0	2.0552495877062653e+18
14578.0	2.0548103870349312e+18
14579.0	2.0543679080955901e+18
14580.0	2.0539241557655547e+18
14581.0	2.053477630161715e+18
14582.0	2.0530360186044416e+18
14583.0	2.0525922025209853e+18
14584.0	2.052140400482713e+18
14585.0	2.0517040536158205e+18
14586.0	2.051258277953536e+18
14587.0	2.050816109392691e+18
14588.0	2.0503730801606648e+18
14589.0	2.049934265365299e+18
14590.0	2.0494553916112893e+18
14591.0	2.0488188170600445e+18
14592.0	2.048373142061056e+18
14593.0	2.0478564138745853e+18
14594.0	2.0474987437621245e+18
14595.0	2.047056679220019e+18
14596.0	2.0465884287991805e+18
14597.0	2.0461447569997821e+18
14598.0	2.0457379279667197e+18
14599.0	2.045302951798374e+18
14600.0	2.04486315385815e+18
14601.0	2.0444234582589435e+18
14602.0	2.0439828181024765e+18
14603.0	2.0435429631197181e+18
14604.0	2.0430744459411448e+18
14605.0	2.0426589380542461e+18
14606.0	2.0421781768634363e+18
14607.0	2.0417792213778427e+18
14608.0	2.0413435120451581e+18
14609.0	2.0409012478541821e+18
14610.0	2.0404620186615805e+18
14611.0	2.040021848267161e+18
14612.0	2.0395849192308733e+18
14613.0	2.039145658161561e+18
14614.0	2.0387035432878075e+18
14615.0	2.0382656629833725e+18
14616.0	2.0378260747583483e+18
14617.0	2.037385699681894e+18
14618.0	2.0369427157483515e+18
14619.0	2.0364710108987387e+18
14620.0	2.0359818594222077e+18
14621.0	2.0356241154899965e+18
14622.0	2.0351824133357565e+18
14623.0	2.0347440834019328e+18
14624.0	2.0342627702407158e+18
14625.0	2.0338597714460664e+18
14626.0	2.0334222568849403e+18
14627.0	2.032979630306099e+18
14628.0	2.032542783478169e+18
14629.0	2.0321021701652477e+18
14630.0	2.0316607851003901e+18
14631.0	2.0312188077998072e+18
14632.0	2.030484203975475e+18
14633.0	2.0302868972044283e+18
14634.0	2.0298958303657976e+18
14635.0	2.029451145222553e+18
14636.0	2.0289982174330877e+18
14637.0	2.0285759667830781e+18
14638.0	2.0281325348978683e+18
14639.0	2.0276841436676093e+18
14640.0	2.0272344001937403e+18
14641.0	2.025636049924914e+18
14642.0	2.02634996744192e+18
14643.0	2.025925555886489e+18
14644.0	2.02547649356759e+18
14645.0	2.0250285905543165e+18
14646.0	2.024595641073664e+18
14647.0	2.024153370171801e+18
14648.0	2.0237175803084797e+18
