# Flux units: erg / (cm m2 s)
# Wavelength units: Angstrom
wave	flux
14000.0	1.819367576279449e+18
14001.0	1.8188892024864763e+18
14002.0	1.818490272166707e+18
14003.0	1.81805503259607e+18
14004.0	1.8176182662987776e+18
14005.0	1.8171817315270653e+18
14006.0	1.8167390948818941e+18
14007.0	1.8162991526576125e+18
14008.0	1.8157920680148987e+18
14009.0	1.8154321732435963e+18
14010.0	1.8149839531409403e+18
14011.0	1.8141311940952061e+18
14012.0	1.814119797332377e+18
14013.0	1.813685440243302e+18
14014.0	1.8132435065634813e+18
14015.0	1.8128108087410688e+18
14016.0	1.812375763786137e+18
14017.0	1.8119393447772155e+18
14018.0	1.811500736341606e+18
14019.0	1.8110685384802304e+18
14020.0	1.8106292035911675e+18
14021.0	1.8101930949607421e+18
14022.0	1.8097556307312637e+18
14023.0	1.8092878383284221e+18
14024.0	1.80886862603223e+18
14025.0	1.8084518128779261e+18
14026.0	1.808016496132096e+18
14027.0	1.8075812464951293e+18
14028.0	1.8071435054415872e+18
14029.0	1.8067077759762432e+18
14030.0	1.8051311907897347e+18
14031.0	1.8058267607433213e+18
14032.0	1.8054088990130176e+18
14033.0	1.8049287552237565e+18
14034.0	1.8045422702428155e+18
14035.0	1.8041062102663165e+18
14036.0	1.8036726853271547e+18
14037.0	1.8032331658887163e+18
14038.0	1.8028083315474432e+18
14039.0	1.8023719813251064e+18
14040.0	1.8019312119840763e+18
14041.0	1.8015061377286136e+18
14042.0	1.8010688345604093e+18
14043.0	1.8006110799659005e+18
14044.0	1.8002006287319035e+18
14045.0	1.7997725043785725e+18
14046.0	1.7993388099895293e+18
14047.0	1.7989004666339325e+18
14048.0	1.7984753554685947e+18
14049.0	1.7980470180446205e+18
14050.0	1.7976144930275328e+18
14051.0	1.7971737807290363e+18
14052.0	1.7967480689393661e+18
14053.0	1.7963186544181243e+18
14054.0	1.795889031859404e+18
14055.0	1.7954531094560765e+18
14056.0	1.7950266779238397e+18
14057.0	1.7945937217323003e+18
14058.0	1.7941644733054976e+18
14059.0	1.793733173025177e+18
14060.0	1.7933034917462016e+18
14061.0	1.7928676196745213e+18
14062.0	1.7924426309828605e+18
14063.0	1.792000432223027e+18
14064.0	1.7914245626724352e+18
14065.0	1.7911467286200315e+18
14066.0	1.790720129315635e+18
14067.0	1.7902551772954621e+18
14068.0	1.789860330550067e+18
14069.0	1.7894276142727165e+18
14070.0	1.7890014763417597e+18
14071.0	1.78857029182423e+18
14072.0	1.7881422798782461e+18
14073.0	1.7877128435466235e+18
14074.0	1.7872848651550715e+18
14075.0	1.7868422620643325e+18
14076.0	1.7863877119180797e+18
14077.0	1.785715413640806e+18
14078.0	1.7855488997720061e+18
14079.0	1.7851355024588797e+18
14080.0	1.784715874087731e+18
14081.0	1.7842872447401984e+18
14082.0	1.783835699393331e+18
14083.0	1.7834298686046203e+18
14084.0	1.7830049436663805e+18
14085.0	1.7822140053061635e+18
14086.0	1.7821275053359104e+18
14087.0	1.7817231895298043e+18
14088.0	1.781284690146099e+18
14089.0	1.780832364658688e+18
14090.0	1.780436083461324e+18
14091.0	1.7800158678876155e+18
14092.0	1.779588067334553e+18
14093.0	1.7791626726342653e+18
14094.0	1.778736625300275e+18
14095.0	1.7783077476499456e+18
14096.0	1.7778230186475523e+18
14097.0	1.7774198839574528e+18
14098.0	1.776994974118707e+18
14099.0	1.7766035851575293e+18
14100.0	1.7761645371588603e+18
14101.0	1.775753550731673e+18
14102.0	1.7753260421021693e+18
14103.0	1.7748933543460867e+18
14104.0	1.7744758650699776e+18
14105.0	1.77404449432535e+18
14106.0	1.7736283757477888e+18
14107.0	1.7731775568543741e+18
14108.0	1.7727656225144824e+18
14109.0	1.7723510541516797e+18
14110.0	1.7719052382240765e+18
14111.0	1.7714523641217021e+18
14112.0	1.7710738667732984e+18
14113.0	1.7706348003196925e+18
14114.0	1.7702180005871613e+18
14115.0	1.7698058716315648e+18
14116.0	1.7692575066488827e+18
14117.0	1.767161322694247e+18
14118.0	1.7685372037234685e+18
14119.0	1.7680841031286781e+18
14120.0	1.7676646660177915e+18
14121.0	1.7672518726844413e+18
14122.0	1.7668131300311035e+18
14123.0	1.7663611283439613e+18
14124.0	1.7659288382078976e+18
14125.0	1.7652357311496187e+18
14126.0	1.7651412401913856e+18
14127.0	1.76473393636311e+18
14128.0	1.7643114592206843e+18
14129.0	1.7638817494204413e+18
14130.0	1.763450487727718e+18
14131.0	1.7630439153860605e+18
14132.0	1.7626206899798016e+18
14133.0	1.7618028510314478e+18
14134.0	1.7617826428747776e+18
14135.0	1.7613450779820027e+18
14136.0	1.7607875945824253e+18
14137.0	1.7605182145691643e+18
14138.0	1.7600715111268347e+18
14139.0	1.75967845786583e+18
14140.0	1.7592155258224635e+18
14141.0	1.758836078883635e+18
14142.0	1.7582290355879933e+18
14143.0	1.7578979321970688e+18
14144.0	1.7575776048119805e+18
14145.0	1.7571569362534395e+18
14146.0	1.756733850098073e+18
14147.0	1.7563153592221693e+18
14148.0	1.7558877801283581e+18
14149.0	1.755461719372595e+18
14150.0	1.7550580645887997e+18
14151.0	1.7546130640338941e+18
14152.0	1.7542194990678013e+18
14153.0	1.753801991336755e+18
14154.0	1.753363421488742e+18
14155.0	1.7518239525371912e+18
14156.0	1.752505147772108e+18
14157.0	1.7521248334512128e+18
14158.0	1.7516942898233341e+18
14159.0	1.751289266018713e+18
14160.0	1.7508722414714875e+18
14161.0	1.75040439034839e+18
14162.0	1.7499561903783928e+18
14163.0	1.7496159232720893e+18
14164.0	1.7491278052720635e+18
14165.0	1.7483466547396605e+18
14166.0	1.7483589557944317e+18
14167.0	1.7479364853628923e+18
14168.0	1.7475125049819133e+18
14169.0	1.7471123801243643e+18
14170.0	1.746685782497689e+18
14171.0	1.746267892246118e+18
14172.0	1.7458636016058365e+18
14173.0	1.745253194478387e+18
14174.0	1.7450240781058048e+18
14175.0	1.7446144086900733e+18
14176.0	1.744182371889971e+18
14177.0	1.7437771870240765e+18
14178.0	1.7433613737918461e+18
14179.0	1.742908902342656e+18
14180.0	1.74253550862336e+18
14181.0	1.742119336358707e+18
14182.0	1.741703974433587e+18
14183.0	1.7412890336165888e+18
14184.0	1.7408699807039485e+18
14185.0	1.7404580765630461e+18
14186.0	1.7396874319233021e+18
14187.0	1.739611644205465e+18
14188.0	1.7392114069405693e+18
14189.0	1.738791904398541e+18
14190.0	1.7383829144600576e+18
14191.0	1.7379671867916285e+18
14192.0	1.7375501286899707e+18
14193.0	1.7370843294203904e+18
14194.0	1.7367253741731835e+18
14195.0	1.7363157467004925e+18
14196.0	1.7359019115020288e+18
14197.0	1.735487126713139e+18
14198.0	1.7350712094621693e+18
14199.0	1.73465038487552e+18
14200.0	1.7340402226954237e+18
14201.0	1.7338330358218747e+18
14202.0	1.733420843112857e+18
14203.0	1.7329600904298493e+18
14204.0	1.7325885321379835e+18
14205.0	1.7321795975643133e+18
14206.0	1.731675890175181e+18
14207.0	1.731356951943577e+18
14208.0	1.7309447827226621e+18
14209.0	1.7304252577742843e+18
14210.0	1.7300598466543613e+18
14211.0	1.7297033928900603e+18
14212.0	1.7292963658858493e+18
14213.0	1.7288754305695744e+18
14214.0	1.728473342777753e+18
14215.0	1.7280484547493885e+18
14216.0	1.7276499472154624e+18
14217.0	1.727240422083788e+18
14218.0	1.7268204799787005e+18
14219.0	1.7264165399822333e+18
14220.0	1.7260062565203965e+18
14221.0	1.725589211840512e+18
14222.0	1.7251196980953085e+18
14223.0	1.724770277339955e+18
14224.0	1.7243663004336125e+18
14225.0	1.7233812748500997e+18
14226.0	1.7235461428740093e+18
14227.0	1.723135522190131e+18
14228.0	1.7213746845843459e+18
14229.0	1.7221605881020403e+18
14230.0	1.7219067890892797e+18
14231.0	1.7214381326598141e+18
14232.0	1.7210887723024381e+18
14233.0	1.7206722527494141e+18
14234.0	1.7202704854024187e+18
14235.0	1.7198591768526843e+18
14236.0	1.719449316176691e+18
14237.0	1.7190403228827648e+18
14238.0	1.7186324654063616e+18
14239.0	1.7182160968482813e+18
14240.0	1.716796388697703e+18
14241.0	1.7174065475223547e+18
14242.0	1.717001374400512e+18
14243.0	1.7164786550702075e+18
14244.0	1.7161867382226944e+18
14245.0	1.715762445785497e+18
14246.0	1.7153422704771072e+18
14247.0	1.7149587282198525e+18
14248.0	1.7145453745274872e+18
14249.0	1.7141453167788032e+18
14250.0	1.7137401419792384e+18
14251.0	1.7133325109952507e+18
14252.0	1.712924094837555e+18
14253.0	1.712517977158451e+18
14254.0	1.7121097891708925e+18
14255.0	1.7116832603308032e+18
14256.0	1.7108966588809216e+18
14257.0	1.710885830865715e+18
14258.0	1.7104862529454075e+18
14259.0	1.710057556489011e+18
14260.0	1.7096607736528893e+18
14261.0	1.7092510656495613e+18
14262.0	1.7088643743088637e+18
14263.0	1.7078623265619973e+18
14264.0	1.7079692225937403e+18
14265.0	1.7076218369146875e+18
14266.0	1.70724139508695e+18
14267.0	1.706836180022067e+18
14268.0	1.706430359299686e+18
14269.0	1.7060201211363325e+18
14270.0	1.705623044698931e+18
14271.0	1.7052100617830395e+18
14272.0	1.7048118948265981e+18
14273.0	1.704408961463091e+18
14274.0	1.7031410502074373e+18
14275.0	1.703524047205171e+18
14276.0	1.7031503045197821e+18
14277.0	1.7027669384232957e+18
14278.0	1.7023887682306043e+18
14279.0	1.70198446416855e+18
14280.0	1.701575464163737e+18
14281.0	1.7011778709880832e+18
14282.0	1.7007742917017597e+18
14283.0	1.7003714573238272e+18
14284.0	1.6999683142451197e+18
14285.0	1.6995652147871736e+18
14286.0	1.6991587934404603e+18
14287.0	1.6987576669831163e+18
14288.0	1.6983555204710397e+18
14289.0	1.6973025068974054e+18
14290.0	1.6975415050502144e+18
14291.0	1.6971472304078843e+18
14292.0	1.6967455956008957e+18
14293.0	1.696343732623769e+18
14294.0	1.6958370808332288e+18
14295.0	1.695526969094963e+18
14296.0	1.6946105556140032e+18
14297.0	1.694738297336627e+18
14298.0	1.6940604877438968e+18
14299.0	1.6939147860115456e+18
14300.0	1.6935264320487421e+18
14301.0	1.693119056078438e+18
14302.0	1.6927279489744893e+18
14303.0	1.6922997575122941e+18
14304.0	1.6919177637920768e+18
14305.0	1.6915234690170877e+18
14306.0	1.691019820348211e+18
14307.0	1.6906957013123067e+18
14308.0	1.690319514186547e+18
14309.0	1.6899133495312381e+18
14310.0	1.6890674775326712e+18
14311.0	1.688733126072729e+18
14312.0	1.68865874093015e+18
14313.0	1.6882662547390461e+18
14314.0	1.687912644712857e+18
14315.0	1.687519863242752e+18
14316.0	1.687085777944576e+18
14317.0	1.6866171248705533e+18
14318.0	1.686325172790886e+18
14319.0	1.685926962213683e+18
14320.0	1.685528181211136e+18
14321.0	1.685125630368153e+18
14322.0	1.6846956202557435e+18
14323.0	1.6843223741759485e+18
14324.0	1.6839262288740352e+18
14325.0	1.6835276928188413e+18
14326.0	1.6831373658554363e+18
14327.0	1.682732120591564e+18
14328.0	1.682334921680486e+18
14329.0	1.681943484065382e+18
14330.0	1.6815448590909437e+18
14331.0	1.6811390434017275e+18
14332.0	1.6807488858882048e+18
14333.0	1.6803525442928637e+18
14334.0	1.6799556440162296e+18
14335.0	1.6795296520470525e+18
14336.0	1.6790829670596605e+18
14337.0	1.6787613679615995e+18
14338.0	1.678364361988505e+18
14339.0	1.6779580463382528e+18
14340.0	1.6775739906981885e+18
14341.0	1.677170543951872e+18
14342.0	1.6767774135156733e+18
14343.0	1.6763638584967165e+18
14344.0	1.675974717682483e+18
14345.0	1.6755920058974205e+18
14346.0	1.6751950603223037e+18
14347.0	1.6747675282046976e+18
14348.0	1.6744020986298365e+18
14349.0	1.6740103925792763e+18
14350.0	1.6735690242916347e+18
14351.0	1.6731685991219197e+18
14352.0	1.6728169755181053e+18
14353.0	1.672422700875776e+18
14354.0	1.6720225860845565e+18
14355.0	1.6716211123388413e+18
14356.0	1.671230716588851e+18
14357.0	1.670844286972723e+18
14358.0	1.6704491751473147e+18
14359.0	1.6700428745965568e+18
14360.0	1.6696573090070523e+18
14361.0	1.669265851259289e+18
14362.0	1.6688716756025341e+18
14363.0	1.6684781861339133e+18
14364.0	1.6679143408140288e+18
14365.0	1.6676718429339643e+18
14366.0	1.667269865871769e+18
14367.0	1.6669022552588288e+18
14368.0	1.666508973827686e+18
14369.0	1.666117032896102e+18
14370.0	1.665723003201126e+18
14371.0	1.6653282420195325e+18
14372.0	1.664927457817395e+18
14373.0	1.664541638891929e+18
14374.0	1.6641466629619712e+18
14375.0	1.663755099517747e+18
14376.0	1.6633631350980603e+18
14377.0	1.662971561587507e+18
14378.0	1.6625776275226621e+18
14379.0	1.662187443165593e+18
14380.0	1.661794748937011e+18
14381.0	1.6613936661004285e+18
14382.0	1.661009424233267e+18
14383.0	1.660587775885312e+18
14384.0	1.660209360745267e+18
14385.0	1.659836423366246e+18
14386.0	1.6594309935529981e+18
14387.0	1.6590478338162685e+18
14388.0	1.6586520139923453e+18
14389.0	1.6582638546452477e+18
14390.0	1.6578716872212477e+18
14391.0	1.657478076956672e+18
14392.0	1.657068397474611e+18
14393.0	1.6567011693821947e+18
14394.0	1.656281822868275e+18
14395.0	1.6558059354587133e+18
14396.0	1.655524549669683e+18
14397.0	1.655139730666291e+18
14398.0	1.6547332271112187e+18
14399.0	1.6543565417021437e+18
14400.0	1.6538871789518848e+18
14401.0	1.6535750489145344e+18
14402.0	1.653187136192512e+18
14403.0	1.6465362098847626e+18
14404.0	1.6363178921295846e+18
14405.0	1.6511150325759954e+18
14406.0	1.6516313648201725e+18
14407.0	1.6414259386777654e+18
14408.0	1.6507977234120704e+18
14409.0	1.65045005755351e+18
14410.0	1.6500606147493885e+18
14411.0	1.6496818590318587e+18
14412.0	1.6492957045620733e+18
14413.0	1.6489093789646843e+18
14414.0	1.6485210384236541e+18
14415.0	1.648134045093068e+18
14416.0	1.6477346533998587e+18
14417.0	1.6473035158585341e+18
14418.0	1.6469047029792765e+18
14419.0	1.6465814479699968e+18
14420.0	1.6461901647052797e+18
14421.0	1.6458066006376443e+18
14422.0	1.6454153475719165e+18
14423.0	1.6450254685601787e+18
14424.0	1.6092877587218204e+18
14425.0	1.6442540521684987e+18
14426.0	1.6438699227086843e+18
14427.0	1.6434842296123387e+18
14428.0	1.643066809122816e+18
14429.0	1.6427093621473275e+18
14430.0	1.6423246907834363e+18
14431.0	1.6416762547404797e+18
14432.0	1.641517948285747e+18
14433.0	1.63377300656619e+18
14434.0	1.6407665907335165e+18
14435.0	1.6403461973213181e+18
14436.0	1.640005606414745e+18
14437.0	1.6396197036032e+18
14438.0	1.6390016594870272e+18
14439.0	1.6387978750328824e+18
14440.0	1.638462817252147e+18
14441.0	1.6380724735115261e+18
14442.0	1.6376846396424187e+18
14443.0	1.6372716483379197e+18
14444.0	1.6369187630874624e+18
14445.0	1.636536566362931e+18
14446.0	1.6284221920247841e+18
14447.0	1.6357578552377341e+18
14448.0	1.6353810238668797e+18
14449.0	1.6349962853941248e+18
14450.0	1.634607387849523e+18
14451.0	1.634224323742924e+18
14452.0	1.6338389980676093e+18
14453.0	1.6333081669533693e+18
14454.0	1.6330717273260024e+18
14455.0	1.632684520924774e+18
14456.0	1.6322740176814077e+18
14457.0	1.6318709182234621e+18
14458.0	1.631483545727795e+18
14459.0	1.6311185037066237e+18
14460.0	1.6307704184176637e+18
14461.0	1.6303605510307835e+18
14462.0	1.6296787836927997e+18
14463.0	1.6296147668697085e+18
14464.0	1.6292390058852347e+18
14465.0	1.6288437682307067e+18
14466.0	1.6284699097825275e+18
14467.0	1.6279829276000253e+18
14468.0	1.627698823902003e+18
14469.0	1.627301467285094e+18
14470.0	1.626922179729817e+18
14471.0	1.6265466368491515e+18
14472.0	1.6261707080925181e+18
14473.0	1.6257981783998456e+18
14474.0	1.625417907699712e+18
14475.0	1.6250291091406843e+18
14476.0	1.6241598950014979e+18
14477.0	1.6242719886147581e+18
14478.0	1.6238881326235643e+18
14479.0	1.623499468282265e+18
14480.0	1.623116991378227e+18
14481.0	1.6227493522440192e+18
14482.0	1.6223657428779005e+18
14483.0	1.6219780214161403e+18
14484.0	1.6216034197372925e+18
14485.0	1.6211923242582013e+18
14486.0	1.6206237846732797e+18
14487.0	1.620463099209318e+18
14488.0	1.6200045644742653e+18
14489.0	1.619675108605952e+18
14490.0	1.6193081170722808e+18
14491.0	1.6189436471541752e+18
14492.0	1.6185604437966843e+18
14493.0	1.618168157254451e+18
14494.0	1.6177873513611261e+18
14495.0	1.6174258879201272e+18
14496.0	1.6169454371078141e+18
14497.0	1.6166651988803581e+18
14498.0	1.6162847083986941e+18
14499.0	1.615909044722073e+18
14500.0	1.615529946749337e+18
14501.0	1.6149231534342141e+18
14502.0	1.6143634101436419e+18
14503.0	1.6143589356601341e+18
14504.0	1.614010003121766e+18
14505.0	1.6134254396178424e+18
14506.0	1.6127600535535613e+18
14507.0	1.6126974577606656e+18
14508.0	1.6125002768187387e+18
14509.0	1.6121216687407107e+18
14510.0	1.611742481848729e+18
14511.0	1.6113666420113403e+18
14512.0	1.6109753671352315e+18
14513.0	1.6106106388479997e+18
14514.0	1.6101459368083456e+18
14515.0	1.609847908021043e+18
14516.0	1.6079052574031885e+18
14517.0	1.6091009293221885e+18
14518.0	1.608723363109273e+18
14519.0	1.608345508328243e+18
14520.0	1.607969168529817e+18
14521.0	1.6075845776965632e+18
14522.0	1.607209321706291e+18
14523.0	1.6063079758430203e+18
14524.0	1.6059243329224696e+18
14525.0	1.6060809717219325e+18
14526.0	1.6057065327820797e+18
14527.0	1.6052856092098557e+18
14528.0	1.604800749345177e+18
14529.0	1.6045725020323837e+18
14530.0	1.6041886879842304e+18
14531.0	1.6038269141647357e+18
14532.0	1.602549340910387e+18
14533.0	1.6030759206780925e+18
14534.0	1.6027017350742013e+18
14535.0	1.6023158154854397e+18
14536.0	1.6019470623440893e+18
14537.0	1.601563291916697e+18
14538.0	1.6011959010852861e+18
14539.0	1.6008215493869563e+18
14540.0	1.6004474527023101e+18
14541.0	1.6000540336979965e+18
14542.0	1.5996941607370747e+18
14543.0	1.5989939938263037e+18
14544.0	1.5989464471961597e+18
14545.0	1.5985602960818168e+18
14546.0	1.5643843730866e+18
14547.0	1.5675398620708644e+18
14548.0	1.597438430491443e+18
14549.0	1.5969863331741693e+18
14550.0	1.5966951025147904e+18
14551.0	1.596328733415833e+18
14552.0	1.595945692797337e+18
14553.0	1.5955664236969981e+18
14554.0	1.5952068778917885e+18
14555.0	1.594832001066598e+18
14556.0	1.5944463146811384e+18
14557.0	1.594086899738214e+18
14558.0	1.5937132006735872e+18
14559.0	1.5920223894896596e+18
14560.0	1.5928209212178422e+18
14561.0	1.5925893553717248e+18
14562.0	1.592196461494272e+18
14563.0	1.591847941675417e+18
14564.0	1.5914453505671163e+18
14565.0	1.5911042815098877e+18
14566.0	1.5907317551726592e+18
14567.0	1.590357296100147e+18
14568.0	1.589870907831091e+18
14569.0	1.5896127752634365e+18
14570.0	1.5888628471300093e+18
14571.0	1.5888673333575675e+18
14572.0	1.5884326407241725e+18
14573.0	1.5880826512211963e+18
14574.0	1.5876701665886205e+18
14575.0	1.5873739514183683e+18
14576.0	1.5870035071336448e+18
14577.0	1.586633126602342e+18
14578.0	1.5862664420917243e+18
14579.0	1.5858960548495357e+18
14580.0	1.5855257363939325e+18
14581.0	1.5851255075176448e+18
14582.0	1.5847813497749501e+18
14583.0	1.5844130965946365e+18
14584.0	1.5840284688515072e+18
14585.0	1.5836711275724797e+18
14586.0	1.5832980811415547e+18
14587.0	1.5829193472344067e+18
14588.0	1.582556633890816e+18
14589.0	1.5822039365451776e+18
14590.0	1.581850014462771e+18
14591.0	1.581488212122009e+18
14592.0	1.5811342866841597e+18
14593.0	1.5806964349009915e+18
14594.0	1.5804294506741757e+18
14595.0	1.5800710725631997e+18
14596.0	1.5795569263902712e+18
14597.0	1.5792198402441213e+18
14598.0	1.5790032782622715e+18
14599.0	1.5786610800984064e+18
14600.0	1.5783023815426043e+18
14601.0	1.5779515850555392e+18
14602.0	1.5775608403394557e+18
14603.0	1.5772361492004864e+18
14604.0	1.5768473858736128e+18
14605.0	1.5764923447508992e+18
14606.0	1.576098974400512e+18
14607.0	1.5758299802632184e+18
14608.0	1.5754714863894525e+18
14609.0	1.5750654173642747e+18
14610.0	1.5746833481465853e+18
14611.0	1.5744131343056893e+18
14612.0	1.5740650288840701e+18
14613.0	1.5737140897906685e+18
14614.0	1.5733582349729792e+18
14615.0	1.5729766858489856e+18
14616.0	1.5726555061813243e+18
14617.0	1.5723023122300928e+18
14618.0	1.571900853583872e+18
14619.0	1.5715255875272696e+18
14620.0	1.5708555021647872e+18
14621.0	1.570893131782553e+18
14622.0	1.5705382970195965e+18
14623.0	1.5701878008446976e+18
14624.0	1.5697921487929344e+18
14625.0	1.5694813240229885e+18
14626.0	1.5691155471597563e+18
14627.0	1.5687499850448893e+18
14628.0	1.5684279698718715e+18
14629.0	1.568076004012851e+18
14630.0	1.5677215081496568e+18
14631.0	1.567365416773222e+18
14632.0	1.5637090825928724e+18
14633.0	1.566333495515544e+18
14634.0	1.566304593405542e+18
14635.0	1.564993687178438e+18
14636.0	1.5619684380442614e+18
14637.0	1.5652624363683835e+18
14638.0	1.5648970537697275e+18
14639.0	1.5645478796394493e+18
14640.0	1.5642043191656443e+18
14641.0	1.551712321221417e+18
14642.0	1.5635012028203003e+18
14643.0	1.563152721589043e+18
14644.0	1.5627911860060152e+18
14645.0	1.562431442229657e+18
14646.0	1.5620508695396347e+18
14647.0	1.5617052270133243e+18
14648.0	1.561394041533235e+18
