# Flux units: erg / (cm m2 s)
# Wavelength units: Angstrom
wave	flux
14000.0	2.018653011915571e+18
14001.0	2.0181906133876733e+18
14002.0	2.0178692407820283e+18
14003.0	2.0174680488935424e+18
14004.0	2.0170661506842621e+18
14005.0	2.0166641853661176e+18
14006.0	2.0162555745927165e+18
14007.0	2.015851975173734e+18
14008.0	2.0153677075447803e+18
14009.0	2.0150551933091835e+18
14010.0	2.0146424385634301e+18
14011.0	2.0136970793517053e+18
14012.0	2.013851632743219e+18
14013.0	2.0134517192785915e+18
14014.0	2.0130453046427645e+18
14015.0	2.0126475285954555e+18
14016.0	2.0122487895359483e+18
14017.0	2.0118480321773563e+18
14018.0	2.0114471758331901e+18
14019.0	2.0110466466447355e+18
14020.0	2.010645379258777e+18
14021.0	2.0102442595123197e+18
14022.0	2.0098432555286525e+18
14023.0	2.009432295945011e+18
14024.0	2.0090303826362368e+18
14025.0	2.0086441694461947e+18
14026.0	2.008242798041497e+18
14027.0	2.0078447082602493e+18
14028.0	2.0074448568713216e+18
14029.0	2.007044438412492e+18
14030.0	2.0061451695685635e+18
14031.0	2.0062183148748792e+18
14032.0	2.0058444547489787e+18
14033.0	2.0054061332037627e+18
14034.0	2.0050467518152701e+18
14035.0	2.0046488432279547e+18
14036.0	2.004249995116544e+18
14037.0	2.0038511218393083e+18
14038.0	2.0034523072823293e+18
14039.0	2.0030495567904768e+18
14040.0	2.0026485930721275e+18
14041.0	2.0022536574074877e+18
14042.0	2.0018474239655933e+18
14043.0	2.001423457006387e+18
14044.0	2.0010507075321853e+18
14045.0	2.0006606439710715e+18
14046.0	2.0002603563745277e+18
14047.0	1.999859508418969e+18
14048.0	1.9994675507101693e+18
14049.0	1.999071131939635e+18
14050.0	1.998673439778406e+18
14051.0	1.998267733141094e+18
14052.0	1.9978743292362747e+18
14053.0	1.9974805948203005e+18
14054.0	1.9970835200606203e+18
14055.0	1.9966862674624507e+18
14056.0	1.996289083650867e+18
14057.0	1.9958920508342272e+18
14058.0	1.9954950482165755e+18
14059.0	1.9950981714280443e+18
14060.0	1.9947013684592637e+18
14061.0	1.9942986146119675e+18
14062.0	1.993907978947788e+18
14063.0	1.9934968633360384e+18
14064.0	1.9930308392517627e+18
14065.0	1.9927110135054333e+18
14066.0	1.9923225370689533e+18
14067.0	1.9919217729994747e+18
14068.0	1.9915303706165245e+18
14069.0	1.991132847905177e+18
14070.0	1.9907382008086525e+18
14071.0	1.9903402049798144e+18
14072.0	1.9899470678327293e+18
14073.0	1.9895514862452733e+18
14074.0	1.9891560304869373e+18
14075.0	1.9887440642703355e+18
14076.0	1.9883596932186107e+18
14077.0	1.9878582708862973e+18
14078.0	1.9875662701527035e+18
14079.0	1.9871703664427005e+18
14080.0	1.986785008890675e+18
14081.0	1.9863901956997115e+18
14082.0	1.985992381064806e+18
14083.0	1.9855993177374717e+18
14084.0	1.9852054088384507e+18
14085.0	1.9845490958925821e+18
14086.0	1.984406601963929e+18
14087.0	1.9840228634132477e+18
14088.0	1.9836175745286144e+18
14089.0	1.98323041510359e+18
14090.0	1.982839089895833e+18
14091.0	1.9824468754956283e+18
14092.0	1.982053139401932e+18
14093.0	1.981659401630515e+18
14094.0	1.9812656839917565e+18
14095.0	1.9808717834813437e+18
14096.0	1.9804546649817083e+18
14097.0	1.9800699164426237e+18
14098.0	1.9796815171813373e+18
14099.0	1.9792986141360128e+18
14100.0	1.9788949056651261e+18
14101.0	1.9785129169780733e+18
14102.0	1.9781197949304832e+18
14103.0	1.9777140866154493e+18
14104.0	1.9773345155252224e+18
14105.0	1.9769415746715643e+18
14106.0	1.9765492377976827e+18
14107.0	1.976155894290841e+18
14108.0	1.97575343907799e+18
14109.0	1.975367559754547e+18
14110.0	1.974975836926771e+18
14111.0	1.9745781816754173e+18
14112.0	1.97418820871127e+18
14113.0	1.9738037739061245e+18
14114.0	1.973399414479257e+18
14115.0	1.9730182864633853e+18
14116.0	1.972605118998118e+18
14117.0	1.9713725841801216e+18
14118.0	1.9718429653073917e+18
14119.0	1.9714349450919933e+18
14120.0	1.9710505253863421e+18
14121.0	1.9706582421995515e+18
14122.0	1.9702669320912893e+18
14123.0	1.96987717723095e+18
14124.0	1.9694841843679227e+18
14125.0	1.968677572732518e+18
14126.0	1.968715896927027e+18
14127.0	1.968326630283673e+18
14128.0	1.9679351289151483e+18
14129.0	1.9675347104563197e+18
14130.0	1.9671355888762877e+18
14131.0	1.9667653173968893e+18
14132.0	1.9663685194612733e+18
14133.0	1.9654820868653046e+18
14134.0	1.9655932359213056e+18
14135.0	1.9651907723198456e+18
14136.0	1.9647982475411456e+18
14137.0	1.9644232247541755e+18
14138.0	1.9640264301740024e+18
14139.0	1.96364599337943e+18
14140.0	1.9632507758575616e+18
14141.0	1.962858905390284e+18
14142.0	1.962412478772019e+18
14143.0	1.9620839926267901e+18
14144.0	1.9617005074120701e+18
14145.0	1.9613117038198781e+18
14146.0	1.9609212862595064e+18
14147.0	1.9605327427141624e+18
14148.0	1.9601431120052221e+18
14149.0	1.9597547261657083e+18
14150.0	1.9593684173455355e+18
14151.0	1.9589744782475261e+18
14152.0	1.9585917295525888e+18
14153.0	1.958203325258137e+18
14154.0	1.957791204691148e+18
14155.0	1.957397173318451e+18
14156.0	1.957034718343987e+18
14157.0	1.9566512431955963e+18
14158.0	1.9562595841212408e+18
14159.0	1.955875706319667e+18
14160.0	1.9554817219231736e+18
14161.0	1.9550448365076475e+18
14162.0	1.9546139657240568e+18
14163.0	1.954323090741657e+18
14164.0	1.953902214145638e+18
14165.0	1.9534839682170875e+18
14166.0	1.953161483282022e+18
14167.0	1.9527634203443197e+18
14168.0	1.9523879043072e+18
14169.0	1.952003524866867e+18
14170.0	1.951613520026009e+18
14171.0	1.95122758198231e+18
14172.0	1.9508435380862973e+18
14173.0	1.9504151822073853e+18
14174.0	1.9500659090915325e+18
14175.0	1.9496845646495741e+18
14176.0	1.9492984487673853e+18
14177.0	1.948912364761907e+18
14178.0	1.948525321099673e+18
14179.0	1.9481322225401848e+18
14180.0	1.9477546278060032e+18
14181.0	1.9473688977997816e+18
14182.0	1.9469825118044155e+18
14183.0	1.94659761562583e+18
14184.0	1.9462072718852093e+18
14185.0	1.945825908988313e+18
14186.0	1.9452657143906296e+18
14187.0	1.945031522910208e+18
14188.0	1.9446698883416061e+18
14189.0	1.9442840325062656e+18
14190.0	1.943899590990233e+18
14191.0	1.9435142636371963e+18
14192.0	1.9431233578598397e+18
14193.0	1.94271998157783e+18
14194.0	1.9423600247308283e+18
14195.0	1.9419777676083197e+18
14196.0	1.9415931365097464e+18
14197.0	1.9411644719300603e+18
14198.0	1.9404167617445883e+18
14199.0	1.9400346405175293e+18
14200.0	1.939555439607808e+18
14201.0	1.9392629422686205e+18
14202.0	1.9388837067227133e+18
14203.0	1.938490651783987e+18
14204.0	1.938112583932313e+18
14205.0	1.9377285450694653e+18
14206.0	1.9372301745127421e+18
14207.0	1.93696279602135e+18
14208.0	1.936579631251456e+18
14209.0	1.936071019882086e+18
14210.0	1.9357254192988155e+18
14211.0	1.9354241692860408e+18
14212.0	1.9350448381100032e+18
14213.0	1.9346616599183355e+18
14214.0	1.9342784062291963e+18
14215.0	1.933874563540582e+18
14216.0	1.9333947938832381e+18
14217.0	1.9330114462416893e+18
14218.0	1.932616852832256e+18
14219.0	1.932244912019865e+18
14220.0	1.9316485440667643e+18
14221.0	1.9312320547127293e+18
14222.0	1.9308355705110528e+18
14223.0	1.9304677434720253e+18
14224.0	1.9300850266537981e+18
14225.0	1.9294137115213824e+18
14226.0	1.9293178095992827e+18
14227.0	1.9289374483021821e+18
14228.0	1.9278538213425152e+18
14229.0	1.9280434273714168e+18
14230.0	1.9277910661660664e+18
14231.0	1.9274017861009405e+18
14232.0	1.927027273341337e+18
14233.0	1.9266415081029627e+18
14234.0	1.926263649966489e+18
14235.0	1.9258524991225853e+18
14236.0	1.9253820592750587e+18
14237.0	1.9249989230264317e+18
14238.0	1.9246176842809341e+18
14239.0	1.9242300718710781e+18
14240.0	1.9224317304766464e+18
14241.0	1.9234667169316864e+18
14242.0	1.9230889561030653e+18
14243.0	1.9225654885089275e+18
14244.0	1.9223285589868541e+18
14245.0	1.921934064562995e+18
14246.0	1.9215494972178427e+18
14247.0	1.9211807893749752e+18
14248.0	1.9207900194930683e+18
14249.0	1.9204215045881853e+18
14250.0	1.9200404638138363e+18
14251.0	1.9196620251856893e+18
14252.0	1.9192812243255293e+18
14253.0	1.9188998228410365e+18
14254.0	1.9185175992729592e+18
14255.0	1.9181085875240955e+18
14256.0	1.9174484510507008e+18
14257.0	1.9173582382825464e+18
14258.0	1.9169494547038203e+18
14259.0	1.9164806590234621e+18
14260.0	1.9161065170403325e+18
14261.0	1.9157189834833923e+18
14262.0	1.9153803437670397e+18
14263.0	1.9145456269393917e+18
14264.0	1.9145210986495997e+18
14265.0	1.914236291986227e+18
14266.0	1.913861790970675e+18
14267.0	1.9134822467239933e+18
14268.0	1.9131025867145208e+18
14269.0	1.9127142042304512e+18
14270.0	1.912343226430259e+18
14271.0	1.9119626319298555e+18
14272.0	1.9115834869809152e+18
14273.0	1.9112003322773504e+18
14274.0	1.9101273420726272e+18
14275.0	1.9103762907922432e+18
14276.0	1.910050577920819e+18
14277.0	1.9096743320748027e+18
14278.0	1.9093088119029755e+18
14279.0	1.9089291351162877e+18
14280.0	1.9085446734675965e+18
14281.0	1.908172736010649e+18
14282.0	1.9077943795908603e+18
14283.0	1.907390721451622e+18
14284.0	1.9069176442257405e+18
14285.0	1.906538606650982e+18
14286.0	1.906159144612659e+18
14287.0	1.905781098571366e+18
14288.0	1.9054011013398525e+18
14289.0	1.9041109418180588e+18
14290.0	1.9046430178017275e+18
14291.0	1.9042661914640381e+18
14292.0	1.9038889607954424e+18
14293.0	1.9035084082380797e+18
14294.0	1.9030033637048317e+18
14295.0	1.902740293602508e+18
14296.0	1.9016377989857285e+18
14297.0	1.9019943836123133e+18
14298.0	1.9014270838636541e+18
14299.0	1.9012291529801725e+18
14300.0	1.900857386650828e+18
14301.0	1.9004827681947643e+18
14302.0	1.9001072488022016e+18
14303.0	1.8996981212905464e+18
14304.0	1.8993377097809912e+18
14305.0	1.8989744780214272e+18
14306.0	1.8985804416155645e+18
14307.0	1.898211305953689e+18
14308.0	1.8978408885125117e+18
14309.0	1.8974584820727805e+18
14310.0	1.897003247416115e+18
14311.0	1.89658054042583e+18
14312.0	1.8961725738975232e+18
14313.0	1.8957525260959741e+18
14314.0	1.8954571699191805e+18
14315.0	1.8950846670700541e+18
14316.0	1.894660416575897e+18
14317.0	1.894320293753651e+18
14318.0	1.893956563710771e+18
14319.0	1.8935808782237693e+18
14320.0	1.8932039562559483e+18
14321.0	1.8928253230120955e+18
14322.0	1.8924137493823483e+18
14323.0	1.8920573694377984e+18
14324.0	1.8916992564068347e+18
14325.0	1.8913136119644155e+18
14326.0	1.8909470281170941e+18
14327.0	1.890564569667993e+18
14328.0	1.890188828816179e+18
14329.0	1.8898190069661696e+18
14330.0	1.8894431302189056e+18
14331.0	1.8890670320123904e+18
14332.0	1.888691504231219e+18
14333.0	1.8883158640427005e+18
14334.0	1.887940235598233e+18
14335.0	1.887553064429158e+18
14336.0	1.8871559158497275e+18
14337.0	1.8868108152274944e+18
14338.0	1.8864354233417725e+18
14339.0	1.8860519934918653e+18
14340.0	1.8856875537727483e+18
14341.0	1.8853106838142973e+18
14342.0	1.8849354278240253e+18
14343.0	1.8845036795920381e+18
14344.0	1.8840647960100861e+18
14345.0	1.8836946973360125e+18
14346.0	1.8833162872291325e+18
14347.0	1.882927485314662e+18
14348.0	1.8825682800869373e+18
14349.0	1.8821944870699003e+18
14350.0	1.8817954745417725e+18
14351.0	1.8814138683752443e+18
14352.0	1.8810616223367165e+18
14353.0	1.880693917771366e+18
14354.0	1.8803169119174653e+18
14355.0	1.8799369012641787e+18
14356.0	1.8795645779312635e+18
14357.0	1.8791971736780797e+18
14358.0	1.8788226474967035e+18
14359.0	1.878433469772595e+18
14360.0	1.8780714493280253e+18
14361.0	1.877698711597875e+18
14362.0	1.8773254437076987e+18
14363.0	1.8769508319625216e+18
14364.0	1.8764986323042304e+18
14365.0	1.8759011134341115e+18
14366.0	1.8754133611773947e+18
14367.0	1.8750531056959483e+18
14368.0	1.874678703665971e+18
14369.0	1.8743053485342715e+18
14370.0	1.8739316108820475e+18
14371.0	1.8735579655045115e+18
14372.0	1.8731791997206525e+18
14373.0	1.8728103392051197e+18
14374.0	1.872436718993408e+18
14375.0	1.8720620820824061e+18
14376.0	1.8716900842274816e+18
14377.0	1.8713161033056253e+18
14378.0	1.870940810405478e+18
14379.0	1.8705700691640315e+18
14380.0	1.8698643506724861e+18
14381.0	1.8693924797284347e+18
14382.0	1.8690290416091133e+18
14383.0	1.86865243169751e+18
14384.0	1.8682660037591037e+18
14385.0	1.867911033100697e+18
14386.0	1.8675206558056443e+18
14387.0	1.8671646936137725e+18
14388.0	1.8667900114042877e+18
14389.0	1.8664187450359803e+18
14390.0	1.8660442607976445e+18
14391.0	1.8656734591582205e+18
14392.0	1.8652994128052221e+18
14393.0	1.8649283108536317e+18
14394.0	1.8645194802987003e+18
14395.0	1.86417195033559e+18
14396.0	1.8638105707806717e+18
14397.0	1.863438267580416e+18
14398.0	1.8630652077277181e+18
14399.0	1.8626932316831741e+18
14400.0	1.8623032872402941e+18
14401.0	1.8619420217704443e+18
14402.0	1.8615725371424763e+18
14403.0	1.8600759977312233e+18
14404.0	1.856446939948644e+18
14405.0	1.858965569168995e+18
14406.0	1.8600827287502845e+18
14407.0	1.858127966660199e+18
14408.0	1.859325009277747e+18
14409.0	1.8589543754104832e+18
14410.0	1.858595267490611e+18
14411.0	1.8582291852820477e+18
14412.0	1.8578553117343741e+18
14413.0	1.857487256525209e+18
14414.0	1.8571132269494264e+18
14415.0	1.856742794408755e+18
14416.0	1.8563708938616827e+18
14417.0	1.855993247118131e+18
14418.0	1.8556139008425981e+18
14419.0	1.8552560361144317e+18
14420.0	1.854881113990758e+18
14421.0	1.8544097983725568e+18
14422.0	1.8540223201804283e+18
14423.0	1.8536315419099133e+18
14424.0	1.8468282516373466e+18
14425.0	1.852890589587046e+18
14426.0	1.8525408030883835e+18
14427.0	1.852171816743731e+18
14428.0	1.8517794698035197e+18
14429.0	1.8514255695314944e+18
14430.0	1.8510584622350333e+18
14431.0	1.8505550115373056e+18
14432.0	1.8503086230208512e+18
14433.0	1.8487421964386296e+18
14434.0	1.8495560793194493e+18
14435.0	1.8491780869652477e+18
14436.0	1.848832402495897e+18
14437.0	1.848461899490918e+18
14438.0	1.8480497134927872e+18
14439.0	1.8477096259026941e+18
14440.0	1.8473488905928704e+18
14441.0	1.8469716146257915e+18
14442.0	1.8465960264466427e+18
14443.0	1.846187106972467e+18
14444.0	1.845861917550182e+18
14445.0	1.8454942482169853e+18
14446.0	1.8432921379536904e+18
14447.0	1.8447379111870461e+18
14448.0	1.8443850074816507e+18
14449.0	1.844015296361267e+18
14450.0	1.8436395085332477e+18
14451.0	1.8432733004955643e+18
14452.0	1.8429020626485243e+18
14453.0	1.8425137506287616e+18
14454.0	1.8421633416953853e+18
14455.0	1.8417847688495104e+18
14456.0	1.8414182974095352e+18
14457.0	1.8410459203895293e+18
14458.0	1.8406801552703488e+18
14459.0	1.8403072816447483e+18
14460.0	1.8399352418467837e+18
14461.0	1.8395362293186555e+18
14462.0	1.8391310511636475e+18
14463.0	1.8388168491401208e+18
14464.0	1.838458841805619e+18
14465.0	1.8380700583460861e+18
14466.0	1.8377199866347517e+18
14467.0	1.8373218213560317e+18
14468.0	1.836978512540467e+18
14469.0	1.8365873282613245e+18
14470.0	1.8361587274350587e+18
14471.0	1.8357530560299003e+18
14472.0	1.8353871868919805e+18
14473.0	1.8350220156862461e+18
14474.0	1.834654186969497e+18
14475.0	1.8342813435428861e+18
14476.0	1.8338385693245437e+18
14477.0	1.833544837182259e+18
14478.0	1.8331727638298621e+18
14479.0	1.832804970345267e+18
14480.0	1.832418834330419e+18
14481.0	1.8320668433055736e+18
14482.0	1.831693436164505e+18
14483.0	1.8313169688592381e+18
14484.0	1.8309469305831421e+18
14485.0	1.8305492166115325e+18
14486.0	1.8299229080387581e+18
14487.0	1.8298476571918333e+18
14488.0	1.8294703191490555e+18
14489.0	1.8290979706503165e+18
14490.0	1.828734968738611e+18
14491.0	1.828369656604262e+18
14492.0	1.8280019419725821e+18
14493.0	1.8276277546909693e+18
14494.0	1.8272420766941181e+18
14495.0	1.826892620706611e+18
14496.0	1.8263904769540093e+18
14497.0	1.826153523943833e+18
14498.0	1.825785559331635e+18
14499.0	1.8254165427879933e+18
14500.0	1.8250468098572285e+18
14501.0	1.8246369793802237e+18
14502.0	1.8240773837291517e+18
14503.0	1.8239206392332285e+18
14504.0	1.8235639992418296e+18
14505.0	1.8231650102018043e+18
14506.0	1.8227590384844797e+18
14507.0	1.8222190688206843e+18
14508.0	1.8220930249523197e+18
14509.0	1.8217244714598397e+18
14510.0	1.8213364010319864e+18
14511.0	1.8204554998841341e+18
14512.0	1.8200707848994813e+18
14513.0	1.8197168040968187e+18
14514.0	1.8193140217282555e+18
14515.0	1.8189758249304061e+18
14516.0	1.816393022858856e+18
14517.0	1.8182331126775803e+18
14518.0	1.8178706224709632e+18
14519.0	1.817502114276966e+18
14520.0	1.81713305075712e+18
14521.0	1.8167634117787645e+18
14522.0	1.8163933231710205e+18
14523.0	1.8159372848857085e+18
14524.0	1.8155733031845885e+18
14525.0	1.8152813108396027e+18
14526.0	1.8147524846026747e+18
14527.0	1.814061424364748e+18
14528.0	1.8135856309075965e+18
14529.0	1.813333283124019e+18
14530.0	1.8129570708324347e+18
14531.0	1.812603279612313e+18
14532.0	1.8121292309856256e+18
14533.0	1.8118661105516544e+18
14534.0	1.8114990133215227e+18
14535.0	1.811118777853542e+18
14536.0	1.8107565342719997e+18
14537.0	1.8103791207317504e+18
14538.0	1.8100222710251515e+18
14539.0	1.809653073287577e+18
14540.0	1.809283689322905e+18
14541.0	1.8088911528001533e+18
14542.0	1.8085421497974781e+18
14543.0	1.8081141982494715e+18
14544.0	1.807803588227891e+18
14545.0	1.807424980149862e+18
14546.0	1.7993218935226322e+18
14547.0	1.7996214372925384e+18
14548.0	1.8063082953637885e+18
14549.0	1.8058375518486525e+18
14550.0	1.8055793756602365e+18
14551.0	1.8052198164332536e+18
14552.0	1.8048492681297917e+18
14553.0	1.8044736916946941e+18
14554.0	1.80411161420759e+18
14555.0	1.8037416799502333e+18
14556.0	1.803370333051289e+18
14557.0	1.803002308041113e+18
14558.0	1.80262985049047e+18
14559.0	1.8005647731720159e+18
14560.0	1.8018867943047163e+18
14561.0	1.801516536247091e+18
14562.0	1.801128735932416e+18
14563.0	1.8007826739757053e+18
14564.0	1.8004033411219453e+18
14565.0	1.8000450334752763e+18
14566.0	1.799675345842995e+18
14567.0	1.7993044301185021e+18
14568.0	1.7989221411192832e+18
14569.0	1.7985640012447741e+18
14570.0	1.7977199025979387e+18
14571.0	1.7978217251995648e+18
14572.0	1.7974160152068093e+18
14573.0	1.7970380949946368e+18
14574.0	1.7966908301115387e+18
14575.0	1.796341161053388e+18
14576.0	1.7959694316339197e+18
14577.0	1.7955992641732603e+18
14578.0	1.7952341617541117e+18
14579.0	1.7948660998340603e+18
14580.0	1.7944959390842877e+18
14581.0	1.7941211729887227e+18
14582.0	1.7937544465350653e+18
14583.0	1.7933845206663165e+18
14584.0	1.7930002620219387e+18
14585.0	1.79264291906519e+18
14586.0	1.792268981764096e+18
14587.0	1.7919000356847613e+18
14588.0	1.7915306064216061e+18
14589.0	1.7911663025979387e+18
14590.0	1.7908020927266813e+18
14591.0	1.7903820818350077e+18
14592.0	1.7899642033274877e+18
14593.0	1.7894888796323835e+18
14594.0	1.789239992988467e+18
14595.0	1.7888695336042493e+18
14596.0	1.7884371327385597e+18
14597.0	1.7880617928622075e+18
14598.0	1.78777131885527e+18
14599.0	1.7874147795271677e+18
14600.0	1.7870479205335037e+18
14601.0	1.7866831318482936e+18
14602.0	1.786313969342873e+18
14603.0	1.785951522757017e+18
14604.0	1.785542042923827e+18
14605.0	1.7852067418734587e+18
14606.0	1.7847879657848832e+18
14607.0	1.7844807145619453e+18
14608.0	1.7841206151086077e+18
14609.0	1.783749763137536e+18
14610.0	1.78337283613655e+18
14611.0	1.7830176943505403e+18
14612.0	1.7826589538516987e+18
14613.0	1.7822940678586363e+18
14614.0	1.781924480889651e+18
14615.0	1.7815609085526013e+18
14616.0	1.7811953783144448e+18
14617.0	1.7808284270460925e+18
14618.0	1.7804569056641024e+18
14619.0	1.7800406713237496e+18
14620.0	1.7795408646373376e+18
14621.0	1.7793600733577213e+18
14622.0	1.7789899612618747e+18
14623.0	1.7786254477230075e+18
14624.0	1.778199393678131e+18
14625.0	1.7778864700784637e+18
14626.0	1.7775200842022907e+18
14627.0	1.7771481484230653e+18
14628.0	1.7767863544709117e+18
14629.0	1.776418005660467e+18
14630.0	1.7760479287967741e+18
14631.0	1.7756802460418048e+18
14632.0	1.7747911978778624e+18
14633.0	1.774872788834713e+18
14634.0	1.7745703778385917e+18
14635.0	1.7741657231327224e+18
14636.0	1.773732443140915e+18
14637.0	1.7731041431126013e+18
14638.0	1.7724337993809915e+18
14639.0	1.7720552147910656e+18
14640.0	1.7716904093286397e+18
14641.0	1.769404359298251e+18
14642.0	1.7709485644578816e+18
14643.0	1.7705865322692603e+18
14644.0	1.77020511232983e+18
14645.0	1.7698236689022976e+18
14646.0	1.7694644536082427e+18
14647.0	1.7690866189598715e+18
