# Flux units: erg / (cm m2 s)
# Wavelength units: Angstrom
wave	flux
14000.0	2.233464459047731e+18
14001.0	2.2329404982034427e+18
14002.0	2.232463781999411e+18
14003.0	2.2319621616959483e+18
14004.0	2.2314604071747576e+18
14005.0	2.2309586409095165e+18
14006.0	2.2304538882998267e+18
14007.0	2.229951048292761e+18
14008.0	2.2294075419918333e+18
14009.0	2.228952352633651e+18
14010.0	2.2284450247213048e+18
14011.0	2.2276943718121467e+18
14012.0	2.2274496358514683e+18
14013.0	2.2269491261997053e+18
14014.0	2.226445750999449e+18
14015.0	2.225946974434099e+18
14016.0	2.225447781793792e+18
14017.0	2.2249476160749565e+18
14018.0	2.2244473211715576e+18
14019.0	2.2239476419919867e+18
14020.0	2.223447491372646e+18
14021.0	2.2229475001368573e+18
14022.0	2.2224224403849213e+18
14023.0	2.2218751155896317e+18
14024.0	2.2213734785089533e+18
14025.0	2.220882145994342e+18
14026.0	2.2203822386446333e+18
14027.0	2.219884168400076e+18
14028.0	2.2193852760719357e+18
14029.0	2.2188861757063165e+18
14030.0	2.2181220238491648e+18
14031.0	2.217876539624652e+18
14032.0	2.2173899047305213e+18
14033.0	2.216870780757606e+18
14034.0	2.216393846449766e+18
14035.0	2.2158965865447421e+18
14036.0	2.2153988250009595e+18
14037.0	2.2149011456655357e+18
14038.0	2.2144035837706232e+18
14039.0	2.2139061460271096e+18
14040.0	2.2133273454968824e+18
14041.0	2.2127746452815867e+18
14042.0	2.21227418428375e+18
14043.0	2.2117653296447483e+18
14044.0	2.2112808439119867e+18
14045.0	2.2107872162742267e+18
14046.0	2.2102892936691704e+18
14047.0	2.20979154386944e+18
14048.0	2.2092981225914365e+18
14049.0	2.208802622616371e+18
14050.0	2.2083064901402621e+18
14051.0	2.2078063848194045e+18
14052.0	2.207314533888819e+18
14053.0	2.2068187185020928e+18
14054.0	2.206323183294873e+18
14055.0	2.2058276799643645e+18
14056.0	2.2053322907189245e+18
14057.0	2.2048370642124795e+18
14058.0	2.2043419685683195e+18
14059.0	2.2038470406963195e+18
14060.0	2.2032875054432253e+18
14061.0	2.202787858140364e+18
14062.0	2.202295856214835e+18
14063.0	2.2017937611161595e+18
14064.0	2.201268984899174e+18
14065.0	2.2008087288217595e+18
14066.0	2.2003180153864187e+18
14067.0	2.1998186281304061e+18
14068.0	2.1993299833257984e+18
14069.0	2.198835201415577e+18
14070.0	2.198342187823923e+18
14071.0	2.1978475954962427e+18
14072.0	2.1973552815144957e+18
14073.0	2.1968619458002936e+18
14074.0	2.1963687443038203e+18
14075.0	2.1958670401142781e+18
14076.0	2.1953766269911037e+18
14077.0	2.194828340861337e+18
14078.0	2.1943923714818043e+18
14079.0	2.1939014500089848e+18
14080.0	2.1934121441820667e+18
14081.0	2.1929198285225981e+18
14082.0	2.192396097526169e+18
14083.0	2.1918691855695867e+18
14084.0	2.1913776517283837e+18
14085.0	2.190746630435635e+18
14086.0	2.1903886683996155e+18
14087.0	2.189902221410304e+18
14088.0	2.1894048490979323e+18
14089.0	2.1889141910274043e+18
14090.0	2.1884268330352632e+18
14091.0	2.1879366480822267e+18
14092.0	2.1874456074911736e+18
14093.0	2.1869546524639227e+18
14094.0	2.1864637980999677e+18
14095.0	2.1859730041339901e+18
14096.0	2.1854685166043133e+18
14097.0	2.1849845710979067e+18
14098.0	2.1844953659342843e+18
14099.0	2.184011447271424e+18
14100.0	2.1835164824895483e+18
14101.0	2.1830315957813245e+18
14102.0	2.1825416222212096e+18
14103.0	2.1820463336390648e+18
14104.0	2.1815625391276024e+18
14105.0	2.181072483359129e+18
14106.0	2.1805837278248955e+18
14107.0	2.180058632840806e+18
14108.0	2.179535066261094e+18
14109.0	2.1790494094786555e+18
14110.0	2.1785571156295677e+18
14111.0	2.1780625484677117e+18
14112.0	2.1775812319510528e+18
14113.0	2.1770965247590395e+18
14114.0	2.1766015364890621e+18
14115.0	2.17611894825943e+18
14116.0	2.1756112227270656e+18
14117.0	2.174702254974566e+18
14118.0	2.1746548375289848e+18
14119.0	2.1741570692743165e+18
14120.0	2.1736727563468792e+18
14121.0	2.1731834186432504e+18
14122.0	2.1726972954542077e+18
14123.0	2.1722059730059261e+18
14124.0	2.1717183650332664e+18
14125.0	2.171030816266649e+18
14126.0	2.1707557789761533e+18
14127.0	2.1702692380344317e+18
14128.0	2.1697819790278653e+18
14129.0	2.169290206950195e+18
14130.0	2.16879904891863e+18
14131.0	2.168323179964006e+18
14132.0	2.16783411740672e+18
14133.0	2.1671030015655928e+18
14134.0	2.166855029279949e+18
14135.0	2.1663075165798395e+18
14136.0	2.165809614107443e+18
14137.0	2.1653428954464253e+18
14138.0	2.1648527021047803e+18
14139.0	2.1643726656897021e+18
14140.0	2.1638784407830528e+18
14141.0	2.1633985704624125e+18
14142.0	2.1628763594817533e+18
14143.0	2.1624238041464827e+18
14144.0	2.1619471986720763e+18
14145.0	2.1614624579256317e+18
14146.0	2.1609769957588984e+18
14147.0	2.1604924882157565e+18
14148.0	2.1600067995566075e+18
14149.0	2.1595220420329472e+18
14150.0	2.1590402943418358e+18
14151.0	2.1585515102863352e+18
14152.0	2.1580723529973757e+18
14153.0	2.1575884444008443e+18
14154.0	2.1570923807113208e+18
14155.0	2.156593713197875e+18
14156.0	2.1561340074131453e+18
14157.0	2.1556543736512512e+18
14158.0	2.1551691832754179e+18
14159.0	2.1546880613744637e+18
14160.0	2.1542024012365821e+18
14161.0	2.1536943821029373e+18
14162.0	2.1531903207145467e+18
14163.0	2.1527559015497725e+18
14164.0	2.1522542242037755e+18
14165.0	2.1516987272265725e+18
14166.0	2.1512748005326843e+18
14167.0	2.1507587551789053e+18
14168.0	2.1502813209100283e+18
14169.0	2.1498016233947133e+18
14170.0	2.1493174564290557e+18
14171.0	2.1488367338258427e+18
14172.0	2.1483561806725115e+18
14173.0	2.1478284885753853e+18
14174.0	2.1473904673423352e+18
14175.0	2.1469118637015037e+18
14176.0	2.1464306528813048e+18
14177.0	2.145949517558579e+18
14178.0	2.1454672229302267e+18
14179.0	2.1449783734435837e+18
14180.0	2.1445070259486715e+18
14181.0	2.1440264040087547e+18
14182.0	2.1435455622873083e+18
14183.0	2.143065504061849e+18
14184.0	2.142582838657024e+18
14185.0	2.1421048876498944e+18
14186.0	2.1415182857142267e+18
14187.0	2.1410471831666683e+18
14188.0	2.1405784126521336e+18
14189.0	2.1400975373762557e+18
14190.0	2.1396189370908664e+18
14191.0	2.1391392613859325e+18
14192.0	2.1386570372218875e+18
14193.0	2.138167362296217e+18
14194.0	2.1377015647043581e+18
14195.0	2.1372238167015421e+18
14196.0	2.1367448439619576e+18
14197.0	2.1362661413355515e+18
14198.0	2.1357854237655035e+18
14199.0	2.1353072294887424e+18
14200.0	2.1347811480043517e+18
14201.0	2.1343503812395005e+18
14202.0	2.1338554214907901e+18
14203.0	2.1333245249454075e+18
14204.0	2.1328556101468157e+18
14205.0	2.1323778000683003e+18
14206.0	2.131843460838195e+18
14207.0	2.131423456657408e+18
14208.0	2.1309460358103037e+18
14209.0	2.1304088327094267e+18
14210.0	2.129948868555571e+18
14211.0	2.1295136424067067e+18
14212.0	2.1290363742322683e+18
14213.0	2.1285588074233853e+18
14214.0	2.1280825509150715e+18
14215.0	2.1276009609297915e+18
14216.0	2.127129536259686e+18
14217.0	2.1266529710505976e+18
14218.0	2.1261706747445245e+18
14219.0	2.1257001459777533e+18
14220.0	2.1252240136208381e+18
14221.0	2.1247463344046077e+18
14222.0	2.12425965085655e+18
14223.0	2.1237958145212408e+18
14224.0	2.1233202123243515e+18
14225.0	2.1227041026211837e+18
14226.0	2.1223685130027005e+18
14227.0	2.1218936926240765e+18
14228.0	2.121109037331251e+18
14229.0	2.120885554747801e+18
14230.0	2.1204681845899261e+18
14231.0	2.1199850645225467e+18
14232.0	2.1195183441838075e+18
14233.0	2.1190407287209981e+18
14234.0	2.1185690574258173e+18
14235.0	2.1180934619398144e+18
14236.0	2.1176199317291005e+18
14237.0	2.1171452573122555e+18
14238.0	2.116671488865075e+18
14239.0	2.116194824670412e+18
14240.0	2.1150902245130243e+18
14241.0	2.1152494436483067e+18
14242.0	2.1147759369256955e+18
14243.0	2.114176028980019e+18
14244.0	2.113769604277862e+18
14245.0	2.113288985693388e+18
14246.0	2.112810353531289e+18
14247.0	2.1123468527403005e+18
14248.0	2.1118699402428408e+18
14249.0	2.1114020555653115e+18
14250.0	2.1109289548513275e+18
14251.0	2.1104572600680443e+18
14252.0	2.109984446244454e+18
14253.0	2.109511451226931e+18
14254.0	2.1090381441531901e+18
14255.0	2.1085530410188797e+18
14256.0	2.1079440113008637e+18
14257.0	2.1076164764237821e+18
14258.0	2.1071500865961981e+18
14259.0	2.1066707397246973e+18
14260.0	2.106202031285862e+18
14261.0	2.1057242782498816e+18
14262.0	2.1052768970080248e+18
14263.0	2.104584553313075e+18
14264.0	2.1042909000237053e+18
14265.0	2.10386031780823e+18
14266.0	2.103391634535219e+18
14267.0	2.102920471589683e+18
14268.0	2.1024495368142843e+18
14269.0	2.1019775215861752e+18
14270.0	2.1015078065143805e+18
14271.0	2.1010356235141115e+18
14272.0	2.100566290962841e+18
14273.0	2.100094904880332e+18
14274.0	2.0992931217276928e+18
14275.0	2.0991242506600445e+18
14276.0	2.098671868130099e+18
14277.0	2.0982050387394555e+18
14278.0	2.0977448279605245e+18
14279.0	2.0972745542074363e+18
14280.0	2.0968019115114496e+18
14281.0	2.0963356139585533e+18
14282.0	2.0958661606113277e+18
14283.0	2.095396713974988e+18
14284.0	2.0949273478692861e+18
14285.0	2.0944580018962427e+18
14286.0	2.0939884596297725e+18
14287.0	2.0935199139299325e+18
14288.0	2.0930508313591805e+18
14289.0	2.0921758206918643e+18
14290.0	2.0921113626279933e+18
14291.0	2.0916357654642683e+18
14292.0	2.091119008756531e+18
14293.0	2.0906494513905661e+18
14294.0	2.0901186420867072e+18
14295.0	2.0897070902673405e+18
14296.0	2.0889156855005184e+18
14297.0	2.0887768154505216e+18
14298.0	2.0882138710671357e+18
14299.0	2.087833982887526e+18
14300.0	2.0873695157288955e+18
14301.0	2.086902654461542e+18
14302.0	2.086436846803353e+18
14303.0	2.0859532217417725e+18
14304.0	2.0854970173620221e+18
14305.0	2.0850336658882552e+18
14306.0	2.08454504457175e+18
14307.0	2.0840921570476027e+18
14308.0	2.0836316291792893e+18
14309.0	2.0831612312748024e+18
14310.0	2.0825933560676347e+18
14311.0	2.082188496679731e+18
14312.0	2.0817410567176187e+18
14313.0	2.081269533061939e+18
14314.0	2.08082992973742e+18
14315.0	2.08036638532567e+18
14316.0	2.0798768026746877e+18
14317.0	2.0794236953690102e+18
14318.0	2.078969200587571e+18
14319.0	2.0785037452509181e+18
14320.0	2.0780377916309501e+18
14321.0	2.0775724268912637e+18
14322.0	2.077087719699251e+18
14323.0	2.0766327266344952e+18
14324.0	2.0761760659144701e+18
14325.0	2.0757056898203645e+18
14326.0	2.0751950333083643e+18
14327.0	2.0747239710261245e+18
14328.0	2.0742594149482496e+18
14329.0	2.0737974140403707e+18
14330.0	2.073332613015142e+18
14331.0	2.0728677364924408e+18
14332.0	2.072403260945203e+18
14333.0	2.0719387669430267e+18
14334.0	2.0714743501160443e+18
14335.0	2.0710035730464765e+18
14336.0	2.0705269323399163e+18
14337.0	2.0700813915586555e+18
14338.0	2.069616657642291e+18
14339.0	2.0691478401515517e+18
14340.0	2.0686896493494267e+18
14341.0	2.068224809736601e+18
14342.0	2.0677623088676856e+18
14343.0	2.06729475302359e+18
14344.0	2.0668328326463483e+18
14345.0	2.0663718467600381e+18
14346.0	2.0659069400383483e+18
14347.0	2.065399224572313e+18
14348.0	2.0649260114509824e+18
14349.0	2.064463441795481e+18
14350.0	2.0639885039763453e+18
14351.0	2.0635219530874875e+18
14352.0	2.0630707281854464e+18
14353.0	2.062611339490099e+18
14354.0	2.062147348804403e+18
14355.0	2.0616820796948477e+18
14356.0	2.06120525276119e+18
14357.0	2.0606801980424187e+18
14358.0	2.0602178364243965e+18
14359.0	2.059747785808281e+18
14360.0	2.0592922927824896e+18
14361.0	2.0588310804037627e+18
14362.0	2.0583695761014784e+18
14363.0	2.0579075651272701e+18
14364.0	2.0574054096306173e+18
14365.0	2.0569765907005437e+18
14366.0	2.056516260803379e+18
14367.0	2.0560612425727997e+18
14368.0	2.055599627540889e+18
14369.0	2.055138574545715e+18
14370.0	2.0546773638447101e+18
14371.0	2.0542163209158648e+18
14372.0	2.0537527681155064e+18
14373.0	2.053294157882982e+18
14374.0	2.0528334186217464e+18
14375.0	2.0523726407729147e+18
14376.0	2.0519119350661117e+18
14377.0	2.051451048165376e+18
14378.0	2.0509895874838525e+18
14379.0	2.0505303581720573e+18
14380.0	2.0500695165698045e+18
14381.0	2.0496039622475779e+18
14382.0	2.0491487695339515e+18
14383.0	2.0486830474395645e+18
14384.0	2.0482194493407227e+18
14385.0	2.0477695582273533e+18
14386.0	2.0473023211503616e+18
14387.0	2.046849873189273e+18
14388.0	2.0463892530462715e+18
14389.0	2.0459305757048827e+18
14390.0	2.0454703296937981e+18
14391.0	2.0450116909400061e+18
14392.0	2.0445509533564925e+18
14393.0	2.044093384989081e+18
14394.0	2.0436161604354045e+18
14395.0	2.0431671367041021e+18
14396.0	2.0427159956881408e+18
14397.0	2.0422573066027008e+18
14398.0	2.0417973424488445e+18
14399.0	2.0413394502811645e+18
14400.0	2.0408719296692221e+18
14401.0	2.040419270315212e+18
14402.0	2.0399626414718968e+18
14403.0	2.0379868961177577e+18
14404.0	2.0349084246212595e+18
14405.0	2.0379328214728684e+18
14406.0	2.0381294605107197e+18
14407.0	2.0355289165332483e+18
14408.0	2.0371983887761405e+18
14409.0	2.0367482191609853e+18
14410.0	2.0362953735798781e+18
14411.0	2.03580598386688e+18
14412.0	2.035328388536729e+18
14413.0	2.034872053294694e+18
14414.0	2.0344129649115133e+18
14415.0	2.033955763965132e+18
14416.0	2.0334968819417088e+18
14417.0	2.03303244833751e+18
14418.0	2.0325692377923576e+18
14419.0	2.0321250677096445e+18
14420.0	2.031666007847731e+18
14421.0	2.0312105349545981e+18
14422.0	2.0307527199621115e+18
14423.0	2.030287393810022e+18
14424.0	2.0211215846342602e+18
14425.0	2.0293736630059005e+18
14426.0	2.0289247734923261e+18
14427.0	2.0284686899085307e+18
14428.0	2.0280007431553021e+18
14429.0	2.0275530968334328e+18
14430.0	2.027098744658329e+18
14431.0	2.026576641051852e+18
14432.0	2.0261776872439805e+18
14433.0	2.0241210790641654e+18
14434.0	2.025265390891827e+18
14435.0	2.0248033463631872e+18
14436.0	2.0243600621174776e+18
14437.0	2.023903908069376e+18
14438.0	2.0233976824201216e+18
14439.0	2.0229781345796093e+18
14440.0	2.0225354140483581e+18
14441.0	2.022077206469017e+18
14442.0	2.0216195156279293e+18
14443.0	2.0211461749997565e+18
14444.0	2.0207104304349181e+18
14445.0	2.0202564070932475e+18
14446.0	2.017927466110157e+18
14447.0	2.0193365643493373e+18
14448.0	2.0188904833417216e+18
14449.0	2.018435250362777e+18
14450.0	2.017977103181414e+18
14451.0	2.0175238482362368e+18
14452.0	2.017066939213414e+18
14453.0	2.0165829299535872e+18
14454.0	2.0161586878480384e+18
14455.0	2.015701436570009e+18
14456.0	2.0152415026151421e+18
14457.0	2.0147830853206016e+18
14458.0	2.0143355329511421e+18
14459.0	2.0138788688756733e+18
14460.0	2.013424702927667e+18
14461.0	2.0129540231659517e+18
14462.0	2.0124770636922875e+18
14463.0	2.012055546206617e+18
14464.0	2.0116073814687744e+18
14465.0	2.0111450601160707e+18
14466.0	2.010700190423449e+18
14467.0	2.010216974725939e+18
14468.0	2.0097882765918205e+18
14469.0	2.009323982238515e+18
14470.0	2.0088693029076987e+18
14471.0	2.0084222890868733e+18
14472.0	2.0079699669549048e+18
14473.0	2.0075204868833275e+18
14474.0	2.0070664517976061e+18
14475.0	2.0066099018072061e+18
14476.0	2.0060544971046912e+18
14477.0	2.0057036318310392e+18
14478.0	2.005249509503795e+18
14479.0	2.0047950616985592e+18
14480.0	2.0043334953205755e+18
14481.0	2.0038881072119805e+18
14482.0	2.0034324548026363e+18
14483.0	2.0029752169463803e+18
14484.0	2.0025217086652408e+18
14485.0	2.002053834054041e+18
14486.0	2.0014777229115392e+18
14487.0	2.0011644637675517e+18
14488.0	2.0007009646542845e+18
14489.0	2.0002019649519608e+18
14490.0	1.9997522919423997e+18
14491.0	1.9993000268529664e+18
14492.0	1.9988472869683197e+18
14493.0	1.9983934280433661e+18
14494.0	1.9979299306078203e+18
14495.0	1.9974866430066683e+18
14496.0	1.996968888054579e+18
14497.0	1.9965793848524797e+18
14498.0	1.9961262221819907e+18
14499.0	1.9956733363355643e+18
14500.0	1.9952198012108797e+18
14501.0	1.9947149043171328e+18
14502.0	1.9941731764011005e+18
14503.0	1.9938504918171645e+18
14504.0	1.9934039376920573e+18
14505.0	1.9929037199638528e+18
14506.0	1.9923960128864256e+18
14507.0	1.9919309551697917e+18
14508.0	1.9915937968816125e+18
14509.0	1.9911406409220093e+18
14510.0	1.9906873742327803e+18
14511.0	1.9902340354015227e+18
14512.0	1.989772918652928e+18
14513.0	1.9893274550468603e+18
14514.0	1.9888548844929024e+18
14515.0	1.9884205592805373e+18
14516.0	1.9869597469507587e+18
14517.0	1.9875137792770045e+18
14518.0	1.987061245752115e+18
14519.0	1.9866081703231483e+18
14520.0	1.9861549556432893e+18
14521.0	1.985701222547456e+18
14522.0	1.9852482377154555e+18
14523.0	1.9846806628204536e+18
14524.0	1.984224498706022e+18
14525.0	1.9838858321461245e+18
14526.0	1.983435311887155e+18
14527.0	1.9829699622469624e+18
14528.0	1.9824699475230717e+18
14529.0	1.9820697824002045e+18
14530.0	1.9816145259331581e+18
14531.0	1.9811677016948733e+18
14532.0	1.9805597926948861e+18
14533.0	1.9802609485348861e+18
14534.0	1.979808914971033e+18
14535.0	1.979350009459507e+18
14536.0	1.9789021819437053e+18
14537.0	1.9784429845086205e+18
14538.0	1.977995651920691e+18
14539.0	1.9775425127383037e+18
14540.0	1.9770891588075517e+18
14541.0	1.976625144633753e+18
14542.0	1.9761821774774264e+18
14543.0	1.9756529938857984e+18
14544.0	1.9752747867832315e+18
14545.0	1.974817233515315e+18
14546.0	1.964888304281185e+18
14547.0	1.9653794589573053e+18
14548.0	1.973453812924416e+18
14549.0	1.9729506356953083e+18
14550.0	1.97255129768919e+18
14551.0	1.9721011331071997e+18
14552.0	1.971646549406515e+18
14553.0	1.9711906168176637e+18
14554.0	1.9707403985485821e+18
14555.0	1.9702862409891837e+18
14556.0	1.9698298738704381e+18
14557.0	1.9693788251291645e+18
14558.0	1.9689243068596221e+18
14559.0	1.9677255294779377e+18
14560.0	1.9680100744167421e+18
14561.0	1.9675593897410552e+18
14562.0	1.9670959476703232e+18
14563.0	1.9666536801239037e+18
14564.0	1.9661935934963712e+18
14565.0	1.965745804568166e+18
14566.0	1.9652913953505275e+18
14567.0	1.9648362160586752e+18
14568.0	1.9643694252556283e+18
14569.0	1.963927209718579e+18
14570.0	1.963261068679577e+18
14571.0	1.963016612898406e+18
14572.0	1.9625419451924477e+18
14573.0	1.9620859622719483e+18
14574.0	1.9616378008895483e+18
14575.0	1.96119622624215e+18
14576.0	1.960740667785216e+18
14577.0	1.9602855237255165e+18
14578.0	1.9598330388545533e+18
14579.0	1.9593514102816768e+18
14580.0	1.9588773113233405e+18
14581.0	1.958418335347507e+18
14582.0	1.9579661876985853e+18
14583.0	1.957510961430528e+18
14584.0	1.9570487961059325e+18
14585.0	1.956599483806515e+18
14586.0	1.9561420295241728e+18
14587.0	1.9556856221401088e+18
14588.0	1.9552319964184573e+18
14589.0	1.954788316230451e+18
14590.0	1.9543451561361403e+18
14591.0	1.95390098940887e+18
14592.0	1.9534552405901307e+18
14593.0	1.9529585242669048e+18
14594.0	1.952570460549939e+18
14595.0	1.9521236597997565e+18
14596.0	1.9516422191316987e+18
14597.0	1.9511990573596664e+18
14598.0	1.9507900808429568e+18
14599.0	1.9503494977290237e+18
14600.0	1.9499039720472573e+18
14601.0	1.9494596811685883e+18
14602.0	1.9490117949325307e+18
14603.0	1.9485694233673725e+18
14604.0	1.9481030301843453e+18
14605.0	1.94767190270935e+18
14606.0	1.9472050095652861e+18
14607.0	1.9467847788920827e+18
14608.0	1.9463414426370043e+18
14609.0	1.945886248245657e+18
14610.0	1.9454393065668605e+18
14611.0	1.9449994599727101e+18
14612.0	1.9445567360860155e+18
14613.0	1.9441105779032061e+18
14614.0	1.94366211620864e+18
14615.0	1.9432156291923963e+18
14616.0	1.9427692931710968e+18
14617.0	1.9423215998730237e+18
14618.0	1.9418682560086008e+18
14619.0	1.9414005290369021e+18
14620.0	1.9408836280451072e+18
14621.0	1.9405297277730808e+18
14622.0	1.9400813264764925e+18
14623.0	1.9396326600998907e+18
14624.0	1.9391422234886141e+18
14625.0	1.9386134660382717e+18
14626.0	1.9381627679408128e+18
14627.0	1.9377091673849853e+18
14628.0	1.9372661129871355e+18
14629.0	1.9368158175428605e+18
14630.0	1.9363643896365056e+18
14631.0	1.9359136646955003e+18
14632.0	1.934772179828736e+18
14633.0	1.934921091042508e+18
14634.0	1.9345573274451958e+18
14635.0	1.9340727846699e+18
14636.0	1.9335646027972605e+18
14637.0	1.9332038909755387e+18
14638.0	1.9327492418437115e+18
14639.0	1.9322923261100035e+18
14640.0	1.93184171860951e+18
14641.0	1.9286882881896425e+18
14642.0	1.9309337038028797e+18
14643.0	1.930482767468953e+18
14644.0	1.9300225634009083e+18
14645.0	1.929562236859187e+18
14646.0	1.9291098006421496e+18
14647.0	1.928652302739046e+18
