# Flux units: erg / (cm m2 s)
# Wavelength units: Angstrom
wave	flux
14000.0	2.1304098275983355e+18
14001.0	2.1298388620279803e+18
14002.0	2.129364944263577e+18
14003.0	2.1288463252848637e+18
14004.0	2.1283258843004928e+18
14005.0	2.1278069633318904e+18
14006.0	2.12727280697344e+18
14007.0	2.1267448279859192e+18
14008.0	2.1260778195648504e+18
14009.0	2.1257156196040701e+18
14010.0	2.1251690195845115e+18
14011.0	2.123849479802061e+18
14012.0	2.1241455053897725e+18
14013.0	2.1236307787251704e+18
14014.0	2.1230979729326077e+18
14015.0	2.1225845364359163e+18
14016.0	2.122065321866035e+18
14017.0	2.1215442500583421e+18
14018.0	2.121013900450201e+18
14019.0	2.120504795830681e+18
14020.0	2.1199801924190205e+18
14021.0	2.11946208011223e+18
14022.0	2.1189334753345533e+18
14023.0	2.1183141561499643e+18
14024.0	2.117847558284902e+18
14025.0	2.1173762191785981e+18
14026.0	2.116856256344883e+18
14027.0	2.1163340000657405e+18
14028.0	2.1158103177232381e+18
14029.0	2.1152854844637181e+18
14030.0	2.1110669877182497e+18
14031.0	2.1142148330029048e+18
14032.0	2.1137389086834683e+18
14033.0	2.1131028391264253e+18
14034.0	2.112704455743897e+18
14035.0	2.1121838369210363e+18
14036.0	2.1116630335487995e+18
14037.0	2.1111202956443645e+18
14038.0	2.1106359994941437e+18
14039.0	2.1101125302222845e+18
14040.0	2.109579878780108e+18
14041.0	2.1090795570331645e+18
14042.0	2.108554113082982e+18
14043.0	2.1079955727187968e+18
14044.0	2.107522054252134e+18
14045.0	2.107007325909811e+18
14046.0	2.1064875191042045e+18
14047.0	2.1059536714465277e+18
14048.0	2.1054540677644288e+18
14049.0	2.104948424284569e+18
14050.0	2.1044313068666877e+18
14051.0	2.1038967344332797e+18
14052.0	2.1033932619251704e+18
14053.0	2.102882097063526e+18
14054.0	2.102372685420953e+18
14055.0	2.101844854072934e+18
14056.0	2.1013428780924928e+18
14057.0	2.1008224320749565e+18
14058.0	2.1003121413062653e+18
14059.0	2.0997954936504317e+18
14060.0	2.0992845267599355e+18
14061.0	2.0987599887794173e+18
14062.0	2.0982572158812155e+18
14063.0	2.0977185263190016e+18
14064.0	2.096763768510874e+18
14065.0	2.0967054072872952e+18
14066.0	2.0961962523361277e+18
14067.0	2.095554023863091e+18
14068.0	2.095176915668172e+18
14069.0	2.0946517988737021e+18
14070.0	2.094145613489766e+18
14071.0	2.0936281286508536e+18
14072.0	2.0931176382332925e+18
14073.0	2.0925999940108288e+18
14074.0	2.0920960819396603e+18
14075.0	2.09155242632151e+18
14076.0	2.0909283507961856e+18
14077.0	2.0896214962667517e+18
14078.0	2.089974844568371e+18
14079.0	2.0895232639893501e+18
14080.0	2.089030007128064e+18
14081.0	2.0885176594726904e+18
14082.0	2.087947187152486e+18
14083.0	2.0874913434828797e+18
14084.0	2.0869857604009981e+18
14085.0	2.0854593005027325e+18
14086.0	2.0858893995343867e+18
14087.0	2.0854553142362104e+18
14088.0	2.0849162354425848e+18
14089.0	2.084302080285081e+18
14090.0	2.0839058477416445e+18
14091.0	2.0834170368425976e+18
14092.0	2.082904420751769e+18
14093.0	2.0823982924103677e+18
14094.0	2.0818896810409976e+18
14095.0	2.0813815008460797e+18
14096.0	2.0806707810664445e+18
14097.0	2.080236353513062e+18
14098.0	2.0797166842806264e+18
14099.0	2.0793397774123005e+18
14100.0	2.0788004972920827e+18
14101.0	2.078327480464179e+18
14102.0	2.0778139516927992e+18
14103.0	2.0772933915901947e+18
14104.0	2.0768001515061243e+18
14105.0	2.0762686241374203e+18
14106.0	2.0757904734814203e+18
14107.0	2.075198772949811e+18
14108.0	2.0747435181604861e+18
14109.0	2.0742621748002816e+18
14110.0	2.0737016731795453e+18
14111.0	2.0731332426465277e+18
14112.0	2.0727293982801915e+18
14113.0	2.072157474730803e+18
14114.0	2.0716787133841403e+18
14115.0	2.0712150582427643e+18
14116.0	2.0703356938878968e+18
14117.0	2.0645057153466386e+18
14118.0	2.0697069844955133e+18
14119.0	2.0690979094790136e+18
14120.0	2.0686039546855421e+18
14121.0	2.068155164157542e+18
14122.0	2.0676028280078333e+18
14123.0	2.0669581131513848e+18
14124.0	2.0664264532426747e+18
14125.0	2.0654845467820024e+18
14126.0	2.0656182393831421e+18
14127.0	2.0651763090587643e+18
14128.0	2.064671135340953e+18
14129.0	2.0641469228384253e+18
14130.0	2.063623651537715e+18
14131.0	2.0631465444245501e+18
14132.0	2.0626438168248315e+18
14133.0	2.061342710169597e+18
14134.0	2.061649525184921e+18
14135.0	2.0610992090120184e+18
14136.0	2.060114111286477e+18
14137.0	2.0601338765246461e+18
14138.0	2.05954460197847e+18
14139.0	2.0591385665077243e+18
14140.0	2.0585384924676093e+18
14141.0	2.0581262913699835e+18
14142.0	2.056999348994048e+18
14143.0	2.0568210071879677e+18
14144.0	2.0566316159074301e+18
14145.0	2.0561296533487608e+18
14146.0	2.0556193223147517e+18
14147.0	2.0551202924134397e+18
14148.0	2.0545874731991035e+18
14149.0	2.0540634318241787e+18
14150.0	2.053624107001446e+18
14151.0	2.0530332671410173e+18
14152.0	2.052625144584601e+18
14153.0	2.052128237001113e+18
14154.0	2.0515866332364797e+18
14155.0	2.0479967552864282e+18
14156.0	2.0504902371377134e+18
14157.0	2.050119453953228e+18
14158.0	2.04957444776919e+18
14159.0	2.0491285563441147e+18
14160.0	2.0486302377967616e+18
14161.0	2.0480296973500416e+18
14162.0	2.0474715193737208e+18
14163.0	2.0471349499658237e+18
14164.0	2.046399384807014e+18
14165.0	2.0451308527943688e+18
14166.0	2.0456229050515453e+18
14167.0	2.0451167196676093e+18
14168.0	2.044582199243571e+18
14169.0	2.0441412050878461e+18
14170.0	2.043609833747251e+18
14171.0	2.0431087838691325e+18
14172.0	2.0426530257633277e+18
14173.0	2.041711875955097e+18
14174.0	2.0416369019322363e+18
14175.0	2.0411607293100024e+18
14176.0	2.040599672363417e+18
14177.0	2.0401481370828797e+18
14178.0	2.0396606062854144e+18
14179.0	2.0390815809404925e+18
14180.0	2.038682440905523e+18
14181.0	2.0381852330098683e+18
14182.0	2.0376898135654397e+18
14183.0	2.037194979645849e+18
14184.0	2.0366903797088253e+18
14185.0	2.0362017835581437e+18
14186.0	2.0345254360121347e+18
14187.0	2.0351776737722365e+18
14188.0	2.0347133441867773e+18
14189.0	2.0342028671909883e+18
14190.0	2.033721840920166e+18
14191.0	2.0332223882330107e+18
14192.0	2.0327279787769853e+18
14193.0	2.032049769886515e+18
14194.0	2.0317429078949883e+18
14195.0	2.0312626735087608e+18
14196.0	2.0307670460268536e+18
14197.0	2.030273074456166e+18
14198.0	2.0297753011683325e+18
14199.0	2.0292592205823997e+18
14200.0	2.0281201549901824e+18
14201.0	2.0282933109587963e+18
14202.0	2.0278081574928381e+18
14203.0	2.0272114237964283e+18
14204.0	2.0268075123212283e+18
14205.0	2.0263257646301181e+18
14206.0	2.0256475741945856e+18
14207.0	2.0253457051025403e+18
14208.0	2.0248541813276672e+18
14209.0	2.0241453137526776e+18
14210.0	2.0237455579938806e+18
14211.0	2.0233684850311165e+18
14212.0	2.0228871651590144e+18
14213.0	2.0223608034951165e+18
14214.0	2.021905661113139e+18
14215.0	2.0213813345255421e+18
14216.0	2.0209223182843901e+18
14217.0	2.0204354417983483e+18
14218.0	2.019926503273267e+18
14219.0	2.019448416370688e+18
14220.0	2.0189605684838397e+18
14221.0	2.018446702490419e+18
14222.0	2.0177589339422715e+18
14223.0	2.017470974840012e+18
14224.0	2.017007933744742e+18
14225.0	2.014718400764315e+18
14226.0	2.0160294428868603e+18
14227.0	2.0155397444730875e+18
14228.0	2.0111802553597965e+18
14229.0	2.0140637437296607e+18
14230.0	2.014074518057779e+18
14231.0	2.0133740256690179e+18
14232.0	2.0130989565018107e+18
14233.0	2.0125959906656253e+18
14234.0	2.0121237489451003e+18
14235.0	2.0116311027744765e+18
14236.0	2.0111358762680317e+18
14237.0	2.0106506036838397e+18
14238.0	2.0101630863081464e+18
14239.0	2.009655894291251e+18
14240.0	2.0072787456557066e+18
14241.0	2.008701701875302e+18
14242.0	2.008221886919475e+18
14243.0	2.0075043287465981e+18
14244.0	2.0072540412051453e+18
14245.0	2.0067339122769915e+18
14246.0	2.0062167831150587e+18
14247.0	2.0057830719487997e+18
14248.0	2.0052875333861373e+18
14249.0	2.0048160164413435e+18
14250.0	2.0043347871662077e+18
14251.0	2.0038502376800253e+18
14252.0	2.003364827522662e+18
14253.0	2.0028724111998973e+18
14254.0	2.002388628432486e+18
14255.0	2.0018658336047101e+18
14256.0	2.0003374074167299e+18
14257.0	2.0009214172725245e+18
14258.0	2.0004539134377981e+18
14259.0	1.9998891252383744e+18
14260.0	1.999451043607347e+18
14261.0	1.998963606762291e+18
14262.0	1.9985186179514365e+18
14263.0	1.9964202110156813e+18
14264.0	1.997323575178035e+18
14265.0	1.9969673613279232e+18
14266.0	1.9965835774787581e+18
14267.0	1.9960974157021181e+18
14268.0	1.9956123108900861e+18
14269.0	1.9951209800531965e+18
14270.0	1.9946528336510973e+18
14271.0	1.994153100784435e+18
14272.0	1.993678527030886e+18
14273.0	1.9932057836716027e+18
14274.0	1.990407909434984e+18
14275.0	1.9920349386768381e+18
14276.0	1.991651438362624e+18
14277.0	1.9912209350000637e+18
14278.0	1.9907987111935992e+18
14279.0	1.990315336112537e+18
14280.0	1.9898242300903424e+18
14281.0	1.9893550216904701e+18
14282.0	1.9888736565198845e+18
14283.0	1.9883932694609915e+18
14284.0	1.9879124143177725e+18
14285.0	1.9874316900368381e+18
14286.0	1.9869421291962363e+18
14287.0	1.9864656445177853e+18
14288.0	1.9859885625704445e+18
14289.0	1.9842816536477655e+18
14290.0	1.9850057465462781e+18
14291.0	1.984545829368627e+18
14292.0	1.984068957136486e+18
14293.0	1.9835907880255483e+18
14294.0	1.9828885138964475e+18
14295.0	1.9825973000142843e+18
14296.0	1.9811540534296579e+18
14297.0	1.981677885089382e+18
14298.0	1.9803765234204664e+18
14299.0	1.9806649304743933e+18
14300.0	1.9802276390502397e+18
14301.0	1.979723789054771e+18
14302.0	1.9792786274385915e+18
14303.0	1.9787335709229053e+18
14304.0	1.978305223432601e+18
14305.0	1.9778368287277053e+18
14306.0	1.977110984287846e+18
14307.0	1.9768186899529725e+18
14308.0	1.9764040158937088e+18
14309.0	1.975896964805427e+18
14310.0	1.9743372138774515e+18
14311.0	1.9737529825624061e+18
14312.0	1.9742813004496893e+18
14313.0	1.9739155604963328e+18
14314.0	1.9735123083657216e+18
14315.0	1.9730648063279101e+18
14316.0	1.9725229358055421e+18
14317.0	1.9717512593670144e+18
14318.0	1.971648549250662e+18
14319.0	1.9711757001949181e+18
14320.0	1.9707002070499325e+18
14321.0	1.9702177211613184e+18
14322.0	1.9696796389343224e+18
14323.0	1.9692546435317755e+18
14324.0	1.96876849685463e+18
14325.0	1.9683101030481917e+18
14326.0	1.9678528500924408e+18
14327.0	1.967359663695462e+18
14328.0	1.9668913277108221e+18
14329.0	1.9664305817387005e+18
14330.0	1.965954295031398e+18
14331.0	1.9654511882665981e+18
14332.0	1.9650034463145981e+18
14333.0	1.964533638968115e+18
14334.0	1.9640600131272701e+18
14335.0	1.963526225867571e+18
14336.0	1.9628780129615872e+18
14337.0	1.9626341896814587e+18
14338.0	1.962159985026662e+18
14339.0	1.9616633710444536e+18
14340.0	1.9612228298735616e+18
14341.0	1.9607283231096827e+18
14342.0	1.960268756575846e+18
14343.0	1.9597563652997115e+18
14344.0	1.9593007128903675e+18
14345.0	1.958861975270195e+18
14346.0	1.9583865626558461e+18
14347.0	1.9578235427749883e+18
14348.0	1.9574352676651008e+18
14349.0	1.956976795005747e+18
14350.0	1.9563602742607864e+18
14351.0	1.9558808703467512e+18
14352.0	1.9555499263393795e+18
14353.0	1.955091215443558e+18
14354.0	1.954606290147737e+18
14355.0	1.9541175564238845e+18
14356.0	1.9536593203232765e+18
14357.0	1.9532114894520315e+18
14358.0	1.9527400345829373e+18
14359.0	1.9522441403432955e+18
14360.0	1.9517918786093053e+18
14361.0	1.9513291814469627e+18
14362.0	1.9508594042994688e+18
14363.0	1.9503915565318141e+18
14364.0	1.9493614858010621e+18
14365.0	1.9493843934117878e+18
14366.0	1.948900395896012e+18
14367.0	1.9485123103686656e+18
14368.0	1.9480445498425341e+18
14369.0	1.947579188458291e+18
14370.0	1.947109421377126e+18
14371.0	1.946642910753587e+18
14372.0	1.946155732277657e+18
14373.0	1.945700375147315e+18
14374.0	1.9452259825876987e+18
14375.0	1.944762897871667e+18
14376.0	1.9442958805762043e+18
14377.0	1.9438298682359805e+18
14378.0	1.9433592690049021e+18
14379.0	1.9428962597863421e+18
14380.0	1.9424247461969917e+18
14381.0	1.9419407990128637e+18
14382.0	1.941489097637888e+18
14383.0	1.9409505020280827e+18
14384.0	1.9405201798594552e+18
14385.0	1.9400949478981627e+18
14386.0	1.9395985536974843e+18
14387.0	1.939159297661337e+18
14388.0	1.9386883008102397e+18
14389.0	1.9382278719275003e+18
14390.0	1.937760717058867e+18
14391.0	1.93728239191982e+18
14392.0	1.9367737419628541e+18
14393.0	1.936367251829555e+18
14394.0	1.9358405462327293e+18
14395.0	1.93481095029719e+18
14396.0	1.9349407539396603e+18
14397.0	1.934506712262246e+18
14398.0	1.93398816374784e+18
14399.0	1.9335593498509307e+18
14400.0	1.932649630479155e+18
14401.0	1.93263242879959e+18
14402.0	1.932175177521561e+18
14403.0	1.918966393156383e+18
14404.0	1.9004108425920463e+18
14405.0	1.92904553048309e+18
14406.0	1.9303255347560445e+18
14407.0	1.9096503272341606e+18
14408.0	1.929205115361689e+18
14409.0	1.9289021322625021e+18
14410.0	1.9284191078252536e+18
14411.0	1.9279863697375227e+18
14412.0	1.927540661184102e+18
14413.0	1.927081421805977e+18
14414.0	1.9266180049010683e+18
14415.0	1.926159161465241e+18
14416.0	1.9256570177126392e+18
14417.0	1.9250618560413693e+18
14418.0	1.9245995263000573e+18
14419.0	1.9243102669635581e+18
14420.0	1.9238411021844475e+18
14421.0	1.923387328823296e+18
14422.0	1.922916991316787e+18
14423.0	1.9224463467872253e+18
14424.0	1.85679995102819e+18
14425.0	1.9215305372860416e+18
14426.0	1.921078357760409e+18
14427.0	1.9206206870519803e+18
14428.0	1.9200833698660347e+18
14429.0	1.9196965006868477e+18
14430.0	1.919240247653171e+18
14431.0	1.9179394094333952e+18
14432.0	1.9182408825831416e+18
14433.0	1.902486803290512e+18
14434.0	1.9173746967314427e+18
14435.0	1.916793220235263e+18
14436.0	1.9164804140761088e+18
14437.0	1.9160205874954237e+18
14438.0	1.9150116208246784e+18
14439.0	1.9149782928850941e+18
14440.0	1.9146425455607805e+18
14441.0	1.9141727784796155e+18
14442.0	1.9137121650475005e+18
14443.0	1.9131971951132672e+18
14444.0	1.9127989862137853e+18
14445.0	1.9123456306053117e+18
14446.0	1.895962511409159e+18
14447.0	1.9114060310118397e+18
14448.0	1.9109729909342205e+18
14449.0	1.9105160634564608e+18
14450.0	1.9100465379672061e+18
14451.0	1.9095888269934587e+18
14452.0	1.9091263764561917e+18
14453.0	1.9083253986099197e+18
14454.0	1.908211937653555e+18
14455.0	1.907749851181875e+18
14456.0	1.9072265748479992e+18
14457.0	1.9067167118983165e+18
14458.0	1.906057513271296e+18
14459.0	1.9058058013442043e+18
14460.0	1.905464475595571e+18
14461.0	1.9048947582500861e+18
14462.0	1.903503120059597e+18
14463.0	1.9040646870335483e+18
14464.0	1.9036444546826235e+18
14465.0	1.9031700805779453e+18
14466.0	1.9027271251656704e+18
14467.0	1.902032117248819e+18
14468.0	1.9018020395417597e+18
14469.0	1.901310448658022e+18
14470.0	1.9008749356187645e+18
14471.0	1.9004296431403005e+18
14472.0	1.8999864897568763e+18
14473.0	1.8995527668465661e+18
14474.0	1.8990997736259584e+18
14475.0	1.898630024999731e+18
14476.0	1.897131135100519e+18
14477.0	1.8977336368037883e+18
14478.0	1.8972751238791163e+18
14479.0	1.896804521292595e+18
14480.0	1.8963499728240637e+18
14481.0	1.8959243549868032e+18
14482.0	1.8954648119410683e+18
14483.0	1.8949950884806653e+18
14484.0	1.8945563424718845e+18
14485.0	1.8940418053898237e+18
14486.0	1.8932110865727488e+18
14487.0	1.8931934436524027e+18
14488.0	1.8924480000688125e+18
14489.0	1.892198402070937e+18
14490.0	1.8917959988674555e+18
14491.0	1.891391661250969e+18
14492.0	1.8909268233158653e+18
14493.0	1.8904328668446715e+18
14494.0	1.8899939446751232e+18
14495.0	1.8895844849745917e+18
14496.0	1.888929410187264e+18
14497.0	1.8886776932270075e+18
14498.0	1.888223035706572e+18
14499.0	1.8877793404190717e+18
14500.0	1.8873272548458496e+18
14501.0	1.8863528593063933e+18
14502.0	1.885483765963162e+18
14503.0	1.885870870023372e+18
14504.0	1.8855115205115904e+18
14505.0	1.884572883930316e+18
14506.0	1.883483369845555e+18
14507.0	1.88380734291968e+18
14508.0	1.8837204839170043e+18
14509.0	1.8832695542939643e+18
14510.0	1.8828174905311227e+18
14511.0	1.8823708256763896e+18
14512.0	1.8818931078725627e+18
14513.0	1.8814693506285568e+18
14514.0	1.880807813257625e+18
14515.0	1.880551173862195e+18
14516.0	1.8771932593782807e+18
14517.0	1.8796722524258304e+18
14518.0	1.8792216113709053e+18
14519.0	1.8787713964572672e+18
14520.0	1.8783240856797181e+18
14521.0	1.8778598232031232e+18
14522.0	1.877403251402342e+18
14523.0	1.8757102524694515e+18
14524.0	1.8752969843408883e+18
14525.0	1.8760695348723707e+18
14526.0	1.87562244219863e+18
14527.0	1.8750242153299965e+18
14528.0	1.874307009478655e+18
14529.0	1.8742692456431613e+18
14530.0	1.8738057851174907e+18
14531.0	1.8733864906129403e+18
14532.0	1.8708368990404608e+18
14533.0	1.872491749939609e+18
14534.0	1.872048294566297e+18
14535.0	1.871578985503129e+18
14536.0	1.871144583115571e+18
14537.0	1.8706808726093816e+18
14538.0	1.8702483358482427e+18
14539.0	1.8698105578848253e+18
14540.0	1.8693633343487997e+18
14541.0	1.8688750200553464e+18
14542.0	1.8684603711619072e+18
14543.0	1.8672670363090941e+18
14544.0	1.8675706552647677e+18
14545.0	1.86709700593582e+18
14546.0	1.8140562251054907e+18
14547.0	1.8184857020530432e+18
14548.0	1.8657643732140024e+18
14549.0	1.865163606274867e+18
14550.0	1.864882822787891e+18
14551.0	1.8644550255902715e+18
14552.0	1.8639756686524408e+18
14553.0	1.8635206873317379e+18
14554.0	1.8631178932191232e+18
14555.0	1.8626685389766653e+18
14556.0	1.8621957134090237e+18
14557.0	1.8617833093070845e+18
14558.0	1.861335644530278e+18
14559.0	1.8580558229536696e+18
14560.0	1.8598380330549235e+18
14561.0	1.8599967505514493e+18
14562.0	1.8595004133933053e+18
14563.0	1.8591171076947965e+18
14564.0	1.8585701587091453e+18
14565.0	1.8582339332341755e+18
14566.0	1.8577906976423933e+18
14567.0	1.8573411672391677e+18
14568.0	1.8564739344891907e+18
14569.0	1.85645107553239e+18
14570.0	1.8552079794569213e+18
14571.0	1.8555658911612925e+18
14572.0	1.8549392789209083e+18
14573.0	1.8545826204745725e+18
14574.0	1.8539514985185277e+18
14575.0	1.8537672377106424e+18
14576.0	1.8533352478867453e+18
14577.0	1.852898843977318e+18
14578.0	1.8524680151367677e+18
14579.0	1.8520250043596792e+18
14580.0	1.8515866039615483e+18
14581.0	1.851045993408102e+18
14582.0	1.8506952640299005e+18
14583.0	1.8502614589112315e+18
14584.0	1.8497862073581563e+18
14585.0	1.8493763919806467e+18
14586.0	1.8489303176839163e+18
14587.0	1.8484688268034045e+18
14588.0	1.848043202255257e+18
14589.0	1.8476280232017915e+18
14590.0	1.8472066801991675e+18
14591.0	1.8467607384424445e+18
14592.0	1.8463450510393336e+18
14593.0	1.8457487183183864e+18
14594.0	1.845507510606233e+18
14595.0	1.8450777655738363e+18
14596.0	1.844176114365234e+18
14597.0	1.8437832825634806e+18
14598.0	1.8437900672696317e+18
14599.0	1.84340028892119e+18
14600.0	1.8429573653856256e+18
14601.0	1.8425465685409787e+18
14602.0	1.8420058590019581e+18
14603.0	1.8416550188941307e+18
14604.0	1.8411715548938235e+18
14605.0	1.840713406034739e+18
14606.0	1.8401937200250877e+18
14607.0	1.8400177169629181e+18
14608.0	1.8395760450076664e+18
14609.0	1.8390050559492093e+18
14610.0	1.8384693946744824e+18
14611.0	1.8383079374585856e+18
14612.0	1.837910663050035e+18
14613.0	1.837495678612275e+18
14614.0	1.8370677253865472e+18
14615.0	1.8365240412471296e+18
14616.0	1.8362315757846525e+18
14617.0	1.8358099341475837e+18
14618.0	1.835212333069107e+18
14619.0	1.8347131572060145e+18
14620.0	1.8332775744536579e+18
14621.0	1.8341286356451325e+18
14622.0	1.8337025027473405e+18
14623.0	1.8332857181143037e+18
14624.0	1.8327755800182781e+18
14625.0	1.8324390508756984e+18
14626.0	1.831982982391398e+18
14627.0	1.8315373409468413e+18
14628.0	1.831184742586777e+18
14629.0	1.830764256899891e+18
14630.0	1.8303360637599741e+18
14631.0	1.82990134092759e+18
14632.0	1.8225856543457316e+18
14633.0	1.8282736942841825e+18
14634.0	1.8286326965075963e+18
14635.0	1.8254776756076372e+18
14636.0	1.8184019971669988e+18
14637.0	1.827403032271257e+18
14638.0	1.8269169862574077e+18
14639.0	1.8265315011985405e+18
14640.0	1.826135043840409e+18
14641.0	1.8011885467074383e+18
14642.0	1.8252943962669053e+18
14643.0	1.824878215613644e+18
14644.0	1.8244344548950013e+18
14645.0	1.823998700263833e+18
14646.0	1.823455477497856e+18
14647.0	1.823054522168115e+18
14648.0	1.8227645548331003e+18
