# Flux units: erg / (cm m2 s)
# Wavelength units: Angstrom
wave	flux
14000.0	1.1826922770137083e+18
14001.0	1.182466177184563e+18
14002.0	1.182309649953587e+18
14003.0	1.1821222987825152e+18
14004.0	1.1819307356913661e+18
14005.0	1.1817392095100925e+18
14006.0	1.1815464661417984e+18
14007.0	1.181355697451827e+18
14008.0	1.1811530823696381e+18
14009.0	1.1809726518001661e+18
14010.0	1.1807821540622333e+18
14011.0	1.1804879387361277e+18
14012.0	1.1803995211300861e+18
14013.0	1.1802084202512381e+18
14014.0	1.1800172354863101e+18
14015.0	1.1798258309398525e+18
14016.0	1.179634993463296e+18
14017.0	1.1794439697596416e+18
14018.0	1.179252946055987e+18
14019.0	1.1790619819114496e+18
14020.0	1.1788709582077952e+18
14021.0	1.1786799722528765e+18
14022.0	1.178489125548851e+18
14023.0	1.1782980355751936e+18
14024.0	1.1781064766783488e+18
14025.0	1.177916917625651e+18
14026.0	1.1777260222676992e+18
14027.0	1.1775355773779965e+18
14028.0	1.1773449680715773e+18
14029.0	1.177154368831488e+18
14030.0	1.1769219523805181e+18
14031.0	1.1767699591921661e+18
14032.0	1.176582789215027e+18
14033.0	1.1763912294793213e+18
14034.0	1.1762020068098045e+18
14035.0	1.1760117120761853e+18
14036.0	1.175821401404211e+18
14037.0	1.1756311301586941e+18
14038.0	1.1754408991784957e+18
14039.0	1.1752507059470333e+18
14040.0	1.175059661271859e+18
14041.0	1.1748699042480128e+18
14042.0	1.1746782455267325e+18
14043.0	1.174484076933939e+18
14044.0	1.1742982004801533e+18
14045.0	1.1741103694807037e+18
14046.0	1.1739204513955837e+18
14047.0	1.1737304217419773e+18
14048.0	1.1735406613626875e+18
14049.0	1.1733509219549181e+18
14050.0	1.1731611615756285e+18
14051.0	1.1729702511181821e+18
14052.0	1.1727815661584381e+18
14053.0	1.172591992845107e+18
14054.0	1.172402390171648e+18
14055.0	1.1722128143417344e+18
14056.0	1.1720232762605565e+18
14057.0	1.1718337910276096e+18
14058.0	1.1716443385102333e+18
14059.0	1.1714549187084285e+18
14060.0	1.1712655433662461e+18
14061.0	1.1710751001542653e+18
14062.0	1.1708868899897341e+18
14063.0	1.170695643149107e+18
14064.0	1.170496992523059e+18
14065.0	1.1703178932256765e+18
14066.0	1.1701300865531901e+18
14067.0	1.1699409796464637e+18
14068.0	1.1697519054553085e+18
14069.0	1.169562728923136e+18
14070.0	1.1693738602528765e+18
14071.0	1.169184458906009e+18
14072.0	1.168996006310707e+18
14073.0	1.1688071359627261e+18
14074.0	1.168618310074368e+18
14075.0	1.1684294665699325e+18
14076.0	1.1682407514112e+18
14077.0	1.1680424824668157e+18
14078.0	1.1678625778630656e+18
14079.0	1.1676739281354752e+18
14080.0	1.1674860803588096e+18
14081.0	1.1672975161950208e+18
14082.0	1.1671086651408381e+18
14083.0	1.1669202863652861e+18
14084.0	1.166732021674803e+18
14085.0	1.1665102084243453e+18
14086.0	1.1663544445566973e+18
14087.0	1.1661668920590333e+18
14088.0	1.1659784763736061e+18
14089.0	1.1657903198961664e+18
14090.0	1.1656019604144125e+18
14091.0	1.165413915505459e+18
14092.0	1.165225767416627e+18
14093.0	1.1650376537210877e+18
14094.0	1.1648495811297277e+18
14095.0	1.1646615446093824e+18
14096.0	1.164471925158707e+18
14097.0	1.1642854665355261e+18
14098.0	1.1640968939831296e+18
14099.0	1.1639097709821947e+18
14100.0	1.1637199778873344e+18
14101.0	1.1635341307936765e+18
14102.0	1.1633463367041021e+18
14103.0	1.163155874198323e+18
14104.0	1.1629709355909117e+18
14105.0	1.1627832497143805e+18
14106.0	1.1625956460462077e+18
14107.0	1.1624079710748672e+18
14108.0	1.1622205385342973e+18
14109.0	1.1620324181278717e+18
14110.0	1.1618450904449021e+18
14111.0	1.1616571470381056e+18
14112.0	1.1614704426287101e+18
14113.0	1.161283343954739e+18
14114.0	1.1610960741531645e+18
14115.0	1.160908554371072e+18
14116.0	1.1607200136953853e+18
14117.0	1.1604553732456445e+18
14118.0	1.1603471618801661e+18
14119.0	1.1601590490234877e+18
14120.0	1.1599721768419325e+18
14121.0	1.1597857081524224e+18
14122.0	1.1595968721977344e+18
14123.0	1.1594111735824381e+18
14124.0	1.159224017027072e+18
14125.0	1.1589755556855803e+18
14126.0	1.1588512088326141e+18
14127.0	1.1586643878215677e+18
14128.0	1.1584774049103872e+18
14129.0	1.1582893650345981e+18
14130.0	1.1581024702038013e+18
14131.0	1.1579174577766397e+18
14132.0	1.157730786082816e+18
14133.0	1.157470952305459e+18
14134.0	1.1573575106428925e+18
14135.0	1.1571692048482301e+18
14136.0	1.1569832344420352e+18
14137.0	1.156797892342579e+18
14138.0	1.1566109480189947e+18
14139.0	1.1564251999109117e+18
14140.0	1.1562382916583421e+18
14141.0	1.1560521056649213e+18
14142.0	1.1558614351216637e+18
14143.0	1.1556796766355453e+18
14144.0	1.1554939385937917e+18
14145.0	1.15530776182784e+18
14146.0	1.1551214692990973e+18
14147.0	1.1549354527555581e+18
14148.0	1.1547494563446781e+18
14149.0	1.1545635438198781e+18
14150.0	1.154377557475328e+18
14151.0	1.154191295984435e+18
14152.0	1.1540057458475005e+18
14153.0	1.1538198693937152e+18
14154.0	1.1536340558544896e+18
14155.0	1.1534321001168896e+18
14156.0	1.1532577127006208e+18
14157.0	1.1530768215965696e+18
14158.0	1.152890633925427e+18
14159.0	1.1527054159773695e+18
14160.0	1.1525180564176895e+18
14161.0	1.1523275259641855e+18
14162.0	1.1521348908089341e+18
14163.0	1.1519631164440575e+18
14164.0	1.1517758055383039e+18
14165.0	1.1515852968951805e+18
14166.0	1.1514067772506111e+18
14167.0	1.1512217665011711e+18
14168.0	1.151036197070438e+18
14169.0	1.1508511980650495e+18
14170.0	1.1506654407294973e+18
14171.0	1.1504802949234685e+18
14172.0	1.1502956121686013e+18
14173.0	1.1501058761162751e+18
14174.0	1.1499244850511871e+18
14175.0	1.149740371882803e+18
14176.0	1.1495553586167805e+18
14177.0	1.149370392326963e+18
14178.0	1.14918531530752e+18
14179.0	1.1489995479056383e+18
14180.0	1.1488156973006847e+18
14181.0	1.1486308635508733e+18
14182.0	1.1484459568201725e+18
14183.0	1.1482613302689791e+18
14184.0	1.1480759403544575e+18
14185.0	1.1478919312048124e+18
14186.0	1.1476923939028991e+18
14187.0	1.1475195038531583e+18
14188.0	1.1473379408216061e+18
14189.0	1.1471534023507967e+18
14190.0	1.1469689410551807e+18
14191.0	1.1467844571103231e+18
14192.0	1.1465990982336511e+18
14193.0	1.146413730968371e+18
14194.0	1.1462312309293055e+18
14195.0	1.1460471253106684e+18
14196.0	1.1458628192043007e+18
14197.0	1.1456785734959103e+18
14198.0	1.1454936877367293e+18
14199.0	1.1453098086105085e+18
14200.0	1.1451181029130237e+18
14201.0	1.1449408239435775e+18
14202.0	1.1447578751139837e+18
14203.0	1.1445727947390973e+18
14204.0	1.1443895254646783e+18
14205.0	1.144205593490227e+18
14206.0	1.1440059152596991e+18
14207.0	1.1438381120618493e+18
14208.0	1.1436543109496831e+18
14209.0	1.143454111786598e+18
14210.0	1.1432732726919165e+18
14211.0	1.1431028908359677e+18
14212.0	1.142919178643046e+18
14213.0	1.1427355796963324e+18
14214.0	1.1425518465318911e+18
14215.0	1.1423663492431871e+18
14216.0	1.142184891069235e+18
14217.0	1.1420013634256893e+18
14218.0	1.1418178710142975e+18
14219.0	1.1416344197070847e+18
14220.0	1.1414510246035455e+18
14221.0	1.1412675858792444e+18
14222.0	1.1410842721452031e+18
14223.0	1.1409009735106557e+18
14224.0	1.1407177386295293e+18
14225.0	1.1405051360706559e+18
14226.0	1.1403505021485052e+18
14227.0	1.1401681514266621e+18
14228.0	1.1398994265636861e+18
14229.0	1.1397719255941116e+18
14230.0	1.1396188846686205e+18
14231.0	1.1394358704078845e+18
14232.0	1.1392491769036797e+18
14233.0	1.1390636385107965e+18
14234.0	1.1388806955532285e+18
14235.0	1.1386974329896957e+18
14236.0	1.1385149304340477e+18
14237.0	1.1383319103012864e+18
14238.0	1.1381492517175293e+18
14239.0	1.1379657970548733e+18
14240.0	1.1375065803259901e+18
14241.0	1.1376008087207933e+18
14242.0	1.1374182986153983e+18
14243.0	1.1372152297095167e+18
14244.0	1.1370532960206845e+18
14245.0	1.1368689370660861e+18
14246.0	1.1366857080569855e+18
14247.0	1.136505757315891e+18
14248.0	1.1363202231173116e+18
14249.0	1.1361406188257277e+18
14250.0	1.1359550762385405e+18
14251.0	1.1357699908304895e+18
14252.0	1.1355876602413055e+18
14253.0	1.1354052247945215e+18
14254.0	1.1352228103192573e+18
14255.0	1.1350354717310975e+18
14256.0	1.1348346534887423e+18
14257.0	1.134673512523366e+18
14258.0	1.1344944618799101e+18
14259.0	1.1343123863044093e+18
14260.0	1.1341281640841213e+18
14261.0	1.133948699882291e+18
14262.0	1.1337814151004157e+18
14263.0	1.1335643472855039e+18
14264.0	1.1334061071007741e+18
14265.0	1.133235701756723e+18
14266.0	1.1330538468016124e+18
14267.0	1.1328720706994175e+18
14268.0	1.1326903063412733e+18
14269.0	1.1325081972113405e+18
14270.0	1.132322970874675e+18
14271.0	1.1321389340426237e+18
14272.0	1.1319573701722111e+18
14273.0	1.1317755605155839e+18
14274.0	1.1315361538375679e+18
14275.0	1.1314074054819837e+18
14276.0	1.1312304192749565e+18
14277.0	1.1310477254590461e+18
14278.0	1.1308680850964477e+18
14279.0	1.1306864482451455e+18
14280.0	1.1305045127593983e+18
14281.0	1.1303240217919487e+18
14282.0	1.130142751522816e+18
14283.0	1.1299614804148221e+18
14284.0	1.1297802386669565e+18
14285.0	1.1295990287958013e+18
14286.0	1.1294177341997055e+18
14287.0	1.129236721460838e+18
14288.0	1.129055587087155e+18
14289.0	1.1286977550745597e+18
14290.0	1.128693358605107e+18
14291.0	1.128512378581811e+18
14292.0	1.1283315386482685e+18
14293.0	1.1281458081562621e+18
14294.0	1.1279450964492285e+18
14295.0	1.1277824413401085e+18
14296.0	1.1274635098193919e+18
14297.0	1.1274172307079165e+18
14298.0	1.1272137776037887e+18
14299.0	1.1270588525969405e+18
14300.0	1.126878793642803e+18
14301.0	1.1266980661166079e+18
14302.0	1.1265170114347007e+18
14303.0	1.1263325182623743e+18
14304.0	1.1261540162338812e+18
14305.0	1.1259753858596861e+18
14306.0	1.1257934637957119e+18
14307.0	1.1256137068314621e+18
14308.0	1.1254342275301375e+18
14309.0	1.1252537223020543e+18
14310.0	1.1250660800462847e+18
14311.0	1.1248812169363452e+18
14312.0	1.1247013735694333e+18
14313.0	1.124498870055731e+18
14314.0	1.124351972107878e+18
14315.0	1.1241719534190591e+18
14316.0	1.1239848312569855e+18
14317.0	1.1238106602668031e+18
14318.0	1.1236287071649788e+18
14319.0	1.1234454487957501e+18
14320.0	1.1232653126664191e+18
14321.0	1.1230853443092477e+18
14322.0	1.1229006389051388e+18
14323.0	1.122722393568051e+18
14324.0	1.1225454358822907e+18
14325.0	1.1223655312785405e+18
14326.0	1.12218565771264e+18
14327.0	1.1220058076348415e+18
14328.0	1.1218250306158591e+18
14329.0	1.1216462408581119e+18
14330.0	1.1214665015099392e+18
14331.0	1.1212867546120188e+18
14332.0	1.1211071092162557e+18
14333.0	1.1209274764034045e+18
14334.0	1.1207478695952383e+18
14335.0	1.1205656631574527e+18
14336.0	1.1203858147573757e+18
14337.0	1.120209166611251e+18
14338.0	1.1200294725615615e+18
14339.0	1.1198500335255548e+18
14340.0	1.1196708562141183e+18
14341.0	1.1194913551024124e+18
14342.0	1.1193121652080639e+18
14343.0	1.119132610409267e+18
14344.0	1.1189534079320061e+18
14345.0	1.1187743312838652e+18
14346.0	1.1185907726024703e+18
14347.0	1.1184075846975485e+18
14348.0	1.1182307041869823e+18
14349.0	1.1180516116004864e+18
14350.0	1.1178703253929983e+18
14351.0	1.1176911824748541e+18
14352.0	1.117513588093747e+18
14353.0	1.117334772331315e+18
14354.0	1.1171558693273597e+18
14355.0	1.1169765997412348e+18
14356.0	1.116797817533235e+18
14357.0	1.116619521025638e+18
14358.0	1.1164406658367485e+18
14359.0	1.1162617645105148e+18
14360.0	1.1160828380184576e+18
14361.0	1.1159042109997055e+18
14362.0	1.1157255655260157e+18
14363.0	1.1155468386828287e+18
14364.0	1.1153625946521597e+18
14365.0	1.1151877299240957e+18
14366.0	1.1150095600844797e+18
14367.0	1.1148324253990911e+18
14368.0	1.1146538235461631e+18
14369.0	1.1144753861099516e+18
14370.0	1.1142969193136127e+18
14371.0	1.1141184869105661e+18
14372.0	1.1139400603795455e+18
14373.0	1.1137616590143487e+18
14374.0	1.1135829665644541e+18
14375.0	1.113404206166835e+18
14376.0	1.1132267711692797e+18
14377.0	1.1130484184580093e+18
14378.0	1.1128663906975741e+18
14379.0	1.1126861169950716e+18
14380.0	1.112507859075072e+18
14381.0	1.1123294459658237e+18
14382.0	1.1121514103439357e+18
14383.0	1.1119730676989951e+18
14384.0	1.1117954406023165e+18
14385.0	1.1116175064825852e+18
14386.0	1.111439510287155e+18
14387.0	1.1112615015088128e+18
14388.0	1.1110833459298301e+18
14389.0	1.1109056047480831e+18
14390.0	1.110727548154675e+18
14391.0	1.1105499269300223e+18
14392.0	1.1103719357677565e+18
14393.0	1.1101944235950077e+18
14394.0	1.1100120812617727e+18
14395.0	1.1098375269122045e+18
14396.0	1.1096612713529341e+18
14397.0	1.1094836216070143e+18
14398.0	1.109305929918054e+18
14399.0	1.1091283976126461e+18
14400.0	1.1089480148582397e+18
14401.0	1.1087721535635451e+18
14402.0	1.1085956144693247e+18
14403.0	1.1082421545992188e+18
14404.0	1.1075571584860159e+18
14405.0	1.107730642449203e+18
14406.0	1.107886020440883e+18
14407.0	1.1074906527629311e+18
14408.0	1.1075266591850493e+18
14409.0	1.107350742525542e+18
14410.0	1.1071762619957247e+18
14411.0	1.1069993940680703e+18
14412.0	1.1068217585827837e+18
14413.0	1.1066452555595775e+18
14414.0	1.1064677719080957e+18
14415.0	1.1062859169529855e+18
14416.0	1.1061079903830013e+18
14417.0	1.1059306585653247e+18
14418.0	1.105753707590451e+18
14419.0	1.1055852727304191e+18
14420.0	1.1054077043539967e+18
14421.0	1.1052314966097919e+18
14422.0	1.1050544894312447e+18
14423.0	1.104876682818355e+18
14424.0	1.1037825927479292e+18
14425.0	1.1045222473531392e+18
14426.0	1.1043472408575996e+18
14427.0	1.1041704685600767e+18
14428.0	1.1039913742958591e+18
14429.0	1.1038159693414397e+18
14430.0	1.1036402414256127e+18
14431.0	1.103451013722931e+18
14432.0	1.1032862304239613e+18
14433.0	1.1029430340157439e+18
14434.0	1.1029315164569597e+18
14435.0	1.1027543490559997e+18
14436.0	1.1025807208087551e+18
14437.0	1.1024042270130173e+18
14438.0	1.1022236496429055e+18
14439.0	1.1020500532723711e+18
14440.0	1.101874777502515e+18
14441.0	1.1016958015176703e+18
14442.0	1.1015186047565823e+18
14443.0	1.1013362615844861e+18
14444.0	1.1011682612543487e+18
14445.0	1.1009932404981759e+18
14446.0	1.1005276199059455e+18
14447.0	1.1006355125043197e+18
14448.0	1.1004646575308797e+18
14449.0	1.10028849676288e+18
14450.0	1.1001123074736128e+18
14451.0	1.0999362196865023e+18
14452.0	1.0997599641272316e+18
14453.0	1.0995819234721792e+18
14454.0	1.0994080418889724e+18
14455.0	1.0992311781556223e+18
14456.0	1.0990506653777919e+18
14457.0	1.0988736498106365e+18
14458.0	1.0986982373064701e+18
14459.0	1.0985221939789821e+18
14460.0	1.0983464643854336e+18
14461.0	1.0981682551193597e+18
14462.0	1.0979845991301119e+18
14463.0	1.0978186338762748e+18
14464.0	1.0976430871543804e+18
14465.0	1.097463036588851e+18
14466.0	1.0972919475732479e+18
14467.0	1.0971136149946367e+18
14468.0	1.0969402308558848e+18
14469.0	1.0967607247110141e+18
14470.0	1.0965848248287231e+18
14471.0	1.0964117351301119e+18
14472.0	1.0962380833947645e+18
14473.0	1.0960626507579392e+18
14474.0	1.0958871703060479e+18
14475.0	1.0957110279929856e+18
14476.0	1.0955258377273341e+18
14477.0	1.0953607113342975e+18
14478.0	1.0951853558726655e+18
14479.0	1.0950095474262015e+18
14480.0	1.094832855659315e+18
14481.0	1.0946592173457405e+18
14482.0	1.0944831547244541e+18
14483.0	1.0943072221265919e+18
14484.0	1.0941312249364479e+18
14485.0	1.0939534577500157e+18
14486.0	1.0937382094241791e+18
14487.0	1.0936077254655997e+18
14488.0	1.0934325772025855e+18
14489.0	1.0932563166101503e+18
14490.0	1.0930819568762876e+18
14491.0	1.0929070309113855e+18
14492.0	1.0927322500694013e+18
14493.0	1.0925571756261373e+18
14494.0	1.0923794931646461e+18
14495.0	1.092207070360371e+18
14496.0	1.0920126517870588e+18
14497.0	1.0918570791796733e+18
14498.0	1.0916824442994684e+18
14499.0	1.0915075921543165e+18
14500.0	1.0913327039381503e+18
14501.0	1.0911536499392511e+18
14502.0	1.0909423258042365e+18
14503.0	1.0908062080565247e+18
14504.0	1.0906325428994048e+18
14505.0	1.0904526559117311e+18
14506.0	1.0902706432507903e+18
14507.0	1.09006670528512e+18
14508.0	1.0899288863277056e+18
14509.0	1.0897542237650941e+18
14510.0	1.0895795763019773e+18
14511.0	1.0894049170948093e+18
14512.0	1.0892281968066556e+18
14513.0	1.0890556716613631e+18
14514.0	1.0888762108149756e+18
14515.0	1.0887065470238716e+18
14516.0	1.0880665272713215e+18
14517.0	1.0883549552967677e+18
14518.0	1.0881831532494848e+18
14519.0	1.0880087163404287e+18
14520.0	1.0878342853033983e+18
14521.0	1.0876594784567293e+18
14522.0	1.0874854332956672e+18
14523.0	1.0873016439275516e+18
14524.0	1.0871274939088893e+18
14525.0	1.0869615932473343e+18
14526.0	1.0867881092841468e+18
14527.0	1.0866066561433597e+18
14528.0	1.0864193603371005e+18
14529.0	1.0862634924507136e+18
14530.0	1.0860890328924156e+18
14531.0	1.0859166537089021e+18
14532.0	1.0857285165252608e+18
14533.0	1.0855679006867452e+18
14534.0	1.0853943940743164e+18
14535.0	1.0852201442312191e+18
14536.0	1.0850460713877503e+18
14537.0	1.0848703283724287e+18
14538.0	1.0846979844210684e+18
14539.0	1.08452393254912e+18
14540.0	1.0843498882269181e+18
14541.0	1.0841751753326591e+18
14542.0	1.0840018423644159e+18
14543.0	1.0838223873900543e+18
14544.0	1.0836537654640639e+18
14545.0	1.083479751340851e+18
14546.0	1.081707173878169e+18
14547.0	1.0816413971251195e+18
14548.0	1.0829565723148285e+18
14549.0	1.0827667758645248e+18
14550.0	1.0826102662496255e+18
14551.0	1.0824364928794623e+18
14552.0	1.0822620131885055e+18
14553.0	1.08208698991575e+18
14554.0	1.0819150209351679e+18
14555.0	1.0817411762618367e+18
14556.0	1.0815672292474877e+18
14557.0	1.08139366055936e+18
14558.0	1.0812198494404608e+18
14559.0	1.0807035960492028e+18
14560.0	1.0808720082599932e+18
14561.0	1.0806973532471295e+18
14562.0	1.0805160796225532e+18
14563.0	1.0803451013365757e+18
14564.0	1.080170847299174e+18
14565.0	1.0799980444909567e+18
14566.0	1.0798243407462396e+18
14567.0	1.0796506076413951e+18
14568.0	1.0794762697179133e+18
14569.0	1.0793032269955072e+18
14570.0	1.0790359676223485e+18
14571.0	1.0789555653312511e+18
14572.0	1.0787763242663933e+18
14573.0	1.0786031313879037e+18
14574.0	1.0784329852518397e+18
14575.0	1.0782613258108924e+18
14576.0	1.078087713502003e+18
14577.0	1.077914383889203e+18
14578.0	1.0777405039837183e+18
14579.0	1.0775672666456063e+18
14580.0	1.0773937759715327e+18
14581.0	1.0772197668814847e+18
14582.0	1.0770466612445183e+18
14583.0	1.0768731990917119e+18
14584.0	1.0766980332126205e+18
14585.0	1.0765261447626748e+18
14586.0	1.0763520996016124e+18
14587.0	1.0761788194816e+18
14588.0	1.0760059478867967e+18
14589.0	1.0758359812669439e+18
14590.0	1.0756665162858493e+18
14591.0	1.0754969355419645e+18
14592.0	1.0753273724141567e+18
14593.0	1.075140606767923e+18
14594.0	1.0749885271769087e+18
14595.0	1.0748183869128701e+18
14596.0	1.0746418528518141e+18
14597.0	1.0744717973127167e+18
14598.0	1.0743099164721151e+18
14599.0	1.074141463996006e+18
14600.0	1.0739718698303484e+18
14601.0	1.0738025373892604e+18
14602.0	1.0736323216277503e+18
14603.0	1.0734635176689663e+18
14604.0	1.0732876186255357e+18
14605.0	1.0731230307811327e+18
14606.0	1.0729436521431039e+18
14607.0	1.0727815599095808e+18
14608.0	1.0726153782296575e+18
14609.0	1.072446219432755e+18
14610.0	1.0722743653761021e+18
14611.0	1.0721073926504447e+18
14612.0	1.0719384762843133e+18
14613.0	1.071769107772211e+18
14614.0	1.0715991034036221e+18
14615.0	1.0714300679192573e+18
14616.0	1.071260804264755e+18
14617.0	1.0710913401225212e+18
14618.0	1.0709219120513023e+18
14619.0	1.0707466455089151e+18
14620.0	1.0705689051660285e+18
14621.0	1.0704133518524415e+18
14622.0	1.0702437761417213e+18
14623.0	1.0700741836537855e+18
14624.0	1.0698961522262013e+18
14625.0	1.0697349500239872e+18
14626.0	1.0695647703334912e+18
14627.0	1.0693893888671741e+18
14628.0	1.0692204800507901e+18
14629.0	1.0690508263260157e+18
14630.0	1.0688809821798397e+18
14631.0	1.0687113846587391e+18
14632.0	1.0684708438409213e+18
14633.0	1.0683570431459327e+18
14634.0	1.0682018371207167e+18
14635.0	1.0679971810902013e+18
14636.0	1.0678030720565248e+18
14637.0	1.0676928381976573e+18
14638.0	1.0675226283081727e+18
14639.0	1.0673512758902783e+18
14640.0	1.0671824249552893e+18
14641.0	1.0667169108983804e+18
14642.0	1.066842390213427e+18
14643.0	1.0666732406439936e+18
14644.0	1.0665032555692031e+18
14645.0	1.0663300895342592e+18
