# Flux units: erg / (cm m2 s)
# Wavelength units: Angstrom
wave	flux
14000.0	1.8695507761168381e+18
14001.0	1.869102599634944e+18
14002.0	1.868673389795737e+18
14003.0	1.8682367577161725e+18
14004.0	1.8678002816647165e+18
14005.0	1.8673637066276861e+18
14006.0	1.8669258162569213e+18
14007.0	1.8664891204239355e+18
14008.0	1.8660345484673021e+18
14009.0	1.8656190506467325e+18
14010.0	1.8651816266825725e+18
14011.0	1.864633016752537e+18
14012.0	1.8643130031013883e+18
14013.0	1.863877485028966e+18
14014.0	1.8634410341433341e+18
14015.0	1.8630061267615741e+18
14016.0	1.8625713921851387e+18
14017.0	1.8621362834767864e+18
14018.0	1.8617009264656381e+18
14019.0	1.86126550737879e+18
14020.0	1.8608275431882747e+18
14021.0	1.8603927901569024e+18
14022.0	1.8599578978746363e+18
14023.0	1.8595182106640384e+18
14024.0	1.859085850063667e+18
14025.0	1.8586556285583355e+18
14026.0	1.85822132347863e+18
14027.0	1.8577878169944061e+18
14028.0	1.8573542970884093e+18
14029.0	1.8569206580641787e+18
14030.0	1.8562973291249667e+18
14031.0	1.8560496001089528e+18
14032.0	1.8556174005698555e+18
14033.0	1.8551734754344955e+18
14034.0	1.8547510855335933e+18
14035.0	1.8543183508013053e+18
14036.0	1.8538855489601533e+18
14037.0	1.8534524182855677e+18
14038.0	1.8530203043102712e+18
14039.0	1.8525845312241661e+18
14040.0	1.8521489477206013e+18
14041.0	1.8517185265663992e+18
14042.0	1.851285365692825e+18
14043.0	1.8508473159385083e+18
14044.0	1.8504214565093376e+18
14045.0	1.8499913105014781e+18
14046.0	1.849559335777075e+18
14047.0	1.8491267654615037e+18
14048.0	1.848695731938918e+18
14049.0	1.8482625626767355e+18
14050.0	1.8478291048464384e+18
14051.0	1.8473963969576955e+18
14052.0	1.8469677307002875e+18
14053.0	1.8465379286253565e+18
14054.0	1.8461074000969723e+18
14055.0	1.845676400128819e+18
14056.0	1.8452465192009725e+18
14057.0	1.8448162154872832e+18
14058.0	1.8443860963229693e+18
14059.0	1.8439560828551165e+18
14060.0	1.8435261767614461e+18
14061.0	1.8430944604061693e+18
14062.0	1.842662821226086e+18
14063.0	1.8422300512616443e+18
14064.0	1.8417765715017725e+18
14065.0	1.8413729234288637e+18
14066.0	1.8409453225246715e+18
14067.0	1.8405110677766141e+18
14068.0	1.8400873356984315e+18
14069.0	1.8396543828623355e+18
14070.0	1.839225510245171e+18
14071.0	1.8387966695047168e+18
14072.0	1.8383687297007613e+18
14073.0	1.8379403939545083e+18
14074.0	1.8375121471275005e+18
14075.0	1.837080286488166e+18
14076.0	1.8366499777413115e+18
14077.0	1.8361834687954941e+18
14078.0	1.8357986548252672e+18
14079.0	1.8353724095201275e+18
14080.0	1.8349468202041341e+18
14081.0	1.834519400493875e+18
14082.0	1.8340878166786043e+18
14083.0	1.8336647137460221e+18
14084.0	1.8332379550580733e+18
14085.0	1.8327363028779005e+18
14086.0	1.8323797685829632e+18
14087.0	1.8319537497702397e+18
14088.0	1.8315243151163387e+18
14089.0	1.8310958065647616e+18
14090.0	1.830673545848422e+18
14091.0	1.8302473424863232e+18
14092.0	1.8298181930450936e+18
14093.0	1.8293921759100925e+18
14094.0	1.8289663651348475e+18
14095.0	1.8285406483120123e+18
14096.0	1.8281054070636536e+18
14097.0	1.8276846479081472e+18
14098.0	1.8272594629230587e+18
14099.0	1.826838814497177e+18
14100.0	1.826411507194265e+18
14101.0	1.8259887364505597e+18
14102.0	1.8255637829910525e+18
14103.0	1.8251364220010493e+18
14104.0	1.824715453130342e+18
14105.0	1.8242904996708347e+18
14106.0	1.8238669068435453e+18
14107.0	1.823440007226982e+18
14108.0	1.8230159026946043e+18
14109.0	1.8225935983575037e+18
14110.0	1.822165802837606e+18
14111.0	1.8217370023624704e+18
14112.0	1.8213218367307779e+18
14113.0	1.8208987220541432e+18
14114.0	1.8204695776460797e+18
14115.0	1.8200487329267712e+18
14116.0	1.8196025713885181e+18
14117.0	1.8188933196152832e+18
14118.0	1.818775102318182e+18
14119.0	1.8183468387139581e+18
14120.0	1.817924814556364e+18
14121.0	1.817503097421824e+18
14122.0	1.8170776188354555e+18
14123.0	1.8166529103233021e+18
14124.0	1.8162287235825656e+18
14125.0	1.81572585169879e+18
14126.0	1.8153940386316285e+18
14127.0	1.8149740227067904e+18
14128.0	1.8145519079522304e+18
14129.0	1.8141281288978427e+18
14130.0	1.8137046635773947e+18
14131.0	1.813287540044595e+18
14132.0	1.8128653682475008e+18
14133.0	1.8123373221511163e+18
14134.0	1.8120237828276221e+18
14135.0	1.8115994551582712e+18
14136.0	1.8111605296332797e+18
14137.0	1.8107627972067325e+18
14138.0	1.8103379695763453e+18
14139.0	1.809921793956249e+18
14140.0	1.8094931595755517e+18
14141.0	1.8090807470850045e+18
14142.0	1.8086301781721085e+18
14143.0	1.8082300801581053e+18
14144.0	1.80781699825664e+18
14145.0	1.8073954824486902e+18
14146.0	1.8069732854857723e+18
14147.0	1.806553504441958e+18
14148.0	1.8061327587082237e+18
14149.0	1.8057124374380541e+18
14150.0	1.8052956796485627e+18
14151.0	1.8048726371139581e+18
14152.0	1.8044576778420221e+18
14153.0	1.8040386366734333e+18
14154.0	1.8036146395152384e+18
14155.0	1.8030938109771776e+18
14156.0	1.8027789076660221e+18
14157.0	1.8023642436730872e+18
14158.0	1.8019444928282621e+18
14159.0	1.8015275102240763e+18
14160.0	1.8011094572335104e+18
14161.0	1.80067895387095e+18
14162.0	1.8002526968217597e+18
14163.0	1.7998559961939963e+18
14164.0	1.7994259458162685e+18
14165.0	1.7989360343318525e+18
14166.0	1.7986031995322365e+18
14167.0	1.798183529218048e+18
14168.0	1.7977669928878072e+18
14169.0	1.7973522265538552e+18
14170.0	1.7969335058300923e+18
14171.0	1.796517466105446e+18
14172.0	1.7961031628226555e+18
14173.0	1.7956478040145915e+18
14174.0	1.7952691187613696e+18
14175.0	1.7948524717015037e+18
14176.0	1.7944323282698237e+18
14177.0	1.7940169864773632e+18
14178.0	1.7936004216258555e+18
14179.0	1.7931770955563005e+18
14180.0	1.792769657510297e+18
14181.0	1.7923531933220861e+18
14182.0	1.7919345715838976e+18
14183.0	1.7915193187106813e+18
14184.0	1.7911031128915965e+18
14185.0	1.790688881750835e+18
14186.0	1.7902131201703933e+18
14187.0	1.7898539753406461e+18
14188.0	1.7894438227410941e+18
14189.0	1.789036589377126e+18
14190.0	1.788628106110566e+18
14191.0	1.7882133263548413e+18
14192.0	1.7877980013395968e+18
14193.0	1.7873755493629947e+18
14194.0	1.7869703779188733e+18
14195.0	1.7865570678472704e+18
14196.0	1.7861430279667707e+18
14197.0	1.7857292447776763e+18
14198.0	1.7853144079794176e+18
14199.0	1.784900566070067e+18
14200.0	1.7844533744107515e+18
14201.0	1.7840745851387896e+18
14202.0	1.7836618220044285e+18
14203.0	1.783239328084787e+18
14204.0	1.782834861283737e+18
14205.0	1.7824220125855736e+18
14206.0	1.7819850567057405e+18
14207.0	1.7815969896333307e+18
14208.0	1.7811844899012603e+18
14209.0	1.780743769214156e+18
14210.0	1.7803432769355776e+18
14211.0	1.7799463565262843e+18
14212.0	1.7795320364662784e+18
14213.0	1.7791195568668672e+18
14214.0	1.778708607349555e+18
14215.0	1.7782943225217021e+18
14216.0	1.7778856345731064e+18
14217.0	1.7774740223557627e+18
14218.0	1.7770600328069117e+18
14219.0	1.7766513649909755e+18
14220.0	1.7762402292465661e+18
14221.0	1.7758277714575355e+18
14222.0	1.775405289281945e+18
14223.0	1.7750030119075835e+18
14224.0	1.7745927267680253e+18
14225.0	1.7740841086877696e+18
14226.0	1.7737714937888765e+18
14227.0	1.773361149929062e+18
14228.0	1.772714586223411e+18
14229.0	1.7725139726630907e+18
14230.0	1.772130470671155e+18
14231.0	1.7717123505717243e+18
14232.0	1.7713106016796672e+18
14233.0	1.770899635385139e+18
14234.0	1.7704912594927613e+18
14235.0	1.770081358551449e+18
14236.0	1.76967218406359e+18
14237.0	1.769262858580787e+18
14238.0	1.76885384347648e+18
14239.0	1.7684432295034877e+18
14240.0	1.7677545432416256e+18
14241.0	1.7676263518896123e+18
14242.0	1.7672181102149627e+18
14243.0	1.766778933031731e+18
14244.0	1.766401168847667e+18
14245.0	1.7659818743431165e+18
14246.0	1.765568792441651e+18
14247.0	1.7651667918913533e+18
14248.0	1.764756864106496e+18
14249.0	1.7643513504071677e+18
14250.0	1.7639433654239227e+18
14251.0	1.7635361639366653e+18
14252.0	1.7631260398583803e+18
14253.0	1.7627171958816765e+18
14254.0	1.7623094155804664e+18
14255.0	1.7618966239248381e+18
14256.0	1.761406865113088e+18
14257.0	1.7610873161908221e+18
14258.0	1.7606814484922363e+18
14259.0	1.7602707825098747e+18
14260.0	1.7598649970196477e+18
14261.0	1.759458377701785e+18
14262.0	1.7590614489038848e+18
14263.0	1.7585236988657667e+18
14264.0	1.758229899614617e+18
14265.0	1.757840158176051e+18
14266.0	1.757436223212748e+18
14267.0	1.7570304511442941e+18
14268.0	1.756624840137113e+18
14269.0	1.7562181587435512e+18
14270.0	1.755812757451571e+18
14271.0	1.755403066225459e+18
14272.0	1.7549988628267003e+18
14273.0	1.754593563875737e+18
14274.0	1.7539971858563072e+18
14275.0	1.7537664739704827e+18
14276.0	1.75336896635863e+18
14277.0	1.752967898621542e+18
14278.0	1.7525688324063227e+18
14279.0	1.7521641693118461e+18
14280.0	1.7517581120307197e+18
14281.0	1.7513552961077243e+18
14282.0	1.7509510574768125e+18
14283.0	1.7505468792438781e+18
14284.0	1.7501428016742395e+18
14285.0	1.7497388197347323e+18
14286.0	1.7493344636633085e+18
14287.0	1.7489312601866235e+18
14288.0	1.7485276305686525e+18
14289.0	1.747944563592396e+18
14290.0	1.7477188731273213e+18
14291.0	1.747317177922355e+18
14292.0	1.7469144190418941e+18
14293.0	1.746510921963929e+18
14294.0	1.7460808195768315e+18
14295.0	1.7457027987013627e+18
14296.0	1.7451571734380544e+18
14297.0	1.74490016326615e+18
14298.0	1.744444792714035e+18
14299.0	1.7440916809711613e+18
14300.0	1.7436920309088256e+18
14301.0	1.7432859501395965e+18
14302.0	1.7428844210290685e+18
14303.0	1.7424756710047741e+18
14304.0	1.742078056018739e+18
14305.0	1.7416783455584253e+18
14306.0	1.7412567139876861e+18
14307.0	1.740870955460198e+18
14308.0	1.740474451125862e+18
14309.0	1.740071948936806e+18
14310.0	1.739582436750131e+18
14311.0	1.7392125377249275e+18
14312.0	1.7388581895012347e+18
14313.0	1.738455131986329e+18
14314.0	1.738066596829593e+18
14315.0	1.7376676044341248e+18
14316.0	1.7372576934264827e+18
14317.0	1.7368555972460544e+18
14318.0	1.7364677315002365e+18
14319.0	1.7360471266951165e+18
14320.0	1.735645381158502e+18
14321.0	1.7352450147090427e+18
14322.0	1.7348365314424824e+18
14323.0	1.734443137603993e+18
14324.0	1.7340455561723904e+18
14325.0	1.7336443105968125e+18
14326.0	1.7332443619000315e+18
14327.0	1.732843079414579e+18
14328.0	1.732443795095552e+18
14329.0	1.732045839532032e+18
14330.0	1.7316467917717504e+18
14331.0	1.7312478027317248e+18
14332.0	1.7308490502504443e+18
14333.0	1.7304495797043197e+18
14334.0	1.7300494565244925e+18
14335.0	1.729645697721958e+18
14336.0	1.729238367050137e+18
14337.0	1.7288542224908285e+18
14338.0	1.7284556998574077e+18
14339.0	1.728055397161369e+18
14340.0	1.7276600387108861e+18
14341.0	1.7272614909116416e+18
14342.0	1.7268642399911933e+18
14343.0	1.7264630615244797e+18
14344.0	1.7260668726018048e+18
14345.0	1.725672176851353e+18
14346.0	1.7252742531645435e+18
14347.0	1.724871091630899e+18
14348.0	1.724480442544947e+18
14349.0	1.7240835573678075e+18
14350.0	1.7236788019986427e+18
14351.0	1.7232807122173947e+18
14352.0	1.7228917140094976e+18
14353.0	1.722496400857497e+18
14354.0	1.7220988395585533e+18
14355.0	1.7217008420519933e+18
14356.0	1.7213041665900536e+18
14357.0	1.7209073770430461e+18
14358.0	1.7205113290489853e+18
14359.0	1.7201121638481915e+18
14360.0	1.7197187767205885e+18
14361.0	1.7193236414070781e+18
14362.0	1.7189282175254525e+18
14363.0	1.7185326057390075e+18
14364.0	1.7181087058886653e+18
14365.0	1.7177388269961213e+18
14366.0	1.7173423914483707e+18
14367.0	1.7169517037748221e+18
14368.0	1.71655669261271e+18
14369.0	1.7161618592890877e+18
14370.0	1.7157671098515453e+18
14371.0	1.7153724644327424e+18
14372.0	1.7149768157364221e+18
14373.0	1.7145834353197053e+18
14374.0	1.7141890700804093e+18
14375.0	1.7137947266514941e+18
14376.0	1.7134007137337344e+18
14377.0	1.7130065145888765e+18
14378.0	1.7126121896148984e+18
14379.0	1.7122188796624893e+18
14380.0	1.711826141813145e+18
14381.0	1.7114301777051643e+18
14382.0	1.7110388776632315e+18
14383.0	1.7106391336484861e+18
14384.0	1.7102473118351357e+18
14385.0	1.7098585434750968e+18
14386.0	1.7094624837369853e+18
14387.0	1.7090723916546048e+18
14388.0	1.708679157199667e+18
14389.0	1.7082867246956544e+18
14390.0	1.707890678379315e+18
14391.0	1.707497964018073e+18
14392.0	1.707102820315955e+18
14393.0	1.7067133137584125e+18
14394.0	1.706313380161126e+18
14395.0	1.7059203218669563e+18
14396.0	1.705536491041587e+18
14397.0	1.7051450886586365e+18
14398.0	1.704751557246976e+18
14399.0	1.7043613544349696e+18
14400.0	1.7039626472521725e+18
14401.0	1.7035770732740605e+18
14402.0	1.703186788253696e+18
14403.0	1.701440261613155e+18
14404.0	1.698707271581695e+18
14405.0	1.7017613708165102e+18
14406.0	1.701622098113331e+18
14407.0	1.6991466366697477e+18
14408.0	1.7008323727458304e+18
14409.0	1.7004458894426107e+18
14410.0	1.7000566211215352e+18
14411.0	1.6996679651688443e+18
14412.0	1.6992775106985981e+18
14413.0	1.698887910188646e+18
14414.0	1.698497172183449e+18
14415.0	1.6981073099489277e+18
14416.0	1.697716269953843e+18
14417.0	1.6973193579331581e+18
14418.0	1.696925470844518e+18
14419.0	1.6965478660440061e+18
14420.0	1.6961565542580221e+18
14421.0	1.695765218983936e+18
14422.0	1.695375294673715e+18
14423.0	1.6949853619748861e+18
14424.0	1.6862043734802365e+18
14425.0	1.6942072648957947e+18
14426.0	1.693819199501107e+18
14427.0	1.6934304999276544e+18
14428.0	1.693035669959475e+18
14429.0	1.6926526343741437e+18
14430.0	1.692264570657177e+18
14431.0	1.6918317168066557e+18
14432.0	1.691481143456563e+18
14433.0	1.689541709031013e+18
14434.0	1.6907083345559547e+18
14435.0	1.6903149172293632e+18
14436.0	1.6899352169545728e+18
14437.0	1.6895473159766013e+18
14438.0	1.6891137339949056e+18
14439.0	1.68876246606807e+18
14440.0	1.688384086160179e+18
14441.0	1.6879955140935677e+18
14442.0	1.687607087988736e+18
14443.0	1.687212373783347e+18
14444.0	1.6868340207190016e+18
14445.0	1.6864477488087037e+18
14446.0	1.6843947963842565e+18
14447.0	1.6856716951945216e+18
14448.0	1.6852872654225405e+18
14449.0	1.684900599247667e+18
14450.0	1.6845129818046461e+18
14451.0	1.684127463191347e+18
14452.0	1.683740375908352e+18
14453.0	1.6833255290437632e+18
14454.0	1.682968498143232e+18
14455.0	1.6825808974774267e+18
14456.0	1.6821904060973053e+18
14457.0	1.6818012988375035e+18
14458.0	1.6814223938027515e+18
14459.0	1.6810362728873981e+18
14460.0	1.680654017442611e+18
14461.0	1.6802623080366077e+18
14462.0	1.6798337994850304e+18
14463.0	1.6794966965616637e+18
14464.0	1.6791134177067005e+18
14465.0	1.6787244312428541e+18
14466.0	1.67834281836544e+18
14467.0	1.677935110206259e+18
14468.0	1.6775682193358848e+18
14469.0	1.6771797814870016e+18
14470.0	1.6767949775831037e+18
14471.0	1.6764127674367997e+18
14472.0	1.6760300959170552e+18
14473.0	1.6756475636482043e+18
14474.0	1.675263714367897e+18
14475.0	1.674878123612569e+18
14476.0	1.6743940455661565e+18
14477.0	1.674111532348211e+18
14478.0	1.6737269683585024e+18
14479.0	1.6733428472872952e+18
14480.0	1.672956763281817e+18
14481.0	1.6725769740877821e+18
14482.0	1.6721928496611323e+18
14483.0	1.671821165540147e+18
14484.0	1.6714410861002744e+18
14485.0	1.6710500964368381e+18
14486.0	1.6706148367335421e+18
14487.0	1.670292504471142e+18
14488.0	1.6698986643587067e+18
14489.0	1.6695226215170048e+18
14490.0	1.6691421713006587e+18
14491.0	1.668761606999244e+18
14492.0	1.668378940512665e+18
14493.0	1.667995577771622e+18
14494.0	1.667610023926169e+18
14495.0	1.6672323838935037e+18
14496.0	1.6668228067524603e+18
14497.0	1.666468126339891e+18
14498.0	1.666083604293222e+18
14499.0	1.6657007616458747e+18
14500.0	1.665318898787942e+18
14501.0	1.6648921149341693e+18
14502.0	1.6644664652201981e+18
14503.0	1.6641678123204605e+18
14504.0	1.663791811421798e+18
14505.0	1.663370392921702e+18
14506.0	1.6629317710643195e+18
14507.0	1.6625998556561405e+18
14508.0	1.6622681063423997e+18
14509.0	1.6618871762976765e+18
14510.0	1.6615058452774912e+18
14511.0	1.661125547733811e+18
14512.0	1.6607415642357757e+18
14513.0	1.6603642865909757e+18
14514.0	1.6599698357878781e+18
14515.0	1.6596023895916541e+18
14516.0	1.6587804838461435e+18
14517.0	1.6588427742937085e+18
14518.0	1.658462584124211e+18
14519.0	1.658082627158016e+18
14520.0	1.6577025091305472e+18
14521.0	1.6573216596164605e+18
14522.0	1.6569420516163581e+18
14523.0	1.6564579651813376e+18
14524.0	1.656075630883635e+18
14525.0	1.655802928981606e+18
14526.0	1.6554242068185085e+18
14527.0	1.6550394314358781e+18
14528.0	1.6546345703702525e+18
14529.0	1.654284671464243e+18
14530.0	1.653903759874457e+18
14531.0	1.6535282354487293e+18
14532.0	1.6529863984807933e+18
14533.0	1.6527707340799997e+18
14534.0	1.6523922065326083e+18
14535.0	1.6520107731714043e+18
14536.0	1.6516307272859648e+18
14537.0	1.651245802586112e+18
14538.0	1.650869748000358e+18
14539.0	1.6504918797975552e+18
14540.0	1.650113665984102e+18
14541.0	1.6497309089005565e+18
14542.0	1.649357097428582e+18
14543.0	1.648913586690457e+18
14544.0	1.6486015254396925e+18
14545.0	1.6482218570416125e+18
14546.0	1.6379875170451384e+18
14547.0	1.638778490637508e+18
14548.0	1.6470891500142587e+18
14549.0	1.6466901525856253e+18
14550.0	1.646336183527014e+18
14551.0	1.6459598286290941e+18
14552.0	1.6455816433369085e+18
14553.0	1.6452031761874941e+18
14554.0	1.6448283312390144e+18
14555.0	1.6444510770823165e+18
14556.0	1.6440716351766525e+18
14557.0	1.6436974076297216e+18
14558.0	1.6433175009951744e+18
14559.0	1.6426044542156787e+18
14560.0	1.6425510523371515e+18
14561.0	1.642186377737011e+18
14562.0	1.641805467824947e+18
14563.0	1.641434959786803e+18
14564.0	1.6410538821025792e+18
14565.0	1.640682389241856e+18
14566.0	1.6403062272819195e+18
14567.0	1.6399300535779325e+18
14568.0	1.6395397400363003e+18
14569.0	1.6391780920459261e+18
14570.0	1.6387055047147515e+18
14571.0	1.6384257580597243e+18
14572.0	1.638038065119232e+18
14573.0	1.6376646009356285e+18
14574.0	1.63728590897152e+18
14575.0	1.6369226570792957e+18
14576.0	1.6365470487674877e+18
14577.0	1.636172056179507e+18
14578.0	1.635797301827993e+18
14579.0	1.635422601163571e+18
14580.0	1.635047613608755e+18
14581.0	1.6346690390851581e+18
14582.0	1.6342974841487357e+18
14583.0	1.633922541892403e+18
14584.0	1.6335444841070587e+18
14585.0	1.6331656730247165e+18
14586.0	1.63278784340951e+18
14587.0	1.6324117619802107e+18
14588.0	1.6320394889789437e+18
14589.0	1.6316760777031677e+18
14590.0	1.6313171711098877e+18
14591.0	1.6309577410674685e+18
14592.0	1.6305985056407547e+18
14593.0	1.6302167837114365e+18
14594.0	1.629881950745395e+18
14595.0	1.6295219385335803e+18
14596.0	1.6291353931546624e+18
14597.0	1.628779439351398e+18
14598.0	1.6284452808294397e+18
14599.0	1.628088843842355e+18
14600.0	1.6277295111077885e+18
14601.0	1.627371772208742e+18
14602.0	1.6270091628838907e+18
14603.0	1.6266550310862843e+18
14604.0	1.6262865614798848e+18
14605.0	1.625931595854643e+18
14606.0	1.6255644701032443e+18
14607.0	1.625222016925696e+18
14608.0	1.6248635381514237e+18
14609.0	1.6244967462666237e+18
14610.0	1.6241344909410304e+18
14611.0	1.623788331676467e+18
14612.0	1.6234319349547003e+18
14613.0	1.6230741121695744e+18
14614.0	1.6227154857558016e+18
14615.0	1.6223561278554112e+18
14616.0	1.622000469331148e+18
14617.0	1.6216426113138685e+18
14618.0	1.6212787420200952e+18
14619.0	1.6209150925078525e+18
14620.0	1.6205031967555581e+18
14621.0	1.620211764769587e+18
14622.0	1.6198537440133115e+18
14623.0	1.6194966208380923e+18
14624.0	1.619127082523033e+18
14625.0	1.6187807806521341e+18
14626.0	1.6184209026580475e+18
14627.0	1.618060145537843e+18
14628.0	1.6177086007869437e+18
14629.0	1.61735105314816e+18
14630.0	1.6169931011784701e+18
14631.0	1.6166352733601787e+18
14632.0	1.6155836741058565e+18
14633.0	1.615856149515468e+18
14634.0	1.615561430872883e+18
14635.0	1.6151127259086835e+18
14636.0	1.6144896905707515e+18
14637.0	1.614491279373107e+18
14638.0	1.6141327620112381e+18
14639.0	1.6137736155037693e+18
14640.0	1.6134179167141885e+18
14641.0	1.6104290003189737e+18
14642.0	1.6127031016161277e+18
14643.0	1.6123464565915648e+18
14644.0	1.6119864913559547e+18
14645.0	1.6116264405565435e+18
14646.0	1.6112661632647163e+18
14647.0	1.6109092816814075e+18
14648.0	1.6105615403253757e+18
