# Flux units: erg / (cm m2 s)
# Wavelength units: Angstrom
wave	flux
14000.0	1.790962810067353e+18
14001.0	1.7905532077604861e+18
14002.0	1.790246323958579e+18
14003.0	1.789872841320038e+18
14004.0	1.7894984560672765e+18
14005.0	1.7891239483408381e+18
14006.0	1.7887444812693504e+18
14007.0	1.7883694198947837e+18
14008.0	1.787935715439411e+18
14009.0	1.7876262345244664e+18
14010.0	1.7872440780652544e+18
14011.0	1.7864653333856253e+18
14012.0	1.7865046642130941e+18
14013.0	1.786130963470745e+18
14014.0	1.785753528120115e+18
14015.0	1.7853687326048253e+18
14016.0	1.784960774465126e+18
14017.0	1.7845873924898816e+18
14018.0	1.7842138259652603e+18
14019.0	1.7838408701313021e+18
14020.0	1.7834672549527552e+18
14021.0	1.7830937756696576e+18
14022.0	1.7827124211613693e+18
14023.0	1.7823087059795965e+18
14024.0	1.781949284325785e+18
14025.0	1.781601544647475e+18
14026.0	1.7812295618920448e+18
14027.0	1.7808583995424765e+18
14028.0	1.780485988968038e+18
14029.0	1.7801131975507965e+18
14030.0	1.777429160080181e+18
14031.0	1.7793207207198715e+18
14032.0	1.778995491032268e+18
14033.0	1.7785723511898112e+18
14034.0	1.7782503762821115e+18
14035.0	1.7778816298516477e+18
14036.0	1.7775041777238016e+18
14037.0	1.7771367701151736e+18
14038.0	1.776767176435302e+18
14039.0	1.77639309485015e+18
14040.0	1.7760176442441725e+18
14041.0	1.7756502517350395e+18
14042.0	1.7752742307037181e+18
14043.0	1.7748842644504576e+18
14044.0	1.774532312013209e+18
14045.0	1.77415774053335e+18
14046.0	1.7737830163808253e+18
14047.0	1.7734019152084987e+18
14048.0	1.7730392119312381e+18
14049.0	1.7726739870384125e+18
14050.0	1.7723036249620477e+18
14051.0	1.7719275116560381e+18
14052.0	1.7715630266384381e+18
14053.0	1.7711928474337277e+18
14054.0	1.7708228645224448e+18
14055.0	1.770452908454707e+18
14056.0	1.7700829993631736e+18
14057.0	1.7697132362334203e+18
14058.0	1.769343538534809e+18
14059.0	1.7689739331108861e+18
14060.0	1.7686044199616507e+18
14061.0	1.7682305262813181e+18
14062.0	1.7678656469991421e+18
14063.0	1.7674748704063488e+18
14064.0	1.7667069923295232e+18
14065.0	1.7667398253412347e+18
14066.0	1.766376236226969e+18
14067.0	1.7659674492927997e+18
14068.0	1.765638740010598e+18
14069.0	1.7652642876489725e+18
14070.0	1.7649000408678397e+18
14071.0	1.7645308615852032e+18
14072.0	1.764164269349273e+18
14073.0	1.7637958819512315e+18
14074.0	1.7634276170268672e+18
14075.0	1.7630460779692032e+18
14076.0	1.7626459380121597e+18
14077.0	1.7617792035454976e+18
14078.0	1.7619163388313597e+18
14079.0	1.76158086833111e+18
14080.0	1.761219767277977e+18
14081.0	1.760852113044275e+18
14082.0	1.7604760081268733e+18
14083.0	1.7601036629835776e+18
14084.0	1.759737074103091e+18
14085.0	1.7589208709332987e+18
14086.0	1.7589608460058621e+18
14087.0	1.758635393181286e+18
14088.0	1.7582539698864125e+18
14089.0	1.7578674765168637e+18
14090.0	1.7575241140142077e+18
14091.0	1.7571676367618043e+18
14092.0	1.7568009673506813e+18
14093.0	1.7564343365271547e+18
14094.0	1.756067776167936e+18
14095.0	1.7557012728512512e+18
14096.0	1.755226517903769e+18
14097.0	1.754940114049433e+18
14098.0	1.7545536458457085e+18
14099.0	1.7542362796392443e+18
14100.0	1.7538595170549757e+18
14101.0	1.7535046487375864e+18
14102.0	1.7531386386710528e+18
14103.0	1.752763171287859e+18
14104.0	1.7524056035164157e+18
14105.0	1.752033270117171e+18
14106.0	1.7516640237256704e+18
14107.0	1.7512966849036285e+18
14108.0	1.7509210799472637e+18
14109.0	1.7505643795578875e+18
14110.0	1.7501945761628152e+18
14111.0	1.7498239892717563e+18
14112.0	1.7494656229048315e+18
14113.0	1.7490841090129915e+18
14114.0	1.7487331715973117e+18
14115.0	1.748373231527526e+18
14116.0	1.7479084741230584e+18
14117.0	1.7437800408285187e+18
14118.0	1.7472835748364285e+18
14119.0	1.746856574556569e+18
14120.0	1.7465014159933437e+18
14121.0	1.74617749660631e+18
14122.0	1.7457312545374205e+18
14123.0	1.7453875715899387e+18
14124.0	1.7450069619900413e+18
14125.0	1.7444310454632448e+18
14126.0	1.7443539273121787e+18
14127.0	1.74400853812183e+18
14128.0	1.7436441453789184e+18
14129.0	1.743273826923315e+18
14130.0	1.7428960191184893e+18
14131.0	1.7425396576288765e+18
14132.0	1.7421751776444413e+18
14133.0	1.741460597427404e+18
14134.0	1.7414531231776765e+18
14135.0	1.7410657372602365e+18
14136.0	1.7405584479354875e+18
14137.0	1.740357888062259e+18
14138.0	1.739952550523699e+18
14139.0	1.7396387779969024e+18
14140.0	1.739265677878886e+18
14141.0	1.7389016726896637e+18
14142.0	1.7382312266170368e+18
14143.0	1.7381798900137974e+18
14144.0	1.7378270769053693e+18
14145.0	1.7374641605574653e+18
14146.0	1.7370965012905984e+18
14147.0	1.7367366300073984e+18
14148.0	1.7363635332448253e+18
14149.0	1.7359999458082813e+18
14150.0	1.7356558232977403e+18
14151.0	1.7352668318007293e+18
14152.0	1.7349327991078907e+18
14153.0	1.734571275268915e+18
14154.0	1.7341937660985341e+18
14155.0	1.7332273934237693e+18
14156.0	1.7334054902824952e+18
14157.0	1.7331222925541376e+18
14158.0	1.7327486907973627e+18
14159.0	1.7323923074973693e+18
14160.0	1.7320277285273597e+18
14161.0	1.7316320043335675e+18
14162.0	1.73124082508759e+18
14163.0	1.730948414989926e+18
14164.0	1.7304619680006141e+18
14165.0	1.7301168673783803e+18
14166.0	1.7298665865478147e+18
14167.0	1.7294989876789248e+18
14168.0	1.7290069622652928e+18
14169.0	1.728571095226777e+18
14170.0	1.728199246689075e+18
14171.0	1.727847482156646e+18
14172.0	1.7274914780217341e+18
14173.0	1.7270752201932797e+18
14174.0	1.726765172208435e+18
14175.0	1.7264119178592253e+18
14176.0	1.72604945114071e+18
14177.0	1.7256923011219453e+18
14178.0	1.725332954965606e+18
14179.0	1.7249636548870141e+18
14180.0	1.724616217198592e+18
14181.0	1.724257188131635e+18
14182.0	1.7238977010466816e+18
14183.0	1.723539287703552e+18
14184.0	1.723177025667072e+18
14185.0	1.7228214141190144e+18
14186.0	1.7217654997647357e+18
14187.0	1.7220882179031035e+18
14188.0	1.7217434561806333e+18
14189.0	1.7213728676118525e+18
14190.0	1.721011795079987e+18
14191.0	1.720650454112665e+18
14192.0	1.7202955019091968e+18
14193.0	1.7198241963573248e+18
14194.0	1.719577955480371e+18
14195.0	1.719227236168499e+18
14196.0	1.7188692674215933e+18
14197.0	1.7185115620769795e+18
14198.0	1.7181506975825912e+18
14199.0	1.717794082757017e+18
14200.0	1.71700235754537e+18
14201.0	1.7170609033183227e+18
14202.0	1.7167233255997435e+18
14203.0	1.716354129539891e+18
14204.0	1.71600811959255e+18
14205.0	1.7156512380092416e+18
14206.0	1.715213698282291e+18
14207.0	1.714938951237632e+18
14208.0	1.71458251760599e+18
14209.0	1.7141385421389821e+18
14210.0	1.7138082054668278e+18
14211.0	1.7135094502260733e+18
14212.0	1.713155610352025e+18
14213.0	1.7127908736761853e+18
14214.0	1.7124429813252093e+18
14215.0	1.7120764931080187e+18
14216.0	1.7117312196804605e+18
14217.0	1.71137539506176e+18
14218.0	1.711011903255347e+18
14219.0	1.7106635394646013e+18
14220.0	1.7103037789110272e+18
14221.0	1.7099414313107456e+18
14222.0	1.7095263663423488e+18
14223.0	1.7092380448522235e+18
14224.0	1.7088854196486141e+18
14225.0	1.7071992825970696e+18
14226.0	1.708159697682432e+18
14227.0	1.70780775195607e+18
14228.0	1.7041671816478725e+18
14229.0	1.706443427073226e+18
14230.0	1.7067427040854013e+18
14231.0	1.7063202353315837e+18
14232.0	1.7060330177822715e+18
14233.0	1.7056741413879805e+18
14234.0	1.705323264370278e+18
14235.0	1.7049670454870008e+18
14236.0	1.7046140595732475e+18
14237.0	1.7042576041312253e+18
14238.0	1.7039038598873085e+18
14239.0	1.7035393195048957e+18
14240.0	1.7021514394107904e+18
14241.0	1.7028327168540667e+18
14242.0	1.7024845460013053e+18
14243.0	1.70203349558231e+18
14244.0	1.7017813877129216e+18
14245.0	1.7014141982081021e+18
14246.0	1.7010555650834432e+18
14247.0	1.7007173850628093e+18
14248.0	1.700356275621068e+18
14249.0	1.700012253773824e+18
14250.0	1.6996587712544763e+18
14251.0	1.699307177849651e+18
14252.0	1.6989539604103163e+18
14253.0	1.698600372194508e+18
14254.0	1.6982462504632315e+18
14255.0	1.6978729121087485e+18
14256.0	1.6962293086552074e+18
14257.0	1.6971430998573053e+18
14258.0	1.69683655327744e+18
14259.0	1.6964715934646272e+18
14260.0	1.6960902188236797e+18
14261.0	1.6957664252657661e+18
14262.0	1.6954398248796157e+18
14263.0	1.693179596662376e+18
14264.0	1.694395151260057e+18
14265.0	1.6943749514919933e+18
14266.0	1.6940201519611896e+18
14267.0	1.6936684427935741e+18
14268.0	1.6933152270319616e+18
14269.0	1.6929610633576443e+18
14270.0	1.692613139129958e+18
14271.0	1.6922597438521341e+18
14272.0	1.6919094506815485e+18
14273.0	1.691556706359705e+18
14274.0	1.688345975036315e+18
14275.0	1.6905964238143485e+18
14276.0	1.6904886419455997e+18
14277.0	1.6901392882991104e+18
14278.0	1.689802208863846e+18
14279.0	1.6894505953263608e+18
14280.0	1.6890956599001088e+18
14281.0	1.68874958955479e+18
14282.0	1.6883990313041915e+18
14283.0	1.688048345546752e+18
14284.0	1.687697701732352e+18
14285.0	1.6873467206959096e+18
14286.0	1.6869906897174523e+18
14287.0	1.686646293738291e+18
14288.0	1.686296044188467e+18
14289.0	1.685277784617778e+18
14290.0	1.685593468069478e+18
14291.0	1.6852451109896187e+18
14292.0	1.6848958093524987e+18
14293.0	1.6845444323737597e+18
14294.0	1.6841041646714877e+18
14295.0	1.6838373398282235e+18
14296.0	1.6829563346616325e+18
14297.0	1.683147042953625e+18
14298.0	1.682345370530611e+18
14299.0	1.6824297481830395e+18
14300.0	1.682094019313664e+18
14301.0	1.6817473433108477e+18
14302.0	1.681399662352793e+18
14303.0	1.6810283037097981e+18
14304.0	1.6806911974309885e+18
14305.0	1.6803516601335803e+18
14306.0	1.679958625327513e+18
14307.0	1.6796310703177723e+18
14308.0	1.679299742112153e+18
14309.0	1.6789434947076093e+18
14310.0	1.6784283905556477e+18
14311.0	1.677621726910873e+18
14312.0	1.677809225721446e+18
14313.0	1.677479288347033e+18
14314.0	1.6771931327954941e+18
14315.0	1.6768519295205376e+18
14316.0	1.676474284454707e+18
14317.0	1.676099525070028e+18
14318.0	1.6758137637830656e+18
14319.0	1.6754666347954176e+18
14320.0	1.6751186669469693e+18
14321.0	1.6747696874323965e+18
14322.0	1.6743975872364544e+18
14323.0	1.674064270930739e+18
14324.0	1.673727119353446e+18
14325.0	1.6733757356638205e+18
14326.0	1.6730346716397565e+18
14327.0	1.6726832057417723e+18
14328.0	1.6723359911903232e+18
14329.0	1.6719933282975741e+18
14330.0	1.6716463066841085e+18
14331.0	1.671292300715622e+18
14332.0	1.6709525872574461e+18
14333.0	1.670605867633868e+18
14334.0	1.6702592050528253e+18
14335.0	1.6699007917096957e+18
14336.0	1.6694242147565565e+18
14337.0	1.669219220665139e+18
14338.0	1.6688718718959616e+18
14339.0	1.6685158308511741e+18
14340.0	1.6681802529767421e+18
14341.0	1.6678240928137213e+18
14342.0	1.667487489851392e+18
14343.0	1.667137555713229e+18
14344.0	1.6667915373772797e+18
14345.0	1.6664512216170493e+18
14346.0	1.6661008059727867e+18
14347.0	1.665688141824e+18
14348.0	1.6654124636438528e+18
14349.0	1.6650688142508032e+18
14350.0	1.664616398166425e+18
14351.0	1.6642590971527165e+18
14352.0	1.6640270766440443e+18
14353.0	1.6636865880784896e+18
14354.0	1.6633289078996987e+18
14355.0	1.6629584971694077e+18
14356.0	1.6626226558926848e+18
14357.0	1.6621822992711677e+18
14358.0	1.6618373597102077e+18
14359.0	1.6614832564338688e+18
14360.0	1.6611384074698747e+18
14361.0	1.6607997878861821e+18
14362.0	1.6604589939752957e+18
14363.0	1.660114292650803e+18
14364.0	1.6594314935140352e+18
14365.0	1.6593622623322107e+18
14366.0	1.6590197068136448e+18
14367.0	1.6587380005797885e+18
14368.0	1.65839356601303e+18
14369.0	1.6580498797101053e+18
14370.0	1.657700680414003e+18
14371.0	1.6573515431935997e+18
14372.0	1.6570025922002941e+18
14373.0	1.656661323494195e+18
14374.0	1.65631990211543e+18
14375.0	1.655975408828416e+18
14376.0	1.655633098257203e+18
14377.0	1.6552892223717376e+18
14378.0	1.6549444539383805e+18
14379.0	1.6546029251854333e+18
14380.0	1.654258918437683e+18
14381.0	1.6539089842995197e+18
14382.0	1.653572347782758e+18
14383.0	1.653222682080051e+18
14384.0	1.6528747813404672e+18
14385.0	1.6525445520424957e+18
14386.0	1.6521921885634557e+18
14387.0	1.651858820248371e+18
14388.0	1.651514845377331e+18
14389.0	1.6511735028514816e+18
14390.0	1.6508297880272893e+18
14391.0	1.6504857426919421e+18
14392.0	1.6500547645341693e+18
14393.0	1.649714453807104e+18
14394.0	1.6493477642633213e+18
14395.0	1.649005500668313e+18
14396.0	1.648687109373952e+18
14397.0	1.6483462550650877e+18
14398.0	1.6480030066475003e+18
14399.0	1.6476617614295037e+18
14400.0	1.6472996990418941e+18
14401.0	1.646974460965683e+18
14402.0	1.646636492337971e+18
14403.0	1.6442389744844767e+18
14404.0	1.6401118095474673e+18
14405.0	1.6444959460687846e+18
14406.0	1.6452709913722877e+18
14407.0	1.6419866298810378e+18
14408.0	1.6445330757255165e+18
14409.0	1.6442343875936253e+18
14410.0	1.6438803346489341e+18
14411.0	1.6435632804986877e+18
14412.0	1.643222520142233e+18
14413.0	1.642884224358809e+18
14414.0	1.642541705750118e+18
14415.0	1.6422017808990205e+18
14416.0	1.6418462112940024e+18
14417.0	1.6414747050115067e+18
14418.0	1.6411222761013248e+18
14419.0	1.640839069984358e+18
14420.0	1.6404963064283133e+18
14421.0	1.640159047476838e+18
14422.0	1.639816109437747e+18
14423.0	1.639467975494861e+18
14424.0	1.6272693355610048e+18
14425.0	1.6387937511931904e+18
14426.0	1.638458837696512e+18
14427.0	1.638118669575782e+18
14428.0	1.6377646870953981e+18
14429.0	1.6374363334901757e+18
14430.0	1.6370999737974781e+18
14431.0	1.6361660717465597e+18
14432.0	1.6364123746992123e+18
14433.0	1.633874020506008e+18
14434.0	1.6357258896080893e+18
14435.0	1.635308066465382e+18
14436.0	1.6350521619120125e+18
14437.0	1.6347130943766525e+18
14438.0	1.634264481687142e+18
14439.0	1.6340167795146747e+18
14440.0	1.6336951334404093e+18
14441.0	1.6333506586083325e+18
14442.0	1.6330082104639485e+18
14443.0	1.6326419520946176e+18
14444.0	1.632336687294054e+18
14445.0	1.6320011412963325e+18
14446.0	1.629019611909326e+18
14447.0	1.6313133207388157e+18
14448.0	1.6309856398999547e+18
14449.0	1.6306472233205757e+18
14450.0	1.6303052029951997e+18
14451.0	1.6299693533298685e+18
14452.0	1.6296302270742523e+18
14453.0	1.6292563854032893e+18
14454.0	1.6289541438570493e+18
14455.0	1.6286111269650424e+18
14456.0	1.6282656421445632e+18
14457.0	1.6279279604072448e+18
14458.0	1.6275947380539387e+18
14459.0	1.6272580797267965e+18
14460.0	1.626916616404992e+18
14461.0	1.6265152097681405e+18
14462.0	1.6256773002362883e+18
14463.0	1.6258859433721856e+18
14464.0	1.6255706827063296e+18
14465.0	1.6252211763871744e+18
14466.0	1.6248993927397376e+18
14467.0	1.624528633043353e+18
14468.0	1.624222591457689e+18
14469.0	1.623830356924825e+18
14470.0	1.6235330545909757e+18
14471.0	1.6232076369985533e+18
14472.0	1.6228737771110395e+18
14473.0	1.6225407728615421e+18
14474.0	1.6222060321701885e+18
14475.0	1.6218651560509435e+18
14476.0	1.62138882572288e+18
14477.0	1.6211937419329533e+18
14478.0	1.6208577647607805e+18
14479.0	1.6205182291410941e+18
14480.0	1.6201743348006907e+18
14481.0	1.6198508264554493e+18
14482.0	1.6195119099150333e+18
14483.0	1.6191708257583101e+18
14484.0	1.618835427400089e+18
14485.0	1.618480272192307e+18
14486.0	1.6179635893043197e+18
14487.0	1.617826824794931e+18
14488.0	1.6174193196400637e+18
14489.0	1.617102845981491e+18
14490.0	1.6168124575383547e+18
14491.0	1.6164892578938875e+18
14492.0	1.6161523361644541e+18
14493.0	1.615807609674137e+18
14494.0	1.615465153141145e+18
14495.0	1.6151476342620157e+18
14496.0	1.614719139132211e+18
14497.0	1.6144760808931325e+18
14498.0	1.6141409811693565e+18
14499.0	1.6138061414924285e+18
14500.0	1.6134705938169853e+18
14501.0	1.6130722943205376e+18
14502.0	1.612562609209344e+18
14503.0	1.6124322754068477e+18
14504.0	1.612125795935846e+18
14505.0	1.6117359018246141e+18
14506.0	1.6113338693976061e+18
14507.0	1.610955127101849e+18
14508.0	1.6107901701586941e+18
14509.0	1.610455359003033e+18
14510.0	1.6101183684870144e+18
14511.0	1.6097856712605696e+18
14512.0	1.6094336852688893e+18
14513.0	1.6091058567905277e+18
14514.0	1.6087423498846203e+18
14515.0	1.6084352899219453e+18
14516.0	1.606414868519323e+18
14517.0	1.607767155749683e+18
14518.0	1.607433002260889e+18
14519.0	1.6070986659004413e+18
14520.0	1.6067637305933821e+18
14521.0	1.6064284245098493e+18
14522.0	1.6060889123782653e+18
14523.0	1.6055672902778875e+18
14524.0	1.6052847032401915e+18
14525.0	1.6050893845692408e+18
14526.0	1.604755675676672e+18
14527.0	1.6044067297165307e+18
14528.0	1.6039845713412093e+18
14529.0	1.6037493715501053e+18
14530.0	1.603410844241101e+18
14531.0	1.6030877905584125e+18
14532.0	1.6025534127407104e+18
14533.0	1.602420592554803e+18
14534.0	1.6020885647392765e+18
14535.0	1.6017472373129213e+18
14536.0	1.6014185968173053e+18
14537.0	1.6010790846857213e+18
14538.0	1.600754232485478e+18
14539.0	1.600420899402547e+18
14540.0	1.6000874472013821e+18
14541.0	1.599738809942016e+18
14542.0	1.5994193130291197e+18
14543.0	1.5989943478255613e+18
14544.0	1.598753777647616e+18
14545.0	1.5984130793668603e+18
14546.0	1.58307912001781e+18
14547.0	1.5842224721887135e+18
14548.0	1.5974118553812987e+18
14549.0	1.597004856898355e+18
14550.0	1.5967494724386813e+18
14551.0	1.5964224878542843e+18
14552.0	1.5960881766596603e+18
14553.0	1.595750718059315e+18
14554.0	1.5954238827921403e+18
14555.0	1.595090534609715e+18
14556.0	1.5947546161577981e+18
14557.0	1.5944253347725304e+18
14558.0	1.5940919882678272e+18
14559.0	1.592470676701182e+18
14560.0	1.5933771899469821e+18
14561.0	1.593089455659417e+18
14562.0	1.5927329532411901e+18
14563.0	1.5924273260527616e+18
14564.0	1.5920381265182715e+18
14565.0	1.5917647652716541e+18
14566.0	1.5914322995707904e+18
14567.0	1.5910974045290493e+18
14568.0	1.5906722681978877e+18
14569.0	1.5904319731662848e+18
14570.0	1.5896931733602301e+18
14571.0	1.589767367242547e+18
14572.0	1.5893660025487357e+18
14573.0	1.5890615111778301e+18
14574.0	1.5886257934565376e+18
14575.0	1.5884260657332216e+18
14576.0	1.5880895969886203e+18
14577.0	1.587772046232781e+18
14578.0	1.587440399260057e+18
14579.0	1.5871116279021565e+18
14580.0	1.5867788451119104e+18
14581.0	1.5864392272838653e+18
14582.0	1.5861074226053112e+18
14583.0	1.585783575360307e+18
14584.0	1.5854233232343037e+18
14585.0	1.5851199542591488e+18
14586.0	1.584785854457446e+18
14587.0	1.584453494453043e+18
14588.0	1.584124107371315e+18
14589.0	1.5838027381211133e+18
14590.0	1.5834818755428355e+18
14591.0	1.583153285378867e+18
14592.0	1.5828340569014272e+18
14593.0	1.5824358043811837e+18
14594.0	1.5821964941721595e+18
14595.0	1.5818711587880957e+18
14596.0	1.581234611080396e+18
14597.0	1.580857897150054e+18
14598.0	1.5808779274682368e+18
14599.0	1.5805896361771005e+18
14600.0	1.580257742579302e+18
14601.0	1.579943824090726e+18
14602.0	1.579590244263526e+18
14603.0	1.5792904270249981e+18
14604.0	1.578911659563417e+18
14605.0	1.578564745324134e+18
14606.0	1.5782667383472125e+18
14607.0	1.5780002708586493e+18
14608.0	1.5776838072664064e+18
14609.0	1.5773491722715133e+18
14610.0	1.576883980337152e+18
14611.0	1.576705344929792e+18
14612.0	1.5763999375228925e+18
14613.0	1.5760805429510141e+18
14614.0	1.5757570950037504e+18
14615.0	1.575429588647936e+18
14616.0	1.5751170576351232e+18
14617.0	1.5747954484707323e+18
14618.0	1.574435402704486e+18
14619.0	1.573933522354175e+18
14620.0	1.5730303209308152e+18
14621.0	1.5735091560972285e+18
14622.0	1.573185530311475e+18
14623.0	1.5728659511902205e+18
14624.0	1.5725035012489213e+18
14625.0	1.572220379018035e+18
14626.0	1.5718971844067325e+18
14627.0	1.571570228343603e+18
14628.0	1.5712571705262077e+18
14629.0	1.5709352006516733e+18
14630.0	1.570605149192192e+18
14631.0	1.5702904555962365e+18
14632.0	1.5689981485907973e+18
14633.0	1.5694968580472822e+18
14634.0	1.5693116359049216e+18
14635.0	1.5681268842758113e+18
14636.0	1.5666053266800632e+18
14637.0	1.568358490387251e+18
14638.0	1.5680176696328192e+18
14639.0	1.567689988793958e+18
14640.0	1.5673884418244605e+18
14641.0	1.5632910581235684e+18
14642.0	1.5667417204129792e+18
14643.0	1.5664193092976637e+18
14644.0	1.5660856473812992e+18
14645.0	1.565756515313254e+18
14646.0	1.5654004256145405e+18
14647.0	1.5650518101655547e+18
14648.0	1.564793650754355e+18
14649.0	1.56448508084224e+18
