# Flux units: erg / (cm m2 s)
# Wavelength units: Angstrom
wave	flux
14000.0	2.2375813378736123e+18
14001.0	2.2369831663697915e+18
14002.0	2.2365083023704061e+18
14003.0	2.2359697453481976e+18
14004.0	2.2354312067809277e+18
14005.0	2.2348910978662395e+18
14006.0	2.2343406374092792e+18
14007.0	2.2337944014553085e+18
14008.0	2.2331131391115261e+18
14009.0	2.2327301085593592e+18
14010.0	2.2321676356157437e+18
14011.0	2.2308344526012413e+18
14012.0	2.231107053839974e+18
14013.0	2.2305500217475064e+18
14014.0	2.2299996804087803e+18
14015.0	2.2294685020061693e+18
14016.0	2.2289336611373048e+18
14017.0	2.228392959986892e+18
14018.0	2.2278533074124795e+18
14019.0	2.2273184766099456e+18
14020.0	2.2267770624278528e+18
14021.0	2.22624020997079e+18
14022.0	2.225702673003315e+18
14023.0	2.2251388192948221e+18
14024.0	2.2246035355074557e+18
14025.0	2.2240905117302781e+18
14026.0	2.223551800357683e+18
14027.0	2.2230152448573437e+18
14028.0	2.2224705339523067e+18
14029.0	2.221935919575859e+18
14030.0	2.220811898113229e+18
14031.0	2.220815535413657e+18
14032.0	2.2203116183093243e+18
14033.0	2.2197026036908027e+18
14034.0	2.2192393193259003e+18
14035.0	2.2186980225843195e+18
14036.0	2.218169265133977e+18
14037.0	2.2176283240693755e+18
14038.0	2.2170980180819965e+18
14039.0	2.216555944555315e+18
14040.0	2.2160089351716864e+18
14041.0	2.2154871570431995e+18
14042.0	2.2149440215187453e+18
14043.0	2.2143669976956923e+18
14044.0	2.213875975559577e+18
14045.0	2.2133505987182587e+18
14046.0	2.212811835336294e+18
14047.0	2.2122738755829755e+18
14048.0	2.2117519481372667e+18
14049.0	2.2112208234217467e+18
14050.0	2.2106718242603005e+18
14051.0	2.210111458535014e+18
14052.0	2.2095901602349048e+18
14053.0	2.2090630469517312e+18
14054.0	2.208532551381811e+18
14055.0	2.207996136810086e+18
14056.0	2.2074672786964477e+18
14057.0	2.2069320603402237e+18
14058.0	2.2064022694133757e+18
14059.0	2.2058707370115067e+18
14060.0	2.205338837188607e+18
14061.0	2.204797686408806e+18
14062.0	2.204275503949414e+18
14063.0	2.20371886276608e+18
14064.0	2.2031376496721917e+18
14065.0	2.202670004908851e+18
14066.0	2.2021460004438016e+18
14067.0	2.2016017576230904e+18
14068.0	2.2010892640059387e+18
14069.0	2.2005561763561467e+18
14070.0	2.2000281000607736e+18
14071.0	2.1994943866208253e+18
14072.0	2.1989631511756795e+18
14073.0	2.1984158314135552e+18
14074.0	2.1978861780598781e+18
14075.0	2.1973274699235328e+18
14076.0	2.1968067722477565e+18
14077.0	2.1961521118576637e+18
14078.0	2.1957537704181755e+18
14079.0	2.1952223101583355e+18
14080.0	2.1947107761979387e+18
14081.0	2.194181909695692e+18
14082.0	2.1936147911409661e+18
14083.0	2.1931202843770877e+18
14084.0	2.1925968234938365e+18
14085.0	2.1916259041935357e+18
14086.0	2.1915268062117885e+18
14087.0	2.1910131801325563e+18
14088.0	2.1904672562348027e+18
14089.0	2.1899377253548024e+18
14090.0	2.189425567281971e+18
14091.0	2.1889036700352504e+18
14092.0	2.1883740938567677e+18
14093.0	2.1878496548618237e+18
14094.0	2.187323044895129e+18
14095.0	2.1867965842456573e+18
14096.0	2.1862376764604416e+18
14097.0	2.1856994046509056e+18
14098.0	2.1851759202795515e+18
14099.0	2.1846690235416568e+18
14100.0	2.1841230761558016e+18
14101.0	2.1836184913182715e+18
14102.0	2.1830889621159936e+18
14103.0	2.1825493212856315e+18
14104.0	2.182037585998643e+18
14105.0	2.181508501392588e+18
14106.0	2.1809921775370232e+18
14107.0	2.1804428294094843e+18
14108.0	2.179920836532633e+18
14109.0	2.179410789033574e+18
14110.0	2.1788532536246267e+18
14111.0	2.1782791893024763e+18
14112.0	2.1778319942877176e+18
14113.0	2.177310415808102e+18
14114.0	2.1767727546892283e+18
14115.0	2.17627108573184e+18
14116.0	2.1756279814881277e+18
14117.0	2.1742878275403779e+18
14118.0	2.1747028304330747e+18
14119.0	2.1741570441084925e+18
14120.0	2.1736433643421693e+18
14121.0	2.1730990124695547e+18
14122.0	2.1725953436680187e+18
14123.0	2.1720521947217917e+18
14124.0	2.171532614408601e+18
14125.0	2.170327715020799e+18
14126.0	2.1704955391901693e+18
14127.0	2.1699827687489533e+18
14128.0	2.1694591669370875e+18
14129.0	2.168921131686297e+18
14130.0	2.1683791890219005e+18
14131.0	2.1678954968514555e+18
14132.0	2.1673669356945403e+18
14133.0	2.1660415423414244e+18
14134.0	2.1663339406950395e+18
14135.0	2.1657895401684987e+18
14136.0	2.1652211163463677e+18
14137.0	2.1647718241796093e+18
14138.0	2.1642391039508475e+18
14139.0	2.16373266523095e+18
14140.0	2.163143620532633e+18
14141.0	2.1626905652363261e+18
14142.0	2.1620587168268285e+18
14143.0	2.161554833276928e+18
14144.0	2.1611361410744315e+18
14145.0	2.1606157453885437e+18
14146.0	2.1600944386998267e+18
14147.0	2.1595776467599355e+18
14148.0	2.1590553300828155e+18
14149.0	2.1585337683804157e+18
14150.0	2.158023442379571e+18
14151.0	2.1574883213311995e+18
14152.0	2.1569850803486717e+18
14153.0	2.1564701976559616e+18
14154.0	2.1559107379003387e+18
14155.0	2.1552536146149373e+18
14156.0	2.154902472517222e+18
14157.0	2.1543767467098112e+18
14158.0	2.1538506383818747e+18
14159.0	2.1533436728573947e+18
14160.0	2.1528254397546496e+18
14161.0	2.152207927476224e+18
14162.0	2.1516308482883576e+18
14163.0	2.1512762517618683e+18
14164.0	2.150710664966963e+18
14165.0	2.1495317400649728e+18
14166.0	2.1497168229564408e+18
14167.0	2.149190806903193e+18
14168.0	2.1486859871846395e+18
14169.0	2.1481830364479483e+18
14170.0	2.147659971506995e+18
14171.0	2.147140493534822e+18
14172.0	2.1466375948075005e+18
14173.0	2.1457990980730877e+18
14174.0	2.1456010061283328e+18
14175.0	2.145093324216729e+18
14176.0	2.144575122990694e+18
14177.0	2.1440624716677115e+18
14178.0	2.143541812579532e+18
14179.0	2.142967357348249e+18
14180.0	2.142522477589299e+18
14181.0	2.142007202309734e+18
14182.0	2.1414940258598912e+18
14183.0	2.1409816714936315e+18
14184.0	2.1404604822454272e+18
14185.0	2.1399527382581243e+18
14186.0	2.1392267713445883e+18
14187.0	2.1388921145393147e+18
14188.0	2.1384087025483773e+18
14189.0	2.1378924760006653e+18
14190.0	2.1373886226497533e+18
14191.0	2.136876397468057e+18
14192.0	2.1363487775129592e+18
14193.0	2.1358026237673467e+18
14194.0	2.1353189349523456e+18
14195.0	2.1348104712224765e+18
14196.0	2.1342983735476221e+18
14197.0	2.1337844874215421e+18
14198.0	2.13326821893079e+18
14199.0	2.1327449610518525e+18
14200.0	2.1321461738242045e+18
14201.0	2.1317413899337725e+18
14202.0	2.1312292738039803e+18
14203.0	2.1306436449468416e+18
14204.0	2.1302059726798845e+18
14205.0	2.1296963815211003e+18
14206.0	2.1290001136353277e+18
14207.0	2.1286803214434301e+18
14208.0	2.1281703712522237e+18
14209.0	2.1274435906437112e+18
14210.0	2.1270250175594486e+18
14211.0	2.12663048119255e+18
14212.0	2.12613132713984e+18
14213.0	2.1256176893165565e+18
14214.0	2.1251136212172795e+18
14215.0	2.1245849006768125e+18
14216.0	2.1240947241123837e+18
14217.0	2.1235886024818683e+18
14218.0	2.1230607107358717e+18
14219.0	2.1225684588298237e+18
14220.0	2.122064172626739e+18
14221.0	2.121551413929574e+18
14222.0	2.1210041948307453e+18
14223.0	2.1205387881480187e+18
14224.0	2.1200329433415677e+18
14225.0	2.1192350239817728e+18
14226.0	2.119018227118899e+18
14227.0	2.1185095519961083e+18
14228.0	2.117356509305241e+18
14229.0	2.1174154996744182e+18
14230.0	2.1169895731363837e+18
14231.0	2.1164546047606776e+18
14232.0	2.1159781653807101e+18
14233.0	2.1154425393381373e+18
14234.0	2.1149451871584256e+18
14235.0	2.1144352621330427e+18
14236.0	2.113929385449881e+18
14237.0	2.1134239617515515e+18
14238.0	2.1129211250999293e+18
14239.0	2.112406235696332e+18
14240.0	2.1099487460065288e+18
14241.0	2.111403122596249e+18
14242.0	2.1109005694795773e+18
14243.0	2.1101620481753088e+18
14244.0	2.1098919685521403e+18
14245.0	2.109355716719411e+18
14246.0	2.108832289390592e+18
14247.0	2.1083690352246784e+18
14248.0	2.1078553353256955e+18
14249.0	2.1073622579806205e+18
14250.0	2.1068627415400443e+18
14251.0	2.1063602806980605e+18
14252.0	2.1058586939490301e+18
14253.0	2.1053547718115325e+18
14254.0	2.1048487105789947e+18
14255.0	2.1043063350624253e+18
14256.0	2.1035815073218557e+18
14257.0	2.1033345634795515e+18
14258.0	2.1028406841835515e+18
14259.0	2.1023059657883645e+18
14260.0	2.1018252851281917e+18
14261.0	2.1012958733664253e+18
14262.0	2.1008361726148605e+18
14263.0	2.099938925425459e+18
14264.0	2.0997663449153533e+18
14265.0	2.099316650095411e+18
14266.0	2.098826193351475e+18
14267.0	2.098325660211609e+18
14268.0	2.0978230785736701e+18
14269.0	2.09730953805824e+18
14270.0	2.0968238594654203e+18
14271.0	2.0963085120438267e+18
14272.0	2.095821494629171e+18
14273.0	2.0953204531396605e+18
14274.0	2.0942355796328445e+18
14275.0	2.0942689511931901e+18
14276.0	2.0937416114175997e+18
14277.0	2.093275458148761e+18
14278.0	2.092819961767526e+18
14279.0	2.092319250789171e+18
14280.0	2.0918072856543227e+18
14281.0	2.0913163507597312e+18
14282.0	2.0907978727096317e+18
14283.0	2.090298572695142e+18
14284.0	2.0897993481781243e+18
14285.0	2.089300190769971e+18
14286.0	2.0887978238803963e+18
14287.0	2.0883000388485117e+18
14288.0	2.0878017538555901e+18
14289.0	2.0860482831253463e+18
14290.0	2.08678958441431e+18
14291.0	2.0863065348112384e+18
14292.0	2.085807172721049e+18
14293.0	2.0853098977165312e+18
14294.0	2.08460692062208e+18
14295.0	2.0842912287817725e+18
14296.0	2.08279730829394e+18
14297.0	2.0833226163486715e+18
14298.0	2.082562467535257e+18
14299.0	2.0822998705504253e+18
14300.0	2.081815076116889e+18
14301.0	2.081316381759897e+18
14302.0	2.0808311662182392e+18
14303.0	2.080283032761139e+18
14304.0	2.0798191360278525e+18
14305.0	2.0793371165458427e+18
14306.0	2.0786869423833083e+18
14307.0	2.078315513276006e+18
14308.0	2.0778562923528192e+18
14309.0	2.0773500918693883e+18
14310.0	2.0761282307162102e+18
14311.0	2.0762124741509115e+18
14312.0	2.0757991506575355e+18
14313.0	2.0752982182199293e+18
14314.0	2.074879718955417e+18
14315.0	2.0743897135185917e+18
14316.0	2.073817999684403e+18
14317.0	2.0733013285404667e+18
14318.0	2.0729077048541176e+18
14319.0	2.0724144899358715e+18
14320.0	2.0719201509441533e+18
14321.0	2.07141922186199e+18
14322.0	2.0708606261329917e+18
14323.0	2.0704175918678016e+18
14324.0	2.0699441874862077e+18
14325.0	2.0694347271897083e+18
14326.0	2.06895871730647e+18
14327.0	2.0684524060934144e+18
14328.0	2.0679591978860544e+18
14329.0	2.06747947017175e+18
14330.0	2.0669849952845821e+18
14331.0	2.0664873629253627e+18
14332.0	2.0659986979880955e+18
14333.0	2.0655079040221181e+18
14334.0	2.0650162728730621e+18
14335.0	2.0644912584196093e+18
14336.0	2.0639742383095805e+18
14337.0	2.0635225151242237e+18
14338.0	2.0630237737910267e+18
14339.0	2.0625167730343933e+18
14340.0	2.0620448970571773e+18
14341.0	2.061547709294182e+18
14342.0	2.061055042990899e+18
14343.0	2.060535442545049e+18
14344.0	2.0600543374213115e+18
14345.0	2.0595867161460733e+18
14346.0	2.0590942729797627e+18
14347.0	2.0585828195500027e+18
14348.0	2.0581122555510781e+18
14349.0	2.05762683029422e+18
14350.0	2.057112442529382e+18
14351.0	2.0566119211335677e+18
14352.0	2.0561424375873533e+18
14353.0	2.0556634883358715e+18
14354.0	2.0551656831713275e+18
14355.0	2.0546727568211965e+18
14356.0	2.0541860816617467e+18
14357.0	2.0537021478993915e+18
14358.0	2.0532128907264e+18
14359.0	2.052696627268812e+18
14360.0	2.0522320946790397e+18
14361.0	2.051745313823129e+18
14362.0	2.0512555566891003e+18
14363.0	2.0507679520718843e+18
14364.0	2.0501897001566205e+18
14365.0	2.0497804686262267e+18
14366.0	2.0492875892523005e+18
14367.0	2.0488129500676093e+18
14368.0	2.0483245233668093e+18
14369.0	2.0478396400140288e+18
14370.0	2.04735181225984e+18
14371.0	2.0468643502489597e+18
14372.0	2.0463664695869437e+18
14373.0	2.0458892601327616e+18
14374.0	2.0453995029987325e+18
14375.0	2.0449117440311296e+18
14376.0	2.0444267432378363e+18
14377.0	2.043940705612595e+18
14378.0	2.0434508947914747e+18
14379.0	2.0429683032063997e+18
14380.0	2.042481381421875e+18
14381.0	2.0419750920191992e+18
14382.0	2.0415059809271805e+18
14383.0	2.0409706484858877e+18
14384.0	2.0404984671633403e+18
14385.0	2.0400514130771965e+18
14386.0	2.0395356328034301e+18
14387.0	2.0390771651772416e+18
14388.0	2.038587010423193e+18
14389.0	2.03810847892439e+18
14390.0	2.037620664591974e+18
14391.0	2.0371372022693888e+18
14392.0	2.0366346860625917e+18
14393.0	2.036169205560115e+18
14394.0	2.0356242580963325e+18
14395.0	2.0351543198875643e+18
14396.0	2.034713756906291e+18
14397.0	2.0342310092931072e+18
14398.0	2.0337311455641597e+18
14399.0	2.0332576472301568e+18
14400.0	2.0327359378882555e+18
14401.0	2.0322730763091965e+18
14402.0	2.0317848844894203e+18
14403.0	2.0216585360768858e+18
14404.0	2.0061935080832975e+18
14405.0	2.0285793104822193e+18
14406.0	2.0298537094873088e+18
14407.0	2.0143864400576586e+18
14408.0	2.028841271610572e+18
14409.0	2.0283801817055227e+18
14410.0	2.0279145166536701e+18
14411.0	2.027440993153843e+18
14412.0	2.0269531922431992e+18
14413.0	2.0264770598862843e+18
14414.0	2.0259923711492093e+18
14415.0	2.0255120730095616e+18
14416.0	2.025022295742873e+18
14417.0	2.0245037170294781e+18
14418.0	2.02399007417303e+18
14419.0	2.0235834632437755e+18
14420.0	2.0230942748573693e+18
14421.0	2.0226209157742587e+18
14422.0	2.0221312827916288e+18
14423.0	2.0216401750917117e+18
14424.0	1.9687739058290378e+18
14425.0	2.0206832245014525e+18
14426.0	2.0202149841469435e+18
14427.0	2.0197357681377275e+18
14428.0	2.0192061265281021e+18
14429.0	2.0187712896106496e+18
14430.0	2.018295160609177e+18
14431.0	2.0176791482138621e+18
14432.0	2.017278067055001e+18
14433.0	2.0055033739476915e+18
14434.0	2.0163501309820925e+18
14435.0	2.015860187620966e+18
14436.0	2.0154148666212347e+18
14437.0	2.014933687677747e+18
14438.0	2.0140866916057088e+18
14439.0	2.0138845546741755e+18
14440.0	2.0134953484287997e+18
14441.0	2.0130093074481147e+18
14442.0	2.0125242076692477e+18
14443.0	2.0119895966482427e+18
14444.0	2.0115738505248765e+18
14445.0	2.0111005937827837e+18
14446.0	1.9986038512418872e+18
14447.0	2.0101215878643707e+18
14448.0	2.0096666619084797e+18
14449.0	2.00918855319552e+18
14450.0	2.0087000342200317e+18
14451.0	2.0082255711961083e+18
14452.0	2.0077428906917888e+18
14453.0	2.0070238309580797e+18
14454.0	2.006794530036121e+18
14455.0	2.0063064321687547e+18
14456.0	2.005787428991795e+18
14457.0	2.005278294173286e+18
14458.0	2.0048592714596347e+18
14459.0	2.0043650046099453e+18
14460.0	2.0039263642976253e+18
14461.0	2.0034086127009787e+18
14462.0	2.0028477889576955e+18
14463.0	2.0024848507994107e+18
14464.0	2.002020039707852e+18
14465.0	2.0015206037979133e+18
14466.0	2.001062154626662e+18
14467.0	2.0004068483137533e+18
14468.0	2.0000960419987453e+18
14469.0	1.999609319863091e+18
14470.0	1.999119467098931e+18
14471.0	1.9986612007993344e+18
14472.0	1.9981952371130363e+18
14473.0	1.9977367157997565e+18
14474.0	1.9972640194166781e+18
14475.0	1.9967752840151035e+18
14476.0	1.995549354387047e+18
14477.0	1.995836687699148e+18
14478.0	1.9953547823022077e+18
14479.0	1.9948511436996605e+18
14480.0	1.9943602826248187e+18
14481.0	1.9939128997052408e+18
14482.0	1.9934328347688955e+18
14483.0	1.9929447486455808e+18
14484.0	1.9924797462937597e+18
14485.0	1.991944229303091e+18
14486.0	1.9910848701005824e+18
14487.0	1.9910636486000637e+18
14488.0	1.9905491282952187e+18
14489.0	1.9901017436979197e+18
14490.0	1.989625539198976e+18
14491.0	1.9891654039175163e+18
14492.0	1.9886942795595773e+18
14493.0	1.9882072067801088e+18
14494.0	1.9877137469145088e+18
14495.0	1.9872724675461112e+18
14496.0	1.986591819248435e+18
14497.0	1.986321335294361e+18
14498.0	1.9858479762112512e+18
14499.0	1.9853798600081403e+18
14500.0	1.9849065495789565e+18
14501.0	1.9840557601783805e+18
14502.0	1.9832914522931203e+18
14503.0	1.9834411503583227e+18
14504.0	1.983004573643571e+18
14505.0	1.982189145581157e+18
14506.0	1.981256488399667e+18
14507.0	1.9812264974483456e+18
14508.0	1.9811235037970432e+18
14509.0	1.9806467003514875e+18
14510.0	1.9801726366253048e+18
14511.0	1.9797043744604152e+18
14512.0	1.979203972182835e+18
14513.0	1.9787600604692477e+18
14514.0	1.9781871369977853e+18
14515.0	1.9778091849089021e+18
14516.0	1.974323423005903e+18
14517.0	1.9768720129785848e+18
14518.0	1.9764002410201088e+18
14519.0	1.975926638667366e+18
14520.0	1.9754568514535421e+18
14521.0	1.9749814388391928e+18
14522.0	1.9745095494402043e+18
14523.0	1.9732109543342072e+18
14524.0	1.97268729883525e+18
14525.0	1.9730922018439168e+18
14526.0	1.972625791883673e+18
14527.0	1.972098898382028e+18
14528.0	1.97148272492544e+18
14529.0	1.9712007049576443e+18
14530.0	1.9707149911326715e+18
14531.0	1.970271570991513e+18
14532.0	1.968550809121587e+18
14533.0	1.969332412638822e+18
14534.0	1.9688643853549565e+18
14535.0	1.9683741735583741e+18
14536.0	1.9679160012111872e+18
14537.0	1.9674287539486717e+18
14538.0	1.9669804164055037e+18
14539.0	1.9665108472954875e+18
14540.0	1.966042861954662e+18
14541.0	1.9655330795356155e+18
14542.0	1.9650970564689917e+18
14543.0	1.964086121830809e+18
14544.0	1.9641590557442045e+18
14545.0	1.96367590883328e+18
14546.0	1.9170476651708198e+18
14547.0	1.9211488321339113e+18
14548.0	1.9622611197624315e+18
14549.0	1.9616289358086141e+18
14550.0	1.9613296889954296e+18
14551.0	1.9608755851231232e+18
14552.0	1.960395723191091e+18
14553.0	1.9599173242322941e+18
14554.0	1.9594664130641915e+18
14555.0	1.9589952366968824e+18
14556.0	1.9585059493249021e+18
14557.0	1.958059527739801e+18
14558.0	1.9575894083371008e+18
14559.0	1.9548450953625533e+18
14560.0	1.9566050706194427e+18
14561.0	1.9561731193831421e+18
14562.0	1.9556731516354555e+18
14563.0	1.9552419889283064e+18
14564.0	1.9547595265277947e+18
14565.0	1.95430771106775e+18
14566.0	1.9538388382121981e+18
14567.0	1.9533660042559488e+18
14568.0	1.9528501736505341e+18
14569.0	1.952419984021913e+18
14570.0	1.951291129043353e+18
14571.0	1.9514715344470016e+18
14572.0	1.950936406687744e+18
14573.0	1.9504626281742333e+18
14574.0	1.95002822075351e+18
14575.0	1.949595264561971e+18
14576.0	1.949126299431731e+18
14577.0	1.9486501704302587e+18
14578.0	1.9481934157578237e+18
14579.0	1.947726844736307e+18
14580.0	1.9472597217443837e+18
14581.0	1.9467576501338107e+18
14582.0	1.9463205969461243e+18
14583.0	1.9458538917068797e+18
14584.0	1.9453661428056061e+18
14585.0	1.9449161795502075e+18
14586.0	1.9444424278802432e+18
14587.0	1.943961649912217e+18
14588.0	1.9435043382362107e+18
14589.0	1.943059993670451e+18
14590.0	1.942610079068979e+18
14591.0	1.942153022406656e+18
14592.0	1.9416966452215805e+18
14593.0	1.9410799348940797e+18
14594.0	1.940804050354176e+18
14595.0	1.9403446163603456e+18
14596.0	1.9397762042822653e+18
14597.0	1.939380367681126e+18
14598.0	1.9389975770431488e+18
14599.0	1.938557566032281e+18
14600.0	1.9381047238066173e+18
14601.0	1.9376538227048443e+18
14602.0	1.937173479266713e+18
14603.0	1.936748465409228e+18
14604.0	1.936235023879372e+18
14605.0	1.9358330333954043e+18
14606.0	1.9353032877670397e+18
14607.0	1.9349476644749312e+18
14608.0	1.9344908309495805e+18
14609.0	1.9339630516109307e+18
14610.0	1.93356486452183e+18
14611.0	1.9331383256154107e+18
14612.0	1.9326947578347515e+18
14613.0	1.9322474286022653e+18
14614.0	1.931791048061747e+18
14615.0	1.9313358922579965e+18
14616.0	1.9308936867872765e+18
14617.0	1.9304408261066747e+18
14618.0	1.9299567665151992e+18
14619.0	1.9294985002156024e+18
14620.0	1.9288805500518397e+18
14621.0	1.9286360892375037e+18
14622.0	1.9281791214944256e+18
14623.0	1.9277321596829693e+18
14624.0	1.9271882758946816e+18
14625.0	1.92682126255063e+18
14626.0	1.9263479051452408e+18
14627.0	1.9258731267096573e+18
14628.0	1.9254695491010555e+18
14629.0	1.925016574335385e+18
14630.0	1.924559027778355e+18
14631.0	1.9240935388872704e+18
14632.0	1.918589746334928e+18
14633.0	1.9226745320243182e+18
14634.0	1.9227252159938555e+18
14635.0	1.9221261351649267e+18
14636.0	1.9212403686244344e+18
14637.0	1.9213802755063805e+18
14638.0	1.9209144024170493e+18
14639.0	1.9204531413843965e+18
14640.0	1.920005503451136e+18
14641.0	1.9011216378691443e+18
14642.0	1.9190957035487227e+18
14643.0	1.918648783680307e+18
14644.0	1.9181745739923453e+18
14645.0	1.917698948307353e+18
14646.0	1.9172508942991363e+18
14647.0	1.9167982198456315e+18
14648.0	1.9163670588162045e+18
