# Flux units: erg / (cm m2 s)
# Wavelength units: Angstrom
wave	flux
14000.0	2.2799553375764477e+18
14001.0	2.279460889532825e+18
14002.0	2.2789729091059712e+18
14003.0	2.278481465861734e+18
14004.0	2.2779901182476285e+18
14005.0	2.2774988712968187e+18
14006.0	2.2770073240338424e+18
14007.0	2.276516421015961e+18
14008.0	2.276019627517542e+18
14009.0	2.275534960590848e+18
14010.0	2.2750444669370365e+18
14011.0	2.274518276400742e+18
14012.0	2.2740635685486587e+18
14013.0	2.2735734238609403e+18
14014.0	2.273083311049932e+18
14015.0	2.2725931814617085e+18
14016.0	2.2721034578821117e+18
14017.0	2.27161372926935e+18
14018.0	2.2711240895758328e+18
14019.0	2.2706154480074747e+18
14020.0	2.2699710267523067e+18
14021.0	2.2694818584985595e+18
14022.0	2.2689928580169723e+18
14023.0	2.2685038139146237e+18
14024.0	2.268014630561382e+18
14025.0	2.26752664174592e+18
14026.0	2.2670380254625787e+18
14027.0	2.266549764856217e+18
14028.0	2.2660615076052987e+18
14029.0	2.2655733174632443e+18
14030.0	2.2650637145604096e+18
14031.0	2.2645968298049533e+18
14032.0	2.2641096630730752e+18
14033.0	2.2636216641912827e+18
14034.0	2.263134489070796e+18
14035.0	2.2626471528890365e+18
14036.0	2.2621598955601915e+18
14037.0	2.261672760705024e+18
14038.0	2.2611857315463165e+18
14039.0	2.2606988449939448e+18
14040.0	2.2602120658157565e+18
14041.0	2.25972540407808e+18
14042.0	2.2592385208811517e+18
14043.0	2.2587509699510264e+18
14044.0	2.2582655799263227e+18
14045.0	2.257780062394777e+18
14046.0	2.2572940197363704e+18
14047.0	2.2568080274096123e+18
14048.0	2.256322308551475e+18
14049.0	2.2558366719016955e+18
14050.0	2.2553511325597693e+18
14051.0	2.2548651586879485e+18
14052.0	2.254380411230617e+18
14053.0	2.2538952527314936e+18
14054.0	2.2534102099951613e+18
14055.0	2.2529252964433917e+18
14056.0	2.2524404902658043e+18
14057.0	2.2519558132727803e+18
14058.0	2.2514712570757117e+18
14059.0	2.2509868250300408e+18
14060.0	2.2505025171357693e+18
14061.0	2.2500179475169277e+18
14062.0	2.249534263735091e+18
14063.0	2.2490492981739515e+18
14064.0	2.2485632118947837e+18
14065.0	2.2480823097753595e+18
14066.0	2.2475992433950717e+18
14067.0	2.2471157961719805e+18
14068.0	2.24663246471168e+18
14069.0	2.2461491785498621e+18
14070.0	2.2456661608235005e+18
14071.0	2.2451830474670077e+18
14072.0	2.2447003837399037e+18
14073.0	2.2442176646479867e+18
14074.0	2.2437350730629117e+18
14075.0	2.2432525854965757e+18
14076.0	2.2427702237593595e+18
14077.0	2.2422833959272445e+18
14078.0	2.241805512028979e+18
14079.0	2.2413235110019072e+18
14080.0	2.240842075367014e+18
14081.0	2.24036033438679e+18
14082.0	2.2398783853690875e+18
14083.0	2.2393971141509117e+18
14084.0	2.2389157842124795e+18
14085.0	2.2384182793601021e+18
14086.0	2.2379529079095293e+18
14087.0	2.2374724403199995e+18
14088.0	2.2369915046461437e+18
14089.0	2.23651080217559e+18
14090.0	2.2360301013827581e+18
14091.0	2.2355496505704443e+18
14092.0	2.235069250089779e+18
14093.0	2.2345889670496256e+18
14094.0	2.2341088098385912e+18
14095.0	2.2336287449022461e+18
14096.0	2.2331478864035837e+18
14097.0	2.2326688700432384e+18
14098.0	2.2321888755711995e+18
14099.0	2.2317098189455355e+18
14100.0	2.2312297204547581e+18
14101.0	2.2307511151362045e+18
14102.0	2.2302719058378747e+18
14103.0	2.229792059005337e+18
14104.0	2.229313913382502e+18
14105.0	2.2288350396284923e+18
14106.0	2.228356378945126e+18
14107.0	2.2278776964513787e+18
14108.0	2.2273993243361275e+18
14109.0	2.226920635131494e+18
14110.0	2.2264422999261176e+18
14111.0	2.2259637499723773e+18
14112.0	2.225486522063257e+18
14113.0	2.2250087858044923e+18
14114.0	2.224531034446233e+18
14115.0	2.224053279732531e+18
14116.0	2.223574483153715e+18
14117.0	2.2230600450572283e+18
14118.0	2.2226211161767933e+18
14119.0	2.2221434705149947e+18
14120.0	2.221666547951206e+18
14121.0	2.221189895500595e+18
14122.0	2.2207129880363003e+18
14123.0	2.220236050373017e+18
14124.0	2.2197594046332928e+18
14125.0	2.219254163806617e+18
14126.0	2.2188074133880827e+18
14127.0	2.218331358206361e+18
14128.0	2.2178552459821048e+18
14129.0	2.2173793921269755e+18
14130.0	2.216903580214886e+18
14131.0	2.216427873999257e+18
14132.0	2.2159521392623613e+18
14133.0	2.215442170616217e+18
14134.0	2.2150013391994875e+18
14135.0	2.2145252622073853e+18
14136.0	2.2140501851373565e+18
14137.0	2.2135760710795261e+18
14138.0	2.2131009336115192e+18
14139.0	2.2126265645400061e+18
14140.0	2.2121513096314877e+18
14141.0	2.2116769355268093e+18
14142.0	2.21120006497239e+18
14143.0	2.2107136918028283e+18
14144.0	2.2102237215981565e+18
14145.0	2.209749721625395e+18
14146.0	2.209275709908582e+18
14147.0	2.2088019716603901e+18
14148.0	2.208328325686886e+18
14149.0	2.207854842452377e+18
14150.0	2.2073814112272381e+18
14151.0	2.2069079447699453e+18
14152.0	2.2064349262643195e+18
14153.0	2.2059618423275515e+18
14154.0	2.2054888926085115e+18
14155.0	2.2050150167871485e+18
14156.0	2.2045431659757565e+18
14157.0	2.204070736350412e+18
14158.0	2.2035979997020157e+18
14159.0	2.203125907298713e+18
14160.0	2.2026531740057595e+18
14161.0	2.2021777362255867e+18
14162.0	2.201567240178892e+18
14163.0	2.201034922603315e+18
14164.0	2.2005615853305853e+18
14165.0	2.2000837517639675e+18
14166.0	2.1996183098490875e+18
14167.0	2.1991467559944187e+18
14168.0	2.1986748397518843e+18
14169.0	2.1982032976412667e+18
14170.0	2.197731544137727e+18
14171.0	2.1972601312116733e+18
14172.0	2.1967889548443643e+18
14173.0	2.196313904617881e+18
14174.0	2.1958462464327675e+18
14175.0	2.1953756925001723e+18
14176.0	2.1949048214781947e+18
14177.0	2.1944340712521723e+18
14178.0	2.1939633159929853e+18
14179.0	2.1934921664692221e+18
14180.0	2.1928797242654712e+18
14181.0	2.1923448330649595e+18
14182.0	2.1918740610285563e+18
14183.0	2.191403520517734e+18
14184.0	2.1909326931165181e+18
14185.0	2.1904626005573627e+18
14186.0	2.1899837704241147e+18
14187.0	2.1895205598789627e+18
14188.0	2.18905216852951e+18
14189.0	2.1885821699227645e+18
14190.0	2.188112459884134e+18
14191.0	2.1876427515232253e+18
14192.0	2.187172731106099e+18
14193.0	2.186702591570739e+18
14194.0	2.1862343830929405e+18
14195.0	2.1857652803895293e+18
14196.0	2.1852961508425723e+18
14197.0	2.184827148802457e+18
14198.0	2.1843579773124605e+18
14199.0	2.1838893225607165e+18
14200.0	2.1832295669301245e+18
14201.0	2.182741381821235e+18
14202.0	2.182272619695308e+18
14203.0	2.181802884490854e+18
14204.0	2.1813347431219195e+18
14205.0	2.180866090047897e+18
14206.0	2.1803900214444027e+18
14207.0	2.179929210041139e+18
14208.0	2.1794609210327032e+18
14209.0	2.1789844111884283e+18
14210.0	2.1785185229996027e+18
14211.0	2.1780565422243832e+18
14212.0	2.1775886139260925e+18
14213.0	2.1771208181678077e+18
14214.0	2.1766531062956024e+18
14215.0	2.1761848558747643e+18
14216.0	2.1757180717826045e+18
14217.0	2.1752506702888955e+18
14218.0	2.1747833828802555e+18
14219.0	2.1743162011680763e+18
14220.0	2.1738491519959037e+18
14221.0	2.1733821548331003e+18
14222.0	2.1728516995284984e+18
14223.0	2.171869962279321e+18
14224.0	2.1714028074106875e+18
14225.0	2.170923551136153e+18
14226.0	2.1704687241658363e+18
14227.0	2.170002020604313e+18
14228.0	2.16950843155415e+18
14229.0	2.1690634259660795e+18
14230.0	2.1686021884215293e+18
14231.0	2.1681357952385021e+18
14232.0	2.1676695161405437e+18
14233.0	2.167203337705881e+18
14234.0	2.166737259934515e+18
14235.0	2.1662711519641592e+18
14236.0	2.165805419803443e+18
14237.0	2.1653395886571517e+18
14238.0	2.1648739621928955e+18
14239.0	2.1644080320610301e+18
14240.0	2.1638536843231227e+18
14241.0	2.1634774066003965e+18
14242.0	2.16301229351895e+18
14243.0	2.1625373389225981e+18
14244.0	2.1620822670049277e+18
14245.0	2.1616173871267832e+18
14246.0	2.1611525793906683e+18
14247.0	2.160687882384179e+18
14248.0	2.160005366782361e+18
14249.0	2.1595388595142653e+18
14250.0	2.159073895750041e+18
14251.0	2.1585632962805755e+18
14252.0	2.1580468264632317e+18
14253.0	2.1575822032764925e+18
14254.0	2.157117640487731e+18
14255.0	2.1566514721193981e+18
14256.0	2.1561757659037693e+18
14257.0	2.1557239890313208e+18
14258.0	2.1552609529692155e+18
14259.0	2.1547970293923837e+18
14260.0	2.1543328071811067e+18
14261.0	2.153870349932953e+18
14262.0	2.153427033810534e+18
14263.0	2.1529437761699837e+18
14264.0	2.1524951953571837e+18
14265.0	2.1520366723661824e+18
14266.0	2.1515734483992568e+18
14267.0	2.1511102898634747e+18
14268.0	2.1506472286355448e+18
14269.0	2.1501840919101437e+18
14270.0	2.1497213796483067e+18
14271.0	2.1492584945811456e+18
14272.0	2.148795844395008e+18
14273.0	2.1483329878491136e+18
14274.0	2.1478402745696253e+18
14275.0	2.1473368758812667e+18
14276.0	2.1467248950509563e+18
14277.0	2.1462622851301373e+18
14278.0	2.1457999335784445e+18
14279.0	2.1453372582264827e+18
14280.0	2.144874364770713e+18
14281.0	2.14441240077271e+18
14282.0	2.1439500894863355e+18
14283.0	2.14348785034199e+18
14284.0	2.1430257168941056e+18
14285.0	2.1425636589436925e+18
14286.0	2.1421016932679677e+18
14287.0	2.1416398500659192e+18
14288.0	2.1411779951198205e+18
14289.0	2.1406591261605883e+18
14290.0	2.1402546744590333e+18
14291.0	2.1397933815496701e+18
14292.0	2.1393321020620795e+18
14293.0	2.138870614537011e+18
14294.0	2.138400751825715e+18
14295.0	2.1379483676180477e+18
14296.0	2.1374411219140605e+18
14297.0	2.137026343836057e+18
14298.0	2.1365557043396605e+18
14299.0	2.1361049089343483e+18
14300.0	2.135644565615411e+18
14301.0	2.1351839941263355e+18
14302.0	2.1347234310258683e+18
14303.0	2.1342631749484544e+18
14304.0	2.1338021622185981e+18
14305.0	2.1333426342723581e+18
14306.0	2.132881064538931e+18
14307.0	2.1323356993224701e+18
14308.0	2.1317410241904637e+18
14309.0	2.131280358748979e+18
14310.0	2.1308129153122301e+18
14311.0	2.130358306445721e+18
14312.0	2.1298984580546555e+18
14313.0	2.1294362457538557e+18
14314.0	2.1289801202270203e+18
14315.0	2.1285204580630525e+18
14316.0	2.1280574521999357e+18
14317.0	2.1276003401728e+18
14318.0	2.1271416057888765e+18
14319.0	2.1266821902499837e+18
14320.0	2.126222773033369e+18
14321.0	2.1257635084894203e+18
14322.0	2.125301695486361e+18
14323.0	2.124843880493875e+18
14324.0	2.1243861460320253e+18
14325.0	2.1239272170323965e+18
14326.0	2.1234683601747965e+18
14327.0	2.123009585525555e+18
14328.0	2.1225505223081984e+18
14329.0	2.1220923382169592e+18
14330.0	2.1216338202591227e+18
14331.0	2.1211753861873661e+18
14332.0	2.1207170628452347e+18
14333.0	2.1202587730575355e+18
14334.0	2.1198005487009787e+18
14335.0	2.119341732108697e+18
14336.0	2.1188830094688253e+18
14337.0	2.118426301772595e+18
14338.0	2.1179682686763005e+18
14339.0	2.1175104167739387e+18
14340.0	2.117052744387789e+18
14341.0	2.1165949730160635e+18
14342.0	2.11613742310359e+18
14343.0	2.115679631599206e+18
14344.0	2.114675726614528e+18
14345.0	2.1140898964307965e+18
14346.0	2.113631960642355e+18
14347.0	2.113173665821491e+18
14348.0	2.11271680041943e+18
14349.0	2.1122593511702525e+18
14350.0	2.1118008466341883e+18
14351.0	2.111343442683494e+18
14352.0	2.1108872970239997e+18
14353.0	2.1104301178879997e+18
14354.0	2.1099728196337656e+18
14355.0	2.1095155918438397e+18
14356.0	2.1090587465744384e+18
14357.0	2.108602210005811e+18
14358.0	2.1081454419116027e+18
14359.0	2.107688715760435e+18
14360.0	2.1072320198082557e+18
14361.0	2.1067755654479867e+18
14362.0	2.1063191597416445e+18
14363.0	2.1058627540353021e+18
14364.0	2.105403013018419e+18
14365.0	2.104949477893734e+18
14366.0	2.1044935838924797e+18
14367.0	2.104038100933017e+18
14368.0	2.1035820777471992e+18
14369.0	2.1031261485137915e+18
14370.0	2.102670259545702e+18
14371.0	2.1022144292978683e+18
14372.0	2.1017586879692792e+18
14373.0	2.1013030053609472e+18
14374.0	2.100847441870848e+18
14375.0	2.1003919303901181e+18
14376.0	2.0999364944068603e+18
14377.0	2.0994810852671483e+18
14378.0	2.0990256543170555e+18
14379.0	2.0985706159538179e+18
14380.0	2.09811546350551e+18
14381.0	2.0976602288488443e+18
14382.0	2.0972053146370045e+18
14383.0	2.0967500665585661e+18
14384.0	2.0962887736492027e+18
14385.0	2.0956133615206397e+18
14386.0	2.0951580647882747e+18
14387.0	2.0947028200652792e+18
14388.0	2.0942475468210173e+18
14389.0	2.0937925772443645e+18
14390.0	2.0933374768054272e+18
14391.0	2.092882661579161e+18
14392.0	2.0924276987133947e+18
14393.0	2.0919730344820733e+18
14394.0	2.0915182997864445e+18
14395.0	2.0910634711384061e+18
14396.0	2.0906089411248125e+18
14397.0	2.0901543674904573e+18
14398.0	2.0896997670125568e+18
14399.0	2.089245319207321e+18
14400.0	2.0887897624281083e+18
14401.0	2.088335999133286e+18
14402.0	2.087881730844262e+18
14403.0	2.0873128573927414e+18
14404.0	2.0866103165059067e+18
14405.0	2.0864250775863286e+18
14406.0	2.086064837204377e+18
14407.0	2.0854539536039933e+18
14408.0	2.0851556161159168e+18
14409.0	2.084702294061875e+18
14410.0	2.0842493964713981e+18
14411.0	2.0837958697353216e+18
14412.0	2.0833419889999867e+18
14413.0	2.0828885142732792e+18
14414.0	2.0824347073576955e+18
14415.0	2.0819812275978235e+18
14416.0	2.0815278065582075e+18
14417.0	2.0810740835287035e+18
14418.0	2.0806199259693056e+18
14419.0	2.0801675048517624e+18
14420.0	2.0797139747602427e+18
14421.0	2.0792609597292536e+18
14422.0	2.0788075806326781e+18
14423.0	2.078352386241331e+18
14424.0	2.0772482105475064e+18
14425.0	2.0774459703033853e+18
14426.0	2.0769953745469437e+18
14427.0	2.0765427336478712e+18
14428.0	2.0760898813558781e+18
14429.0	2.0756371616038912e+18
14430.0	2.075184388164812e+18
14431.0	2.0747259524153336e+18
14432.0	2.07427818529751e+18
14433.0	2.073707858939084e+18
14434.0	2.073204980344422e+18
14435.0	2.0726961072504827e+18
14436.0	2.072244358899302e+18
14437.0	2.0717913925222397e+18
14438.0	2.0713350153371643e+18
14439.0	2.0708844648792061e+18
14440.0	2.0704328138358781e+18
14441.0	2.0699797316960253e+18
14442.0	2.0695268039065592e+18
14443.0	2.0690716783017981e+18
14444.0	2.0686218878517245e+18
14445.0	2.068169491900006e+18
14446.0	2.0675603380305917e+18
14447.0	2.0672631850139645e+18
14448.0	2.066812483561062e+18
14449.0	2.0663602587369467e+18
14450.0	2.0659080053915643e+18
14451.0	2.06545576043479e+18
14452.0	2.0650032805969917e+18
14453.0	2.0645493142978555e+18
14454.0	2.0640992470237181e+18
14455.0	2.0636468795932667e+18
14456.0	2.0631946681909243e+18
14457.0	2.0627424869875707e+18
14458.0	2.06229103223767e+18
14459.0	2.061838869489254e+18
14460.0	2.0613869818871803e+18
14461.0	2.0609336698994683e+18
14462.0	2.0603080844247037e+18
14463.0	2.05976435163136e+18
14464.0	2.059313274368819e+18
14465.0	2.0588605143515133e+18
14466.0	2.058410227295846e+18
14467.0	2.057956708948377e+18
14468.0	2.0575067121385467e+18
14469.0	2.0570538917232637e+18
14470.0	2.0566019856662525e+18
14471.0	2.0561515878809597e+18
14472.0	2.055700725366784e+18
14473.0	2.055249297460428e+18
14474.0	2.0547978058006528e+18
14475.0	2.0543461061033984e+18
14476.0	2.0538873935298555e+18
14477.0	2.0534434902048763e+18
14478.0	2.0529921428291576e+18
14479.0	2.052540797131161e+18
14480.0	2.05208898502656e+18
14481.0	2.0516381728440315e+18
14482.0	2.0511866660847608e+18
14483.0	2.0507350083305464e+18
14484.0	2.0502837314191355e+18
14485.0	2.049830723099033e+18
14486.0	2.04936242570199e+18
14487.0	2.048931182464204e+18
14488.0	2.0484801672773627e+18
14489.0	2.0480285967646715e+18
14490.0	2.047415371064934e+18
14491.0	2.0469039042134008e+18
14492.0	2.0464524930842621e+18
14493.0	2.0460009745809403e+18
14494.0	2.0455495097647101e+18
14495.0	2.0450979929391101e+18
14496.0	2.0446375942553592e+18
14497.0	2.0441950767284224e+18
14498.0	2.0437437327081467e+18
14499.0	2.043292286346854e+18
14500.0	2.0428407963647992e+18
14501.0	2.0423858334990333e+18
14502.0	2.0419224954470397e+18
14503.0	2.041485427159859e+18
14504.0	2.0410347861049344e+18
14505.0	2.0405800094662653e+18
14506.0	2.040124989557965e+18
14507.0	2.0396648777646077e+18
14508.0	2.0392298881744893e+18
14509.0	2.038778649850675e+18
14510.0	2.038327324285337e+18
14511.0	2.037875943355187e+18
14512.0	2.0374235222376445e+18
14513.0	2.0369731932389373e+18
14514.0	2.036519471887155e+18
14515.0	2.036070282061414e+18
14516.0	2.0354766907375616e+18
14517.0	2.0351672551211003e+18
14518.0	2.0347164261613563e+18
14519.0	2.0342651492499456e+18
14520.0	2.03381380522967e+18
14521.0	2.0333624544985083e+18
14522.0	2.0329110567911424e+18
14523.0	2.0324512553762816e+18
14524.0	2.031999587555737e+18
14525.0	2.0315563519639547e+18
14526.0	2.0311052663128061e+18
14527.0	2.030652152296243e+18
14528.0	2.0301942299295744e+18
14529.0	2.0297498383876093e+18
14530.0	2.0292980531265536e+18
14531.0	2.0288473550290944e+18
14532.0	2.0283849145581565e+18
14533.0	2.0279442056151035e+18
14534.0	2.0274927911305208e+18
14535.0	2.0270410981441533e+18
14536.0	2.0265894336790528e+18
14537.0	2.0261369102204925e+18
14538.0	2.025686032606822e+18
14539.0	2.0252343245209592e+18
14540.0	2.024782544293068e+18
14541.0	2.024330428520857e+18
14542.0	2.023878854652723e+18
14543.0	2.0234219473076216e+18
14544.0	2.022974898254643e+18
14545.0	2.0225225358573565e+18
14546.0	2.021352623675801e+18
14547.0	2.0209667946840054e+18
14548.0	2.0211661902184443e+18
14549.0	2.0207077024595965e+18
14550.0	2.0202634250027003e+18
14551.0	2.019811560888729e+18
14552.0	2.0193594803486715e+18
14553.0	2.0189071598944253e+18
14554.0	2.0184406610149373e+18
14555.0	2.0177905455726587e+18
14556.0	2.0173376026836987e+18
14557.0	2.01688493326336e+18
14558.0	2.0164318595121144e+18
14559.0	2.0158740405682168e+18
14560.0	2.015525735497728e+18
14561.0	2.015072743954841e+18
14562.0	2.0146200158142461e+18
14563.0	2.0141669621956603e+18
14564.0	2.0137134857912315e+18
14565.0	2.0132608247595003e+18
14566.0	2.0128076486672381e+18
14567.0	2.012354331646361e+18
14568.0	2.011900627071795e+18
14569.0	2.0114474962780155e+18
14570.0	2.0109647805415421e+18
14571.0	2.0105403136212987e+18
14572.0	2.0100844229754877e+18
14573.0	2.0096311613194235e+18
14574.0	2.0091784902213627e+18
14575.0	2.0087254483468288e+18
14576.0	2.008271706862387e+18
14577.0	2.007817925112627e+18
14578.0	2.0073637675532283e+18
14579.0	2.0069097844768763e+18
14580.0	2.0064556403392507e+18
14581.0	2.006001122069708e+18
14582.0	2.005547165836902e+18
14583.0	2.0050928824483837e+18
14584.0	2.0046377232891901e+18
14585.0	2.0041840556244987e+18
14586.0	2.0037293544833021e+18
14587.0	2.0032748831899645e+18
14588.0	2.0028212809564155e+18
14589.0	2.0023745171161083e+18
14590.0	2.001928920970035e+18
14591.0	2.0014831469854715e+18
14592.0	2.0010371733520381e+18
14593.0	2.000583436900761e+18
14594.0	2.000145209307955e+18
14595.0	1.9996986618937344e+18
14596.0	1.9992493563052027e+18
14597.0	1.9988028676112381e+18
14598.0	1.9983594525032443e+18
14599.0	1.9979132154675197e+18
14600.0	1.9974663442530301e+18
14601.0	1.9970194529058808e+18
14602.0	1.9965721404506107e+18
14603.0	1.9961248749715453e+18
14604.0	1.995674524162457e+18
14605.0	1.9952290790113277e+18
14606.0	1.9947778171994107e+18
14607.0	1.994333266273894e+18
14608.0	1.993885678672281e+18
14609.0	1.993436985452134e+18
14610.0	1.9929888257474555e+18
14611.0	1.9925405670572027e+18
14612.0	1.992092346954547e+18
14613.0	1.9916437644640253e+18
14614.0	1.9911946753015803e+18
14615.0	1.9907458545745917e+18
14616.0	1.9902967335354365e+18
14617.0	1.98984743298007e+18
14618.0	1.9893979680079864e+18
14619.0	1.9889458690129915e+18
14620.0	1.9884904045084664e+18
14621.0	1.988048626856755e+18
14622.0	1.987598569648947e+18
14623.0	1.987148334602649e+18
14624.0	1.9866940243705848e+18
14625.0	1.9862474652123133e+18
14626.0	1.9857966362525696e+18
14627.0	1.9853426682757115e+18
14628.0	1.984888839549747e+18
14629.0	1.9844377656426493e+18
14630.0	1.9839864769871864e+18
14631.0	1.9835350910238715e+18
14632.0	1.9830333230809083e+18
14633.0	1.982491172379033e+18
14634.0	1.981979807868518e+18
14635.0	1.9815260529623035e+18
14636.0	1.9810710783524856e+18
14637.0	1.9806215747928061e+18
14638.0	1.980168073222553e+18
14639.0	1.9797139156631547e+18
14640.0	1.9792600768708605e+18
14641.0	1.9786081058684925e+18
14642.0	1.9783517063872512e+18
14643.0	1.9778981125423101e+18
14644.0	1.9774435691069437e+18
14645.0	1.976987302651494e+18
14646.0	1.976533457148313e+18
14647.0	1.9760781419610107e+18
14648.0	1.975623100242329e+18
