# Flux units: erg / (cm m2 s)
# Wavelength units: Angstrom
wave	flux
14000.0	1.3997220336500736e+18
14001.0	1.399456229700403e+18
14002.0	1.399236175541043e+18
14003.0	1.3989950357766141e+18
14004.0	1.398751544685363e+18
14005.0	1.3985080703713277e+18
14006.0	1.3982635734859773e+18
14007.0	1.3980207559999485e+18
14008.0	1.39776692846592e+18
14009.0	1.3975340716130301e+18
14010.0	1.3972915292733437e+18
14011.0	1.3969595668889597e+18
14012.0	1.3968052349566976e+18
14013.0	1.3965622505373693e+18
14014.0	1.3963192443076608e+18
14015.0	1.3960760392679421e+18
14016.0	1.3958334021369856e+18
14017.0	1.3955905896841213e+18
14018.0	1.395347787297587e+18
14019.0	1.3951050704748541e+18
14020.0	1.3948623075147773e+18
14021.0	1.3946195906920445e+18
14022.0	1.394377013959065e+18
14023.0	1.3941342182834173e+18
14024.0	1.3938909897555965e+18
14025.0	1.3936497157734397e+18
14026.0	1.3934071549788157e+18
14027.0	1.3931650438135808e+18
14028.0	1.3929227850088445e+18
14029.0	1.3926805454979072e+18
14030.0	1.392399418078003e+18
14031.0	1.392193553249075e+18
14032.0	1.3919541641871357e+18
14033.0	1.391711124402995e+18
14034.0	1.391470203581235e+18
14035.0	1.3912283507851261e+18
14036.0	1.3909864904392701e+18
14037.0	1.3907446879748093e+18
14038.0	1.3905029350031357e+18
14039.0	1.390261233201971e+18
14040.0	1.3900195817324541e+18
14041.0	1.389777982272307e+18
14042.0	1.38953457926144e+18
14043.0	1.3892894624579581e+18
14044.0	1.3890516336771072e+18
14045.0	1.3888119610802173e+18
14046.0	1.388570596501094e+18
14047.0	1.3883291664908285e+18
14048.0	1.3880879990439936e+18
14049.0	1.3878468685070333e+18
14050.0	1.387605738808934e+18
14051.0	1.3873636360323072e+18
14052.0	1.3871235523936256e+18
14053.0	1.386882629055283e+18
14054.0	1.3866417006837757e+18
14055.0	1.3864008159330301e+18
14056.0	1.3861599857082365e+18
14057.0	1.3859192066539517e+18
14058.0	1.3856784796090365e+18
14059.0	1.3854378037346301e+18
14060.0	1.3851971756752893e+18
14061.0	1.384955644162867e+18
14062.0	1.384716073906995e+18
14063.0	1.384473747993395e+18
14064.0	1.384225689305088e+18
14065.0	1.3839936293699581e+18
14066.0	1.3837544844165117e+18
14067.0	1.3835142179061757e+18
14068.0	1.3832739950166013e+18
14069.0	1.3830336907575293e+18
14070.0	1.3827936893272061e+18
14071.0	1.3825532357509117e+18
14072.0	1.3823136218742781e+18
14073.0	1.3820736548372477e+18
14074.0	1.381833744003891e+18
14075.0	1.381593762706227e+18
14076.0	1.381353981057433e+18
14077.0	1.3811054626734077e+18
14078.0	1.380873793647411e+18
14079.0	1.3806341218893821e+18
14080.0	1.3803952411770875e+18
14081.0	1.3801556776321021e+18
14082.0	1.3799157944811517e+18
14083.0	1.379676526215168e+18
14084.0	1.3794372898258944e+18
14085.0	1.3791671011508221e+18
14086.0	1.3789578892673021e+18
14087.0	1.3787193742983165e+18
14088.0	1.378480070800179e+18
14089.0	1.3782410072162301e+18
14090.0	1.3780017766989821e+18
14091.0	1.3777628456550397e+18
14092.0	1.3775238542131197e+18
14093.0	1.3772848988422141e+18
14094.0	1.3770459929640957e+18
14095.0	1.3768071357399037e+18
14096.0	1.376566717395763e+18
14097.0	1.3763294682677245e+18
14098.0	1.3760901077270525e+18
14099.0	1.3758522168705021e+18
14100.0	1.375611917644595e+18
14101.0	1.3753750711697405e+18
14102.0	1.3751365469732861e+18
14103.0	1.374895811539763e+18
14104.0	1.3746597116510205e+18
14105.0	1.3744213191557117e+18
14106.0	1.374183042423193e+18
14107.0	1.3739446826434557e+18
14108.0	1.373706604720947e+18
14109.0	1.3734678766813181e+18
14110.0	1.373229816374886e+18
14111.0	1.372991203259187e+18
14112.0	1.3727540262731773e+18
14113.0	1.3725162981556221e+18
14114.0	1.3722784374980605e+18
14115.0	1.3720402807226365e+18
14116.0	1.3718010124566525e+18
14117.0	1.3714922017914877e+18
14118.0	1.3713271852892157e+18
14119.0	1.3710885679792123e+18
14120.0	1.3708511586287613e+18
14121.0	1.3706141494149117e+18
14122.0	1.3703749860065277e+18
14123.0	1.3701386118103037e+18
14124.0	1.369901016232755e+18
14125.0	1.3696073168060413e+18
14126.0	1.3694273660649467e+18
14127.0	1.3691901186146301e+18
14128.0	1.3689527486906365e+18
14129.0	1.3687157495431165e+18
14130.0	1.3684786530877437e+18
14131.0	1.3682415994142717e+18
14132.0	1.3680045558071293e+18
14133.0	1.367700449473331e+18
14134.0	1.3675306950852605e+18
14135.0	1.3672921599836157e+18
14136.0	1.3670556096266237e+18
14137.0	1.3668201246228477e+18
14138.0	1.3665828830445565e+18
14139.0	1.3663468477480957e+18
14140.0	1.366109566743347e+18
14141.0	1.3658732663668733e+18
14142.0	1.365632284308275e+18
14143.0	1.3654002185011197e+18
14144.0	1.3651643534934013e+18
14145.0	1.3649279650365437e+18
14146.0	1.3646914834661373e+18
14147.0	1.3644552770420733e+18
14148.0	1.3642191024947197e+18
14149.0	1.3639830277718013e+18
14150.0	1.3637468926509053e+18
14151.0	1.363510520132403e+18
14152.0	1.3632748178636797e+18
14153.0	1.3630388303822845e+18
14154.0	1.362802911687475e+18
14155.0	1.3625556348174336e+18
14156.0	1.3623280091004925e+18
14157.0	1.3620954466877437e+18
14158.0	1.3618592285196285e+18
14159.0	1.361624043828019e+18
14160.0	1.3613867854725117e+18
14161.0	1.3611464208154621e+18
14162.0	1.3609044094746621e+18
14163.0	1.3606816239845373e+18
14164.0	1.360444341302067e+18
14165.0	1.3602028408274941e+18
14166.0	1.3599753182904317e+18
14167.0	1.3597403810627581e+18
14168.0	1.3595048750874621e+18
14169.0	1.3592699537981437e+18
14170.0	1.359034341287526e+18
14171.0	1.358799308429721e+18
14172.0	1.3585646840971261e+18
14173.0	1.3583247137046525e+18
14174.0	1.3580939070275581e+18
14175.0	1.3578598598311933e+18
14176.0	1.3576249855180797e+18
14177.0	1.3573901984464893e+18
14178.0	1.357155289740083e+18
14179.0	1.356919695684403e+18
14180.0	1.3566860930842621e+18
14181.0	1.3564514838511613e+18
14182.0	1.3562168259641341e+18
14183.0	1.3559824214130685e+18
14184.0	1.3557473390624765e+18
14185.0	1.3555135443632125e+18
14186.0	1.3552649622257664e+18
14187.0	1.355041951920947e+18
14188.0	1.3548104565391357e+18
14189.0	1.3545762088550397e+18
14190.0	1.3543420886777853e+18
14191.0	1.3541079458512893e+18
14192.0	1.35387301281792e+18
14193.0	1.3536380143534077e+18
14194.0	1.3534058101342205e+18
14195.0	1.353172089254707e+18
14196.0	1.352938181309235e+18
14197.0	1.3527043438280701e+18
14198.0	1.3524699602485245e+18
14199.0	1.3522364625059837e+18
14200.0	1.351995696034611e+18
14201.0	1.351768540918579e+18
14202.0	1.3515358921031675e+18
14203.0	1.351301228344115e+18
14204.0	1.3510685359079421e+18
14205.0	1.3508351035965437e+18
14206.0	1.3505872168747005e+18
14207.0	1.3503686575652861e+18
14208.0	1.350135392187187e+18
14209.0	1.3498869853716475e+18
14210.0	1.3496566241296381e+18
14211.0	1.349435677422387e+18
14212.0	1.3492025512951805e+18
14213.0	1.3489695350587392e+18
14214.0	1.3487364441636864e+18
14215.0	1.3485018391248893e+18
14216.0	1.348270722069299e+18
14217.0	1.3480358947323901e+18
14218.0	1.3477934824161277e+18
14219.0	1.347560668345139e+18
14220.0	1.3473279062835197e+18
14221.0	1.3470951182172157e+18
14222.0	1.3468624618520576e+18
14223.0	1.346629834008166e+18
14224.0	1.3463972791451645e+18
14225.0	1.346138458711654e+18
14226.0	1.3459316669415421e+18
14227.0	1.345699810849587e+18
14228.0	1.3453958420889597e+18
14229.0	1.3452112507699197e+18
14230.0	1.3450027703730173e+18
14231.0	1.3447705225330683e+18
14232.0	1.3445383141195773e+18
14233.0	1.3443061535211517e+18
14234.0	1.344074034865766e+18
14235.0	1.3438401789296637e+18
14236.0	1.3435986289623037e+18
14237.0	1.3433664390037501e+18
14238.0	1.3431345988501501e+18
14239.0	1.3429020448260093e+18
14240.0	1.3424349226729472e+18
14241.0	1.342438840152883e+18
14242.0	1.3422071233118205e+18
14243.0	1.3419564591218685e+18
14244.0	1.3417438339137536e+18
14245.0	1.341510430962483e+18
14246.0	1.3412780950421501e+18
14247.0	1.3410490499727355e+18
14248.0	1.340814990193459e+18
14249.0	1.3405858377498621e+18
14250.0	1.3403544270929917e+18
14251.0	1.3401233586913277e+18
14252.0	1.3398920352759805e+18
14253.0	1.339660646429491e+18
14254.0	1.339429271843635e+18
14255.0	1.3391908919312381e+18
14256.0	1.3389332215758845e+18
14257.0	1.338722401596211e+18
14258.0	1.3384939244355581e+18
14259.0	1.3382628971380733e+18
14260.0	1.3380311534534653e+18
14261.0	1.3378014557503485e+18
14262.0	1.3375867912716285e+18
14263.0	1.337322502304563e+18
14264.0	1.3371148154699776e+18
14265.0	1.3368943863398397e+18
14266.0	1.336663669420851e+18
14267.0	1.3364330128998397e+18
14268.0	1.3362023907721213e+18
14269.0	1.3359714742042621e+18
14270.0	1.3357412740235261e+18
14271.0	1.3355106904834045e+18
14272.0	1.3352803611181053e+18
14273.0	1.3350497884831741e+18
14274.0	1.3347650304737275e+18
14275.0	1.334584450587033e+18
14276.0	1.3343584816201725e+18
14277.0	1.334128275567411e+18
14278.0	1.3338943357452285e+18
14279.0	1.3336573097541627e+18
14280.0	1.3334265752190973e+18
14281.0	1.3331972709416957e+18
14282.0	1.3329672829927421e+18
14283.0	1.332737301754675e+18
14284.0	1.3325073666539517e+18
14285.0	1.3322774667853821e+18
14286.0	1.3320475048411133e+18
14287.0	1.331817826431795e+18
14288.0	1.3315880473591808e+18
14289.0	1.331207748137779e+18
14290.0	1.3311285168963581e+18
14291.0	1.3308989483778045e+18
14292.0	1.3306694897500157e+18
14293.0	1.3304396637011965e+18
14294.0	1.3301934345682941e+18
14295.0	1.3299808697581565e+18
14296.0	1.3296328104738813e+18
14297.0	1.3295197890805757e+18
14298.0	1.3292697817186301e+18
14299.0	1.3290632156020733e+18
14300.0	1.3288345446645757e+18
14301.0	1.3286053309841405e+18
14302.0	1.32837585977344e+18
14303.0	1.328141460255539e+18
14304.0	1.3279053872103421e+18
14305.0	1.327678027412275e+18
14306.0	1.327447370052403e+18
14307.0	1.327219346715443e+18
14308.0	1.3269914357858301e+18
14309.0	1.3267624494366717e+18
14310.0	1.3265251290054653e+18
14311.0	1.3262938148175867e+18
14312.0	1.3260692668809213e+18
14313.0	1.325824715469619e+18
14314.0	1.3256187021623293e+18
14315.0	1.325390332375859e+18
14316.0	1.3251553892761595e+18
14317.0	1.3249322875355133e+18
14318.0	1.3247048505622525e+18
14319.0	1.3244764824535037e+18
14320.0	1.3242480556244992e+18
14321.0	1.3240197873401853e+18
14322.0	1.3237870831599613e+18
14323.0	1.3235605337014272e+18
14324.0	1.3233350621790203e+18
14325.0	1.3231069130129405e+18
14326.0	1.322878799917875e+18
14327.0	1.322650720377241e+18
14328.0	1.3224218279804925e+18
14329.0	1.3221947240349693e+18
14330.0	1.3219667837452285e+18
14331.0	1.3217347330375677e+18
14332.0	1.3215004476047357e+18
14333.0	1.3212726012674045e+18
14334.0	1.3210447985508352e+18
14335.0	1.320814834089984e+18
14336.0	1.3205867730042877e+18
14337.0	1.320361697424179e+18
14338.0	1.3201338577977341e+18
14339.0	1.3199062782181373e+18
14340.0	1.3196789410693117e+18
14341.0	1.3194513170300925e+18
14342.0	1.3192240067248125e+18
14343.0	1.3189962870554621e+18
14344.0	1.3187690170155008e+18
14345.0	1.3185418837098493e+18
14346.0	1.3183142881918973e+18
14347.0	1.3180851936296957e+18
14348.0	1.317860096239206e+18
14349.0	1.317632976355328e+18
14350.0	1.317403844883251e+18
14351.0	1.3171766880894973e+18
14352.0	1.3169517257555965e+18
14353.0	1.3167247174402045e+18
14354.0	1.3164973559644157e+18
14355.0	1.3162701622607867e+18
14356.0	1.316043426575155e+18
14357.0	1.3158171430354944e+18
14358.0	1.3155903561793533e+18
14359.0	1.3153635324133373e+18
14360.0	1.315136692708966e+18
14361.0	1.31491016254423e+18
14362.0	1.3146836223131645e+18
14363.0	1.3144535882268672e+18
14364.0	1.3142147108700157e+18
14365.0	1.3139918935031808e+18
14366.0	1.3137658247118848e+18
14367.0	1.3135406669234173e+18
14368.0	1.3133141745074173e+18
14369.0	1.3130878741905408e+18
14370.0	1.312861537802649e+18
14371.0	1.3126352542629885e+18
14372.0	1.312408961495859e+18
14373.0	1.3121826720841725e+18
14374.0	1.311956308013875e+18
14375.0	1.3117298877399037e+18
14376.0	1.3115043155542013e+18
14377.0	1.3112781913980925e+18
14378.0	1.3110519128915965e+18
14379.0	1.3108262861799421e+18
14380.0	1.3106002920472573e+18
14381.0	1.3103741544693757e+18
14382.0	1.310148403606323e+18
14383.0	1.3099222500900861e+18
14384.0	1.3096969698279421e+18
14385.0	1.309471350666035e+18
14386.0	1.3092456677507072e+18
14387.0	1.309019989029683e+18
14388.0	1.3087941584748544e+18
14389.0	1.3085687691608061e+18
14390.0	1.308343070307123e+18
14391.0	1.308117781656371e+18
14392.0	1.3078921608167421e+18
14393.0	1.3076670189666301e+18
14394.0	1.3074416564961277e+18
14395.0	1.3072162361442301e+18
14396.0	1.3069910498344957e+18
14397.0	1.3067658173874173e+18
14398.0	1.3065405354475517e+18
14399.0	1.3063154464456701e+18
14400.0	1.3060816316137467e+18
14401.0	1.3058540226740221e+18
14402.0	1.3056297733718016e+18
14403.0	1.3052137386803195e+18
14404.0	1.3045174884106235e+18
14405.0	1.3046753947287547e+18
14406.0	1.3047299391356925e+18
14407.0	1.3042654015127552e+18
14408.0	1.3042758302302203e+18
14409.0	1.3040525632339965e+18
14410.0	1.3038301611032576e+18
14411.0	1.3036057868107773e+18
14412.0	1.3033807246524413e+18
14413.0	1.3031566548664317e+18
14414.0	1.3029317202149373e+18
14415.0	1.3027072880410621e+18
14416.0	1.3024829296869373e+18
14417.0	1.3022581384806395e+18
14418.0	1.302032245011251e+18
14419.0	1.301809263227699e+18
14420.0	1.301584356258611e+18
14421.0	1.301360674026291e+18
14422.0	1.301136299733811e+18
14423.0	1.3009111780163581e+18
14424.0	1.2996842954424312e+18
14425.0	1.3004621500907517e+18
14426.0	1.3002395726381053e+18
14427.0	1.3000154776862717e+18
14428.0	1.2997891446538237e+18
14429.0	1.299566422078259e+18
14430.0	1.2993433161433085e+18
14431.0	1.2991078831489021e+18
14432.0	1.2988946547998717e+18
14433.0	1.2984883500548093e+18
14434.0	1.2984456193245181e+18
14435.0	1.298221239998873e+18
14436.0	1.2980001037090816e+18
14437.0	1.2977763635953664e+18
14438.0	1.297548106216243e+18
14439.0	1.2973276015886333e+18
14440.0	1.297105238045491e+18
14441.0	1.2968730598309885e+18
14442.0	1.2966455221944317e+18
14443.0	1.2964164796415995e+18
14444.0	1.2962001131143165e+18
14445.0	1.2959776346472445e+18
14446.0	1.295467576242995e+18
14447.0	1.295526422328115e+18
14448.0	1.2953074662375421e+18
14449.0	1.2950840566349821e+18
14450.0	1.2948607099469821e+18
14451.0	1.2946374387564541e+18
14452.0	1.2944140157321213e+18
14453.0	1.294188493878067e+18
14454.0	1.2939678726488061e+18
14455.0	1.293743989928755e+18
14456.0	1.2935211222302717e+18
14457.0	1.293297859428352e+18
14458.0	1.2930754891743227e+18
14459.0	1.2928523740119037e+18
14460.0	1.2926295860051965e+18
14461.0	1.2924043636244477e+18
14462.0	1.292174136600166e+18
14463.0	1.2919606272327675e+18
14464.0	1.2917381839978493e+18
14465.0	1.2915118140555264e+18
14466.0	1.2912929200406528e+18
14467.0	1.2910674342576125e+18
14468.0	1.290847156122419e+18
14469.0	1.2906210890088445e+18
14470.0	1.2903982221492221e+18
14471.0	1.290177871033139e+18
14472.0	1.2899569721409536e+18
14473.0	1.2897345641381883e+18
14474.0	1.289512090704281e+18
14475.0	1.2892889797361661e+18
14476.0	1.2890557755949056e+18
14477.0	1.2888447190564861e+18
14478.0	1.288622409200435e+18
14479.0	1.288399771349811e+18
14480.0	1.2881763852353536e+18
14481.0	1.2879555853287421e+18
14482.0	1.2877327587344381e+18
14483.0	1.287509937173299e+18
14484.0	1.287287148327731e+18
14485.0	1.2870625701920765e+18
14486.0	1.2868041918382077e+18
14487.0	1.2866227697352701e+18
14488.0	1.2864007501250557e+18
14489.0	1.2861777188487165e+18
14490.0	1.2859543704829952e+18
14491.0	1.2857248615235581e+18
14492.0	1.2855031824908288e+18
14493.0	1.285281230828339e+18
14494.0	1.2850593538244605e+18
14495.0	1.2848375229579261e+18
14496.0	1.2845978092568573e+18
14497.0	1.2843937756610557e+18
14498.0	1.2841722644004861e+18
14499.0	1.283950600467251e+18
14500.0	1.2837288987852797e+18
14501.0	1.2835026756435965e+18
14502.0	1.2832497767284736e+18
14503.0	1.2830621185343485e+18
14504.0	1.2828416592052221e+18
14505.0	1.282616232981299e+18
14506.0	1.282390751392563e+18
14507.0	1.282144638022451e+18
14508.0	1.2819567155871741e+18
14509.0	1.2817353167339517e+18
14510.0	1.281513927947059e+18
14511.0	1.281292545032192e+18
14512.0	1.281069205893939e+18
14513.0	1.2808498370838528e+18
14514.0	1.2806239293538301e+18
14515.0	1.2804072532869117e+18
14516.0	1.279792657727488e+18
14517.0	1.2799633583505405e+18
14518.0	1.2797437194272763e+18
14519.0	1.2795225906872317e+18
14520.0	1.2793014686580736e+18
14521.0	1.2790800890986493e+18
14522.0	1.2788592749314045e+18
14523.0	1.2786275765452797e+18
14524.0	1.2784066482929661e+18
14525.0	1.2781954801860605e+18
14526.0	1.2779752590934016e+18
14527.0	1.2777483355029501e+18
14528.0	1.2775157059813373e+18
14529.0	1.2773108276527101e+18
14530.0	1.2770897274339328e+18
14531.0	1.2768705683390464e+18
14532.0	1.2766343157776381e+18
14533.0	1.2764286396923901e+18
14534.0	1.2762084345380864e+18
14535.0	1.275987596882739e+18
14536.0	1.2757669160943613e+18
14537.0	1.275544689285529e+18
14538.0	1.2753256400814077e+18
14539.0	1.2751050071080957e+18
14540.0	1.2748844009783293e+18
14541.0	1.2746631808024573e+18
14542.0	1.2744432407281661e+18
14543.0	1.27421642702848e+18
14544.0	1.2740021501034493e+18
14545.0	1.2737815959830528e+18
14546.0	1.2719351912202235e+18
14547.0	1.2718229365456886e+18
14548.0	1.2731095166484477e+18
14549.0	1.2728746633068541e+18
14550.0	1.2726700248924157e+18
14551.0	1.2724497375297536e+18
14552.0	1.2722289250402301e+18
14553.0	1.2720076478218237e+18
14554.0	1.2717887630344192e+18
14555.0	1.2715683917856765e+18
14556.0	1.2713478905135101e+18
14557.0	1.271127845581619e+18
14558.0	1.2709075204702208e+18
14559.0	1.2703977766387707e+18
14560.0	1.2704666412384253e+18
14561.0	1.2702458631421952e+18
14562.0	1.2700237277691901e+18
14563.0	1.2698061893533693e+18
14564.0	1.26958544397271e+18
14565.0	1.2693662093803517e+18
14566.0	1.2691460948230141e+18
14567.0	1.2689259626495995e+18
14568.0	1.268705161065267e+18
14569.0	1.268485807354675e+18
14570.0	1.2681862434521085e+18
14571.0	1.2680453626527741e+18
14572.0	1.2678202526793728e+18
14573.0	1.2676007999832061e+18
14574.0	1.267383605500313e+18
14575.0	1.2671655688011773e+18
14576.0	1.2669456018833405e+18
14577.0	1.2667258715242493e+18
14578.0	1.266505647076147e+18
14579.0	1.2662860056363005e+18
14580.0	1.2660661410594813e+18
14581.0	1.265845790782259e+18
14582.0	1.2656263171145725e+18
14583.0	1.265406508741427e+18
14584.0	1.265185124987699e+18
14585.0	1.2649667879763965e+18
14586.0	1.2647465190686717e+18
14587.0	1.2645269103443965e+18
14588.0	1.2643077957091325e+18
14589.0	1.2640924173598717e+18
14590.0	1.263877697516339e+18
14591.0	1.263662861071155e+18
14592.0	1.263448070763315e+18
14593.0	1.2632175778201597e+18
14594.0	1.263018737611571e+18
14595.0	1.2628034079162365e+18
14596.0	1.2625823303467005e+18
14597.0	1.2623671717789693e+18
14598.0	1.2621592559353853e+18
14599.0	1.2619455259475965e+18
14600.0	1.2617307649998845e+18
14601.0	1.2615162431275005e+18
14602.0	1.2613009511809021e+18
14603.0	1.2610868923596797e+18
14604.0	1.260866283713331e+18
14605.0	1.260656035836723e+18
14606.0	1.2604330901241853e+18
14607.0	1.2602249712762877e+18
14608.0	1.2600134709805053e+18
14609.0	1.2597981219913725e+18
14610.0	1.2595813091901437e+18
14611.0	1.2593684751056896e+18
14612.0	1.2591456761937917e+18
14613.0	1.2589310553358333e+18
14614.0	1.2587158439198717e+18
14615.0	1.2585014990471165e+18
14616.0	1.2582869285208064e+18
14617.0	1.258072172606259e+18
14618.0	1.2578574452129792e+18
14619.0	1.2576374724231165e+18
14620.0	1.257414736425779e+18
14621.0	1.2572133636964352e+18
14622.0	1.256998577582899e+18
14623.0	1.2567838275403773e+18
14624.0	1.2565613247463421e+18
14625.0	1.2563543467491325e+18
14626.0	1.2561392938778621e+18
14627.0	1.2559240531017725e+18
14628.0	1.2557100823609344e+18
14629.0	1.2554953314795517e+18
14630.0	1.2552805420105725e+18
14631.0	1.2550658943090685e+18
14632.0	1.2547736201068541e+18
14633.0	1.2546208350339067e+18
14634.0	1.2544211391873021e+18
14635.0	1.254182889298329e+18
14636.0	1.253950392316723e+18
14637.0	1.253776974623539e+18
14638.0	1.2535617808236541e+18
14639.0	1.253345619817267e+18
14640.0	1.2531316876640253e+18
14641.0	1.2525950331781115e+18
14642.0	1.2527016859402237e+18
14643.0	1.2524874803183613e+18
14644.0	1.252272532304691e+18
14645.0	1.2520546113683453e+18
14646.0	1.251841882980352e+18
14647.0	1.2516266665312253e+18
