# Flux units: erg / (cm m2 s)
# Wavelength units: Angstrom
wave	flux
14000.0	2.140469998282342e+18
14001.0	2.140099750291046e+18
14002.0	2.1397432529059837e+18
14003.0	2.1393194453303293e+18
14004.0	2.1388943039660027e+18
14005.0	2.1384686206975995e+18
14006.0	2.1380371878772733e+18
14007.0	2.1376087967662077e+18
14008.0	2.1371179507908605e+18
14009.0	2.1367569755668475e+18
14010.0	2.1363239690436603e+18
14011.0	2.1354378837360637e+18
14012.0	2.13548151120855e+18
14013.0	2.135064847371468e+18
14014.0	2.134635734840115e+18
14015.0	2.1342145126334464e+18
14016.0	2.133791436544409e+18
14017.0	2.1333670887423995e+18
14018.0	2.1329425228365821e+18
14019.0	2.1325180961816573e+18
14020.0	2.1320930437365752e+18
14021.0	2.1316680818884603e+18
14022.0	2.131243188826931e+18
14023.0	2.1308085918236667e+18
14024.0	2.1303847624376315e+18
14025.0	2.129972232506572e+18
14026.0	2.1295476095582205e+18
14027.0	2.129124855591731e+18
14028.0	2.1286946642853883e+18
14029.0	2.1282682210091005e+18
14030.0	2.1272248929222653e+18
14031.0	2.12735538275287e+18
14032.0	2.1270032138895355e+18
14033.0	2.1265470782963712e+18
14034.0	2.1261610161012733e+18
14035.0	2.125739669743206e+18
14036.0	2.1253174526476288e+18
14037.0	2.1248950812016637e+18
14038.0	2.1244726929784827e+18
14039.0	2.1240465164599293e+18
14040.0	2.1236243446628352e+18
14041.0	2.123204212975206e+18
14042.0	2.1227748521410555e+18
14043.0	2.122331249128243e+18
14044.0	2.121931037029171e+18
14045.0	2.1215157808005115e+18
14046.0	2.121091466552934e+18
14047.0	2.1206670063435773e+18
14048.0	2.1202522114883581e+18
14049.0	2.1198317207683064e+18
14050.0	2.1194104264196093e+18
14051.0	2.118982736596172e+18
14052.0	2.1185636685840381e+18
14053.0	2.1181470668226557e+18
14054.0	2.1177263378661373e+18
14055.0	2.117305541800755e+18
14056.0	2.116884817877401e+18
14057.0	2.1164642248163325e+18
14058.0	2.1160436955086845e+18
14059.0	2.1156232651866112e+18
14060.0	2.1152028549971965e+18
14061.0	2.1147774871404544e+18
14062.0	2.1143618970451963e+18
14063.0	2.1139285734326264e+18
14064.0	2.113413298153062e+18
14065.0	2.1130955091607547e+18
14066.0	2.1126828802441208e+18
14067.0	2.1122595004874752e+18
14068.0	2.1118438348947448e+18
14069.0	2.111423166336204e+18
14070.0	2.1110046217732093e+18
14071.0	2.1105836982009856e+18
14072.0	2.1101667743170552e+18
14073.0	2.1097477214044157e+18
14074.0	2.1093286735249403e+18
14075.0	2.1088939473371133e+18
14076.0	2.108484626887475e+18
14077.0	2.107929611416371e+18
14078.0	2.107639261560832e+18
14079.0	2.1072260471193592e+18
14080.0	2.106816703181619e+18
14081.0	2.1063987474989053e+18
14082.0	2.1059793791746043e+18
14083.0	2.1055605443657728e+18
14084.0	2.1051386242269176e+18
14085.0	2.1044841282535421e+18
14086.0	2.104287440561766e+18
14087.0	2.103889419567104e+18
14088.0	2.1034627397320701e+18
14089.0	2.1030527783927803e+18
14090.0	2.1026380540018688e+18
14091.0	2.1022220998410237e+18
14092.0	2.1018051977674747e+18
14093.0	2.1013880608129021e+18
14094.0	2.1009706906550272e+18
14095.0	2.1005521477697533e+18
14096.0	2.1001148613787645e+18
14097.0	2.099697152321126e+18
14098.0	2.0992930814623736e+18
14099.0	2.0988862104862717e+18
14100.0	2.0984620757549053e+18
14101.0	2.0980554732142587e+18
14102.0	2.09763927410606e+18
14103.0	2.0972123728117757e+18
14104.0	2.0968049884528637e+18
14105.0	2.09639168844759e+18
14106.0	2.0959759725232125e+18
14107.0	2.0955599260876797e+18
14108.0	2.0951340465258493e+18
14109.0	2.0947252226818045e+18
14110.0	2.0943110938820603e+18
14111.0	2.0938901401108477e+18
14112.0	2.0934748654272504e+18
14113.0	2.0930667227381752e+18
14114.0	2.092638682270924e+18
14115.0	2.0922300563980283e+18
14116.0	2.0917688624742392e+18
14117.0	2.090267756304793e+18
14118.0	2.0909702837698557e+18
14119.0	2.0905527642947581e+18
14120.0	2.090148071001292e+18
14121.0	2.0897347928064e+18
14122.0	2.0893259538628603e+18
14123.0	2.0889090987655163e+18
14124.0	2.0884853180334075e+18
14125.0	2.0877226559930363e+18
14126.0	2.0876690393661437e+18
14127.0	2.087264970185113e+18
14128.0	2.0868517574213627e+18
14129.0	2.0864292131700733e+18
14130.0	2.086006709184102e+18
14131.0	2.0856116107804672e+18
14132.0	2.085183350531686e+18
14133.0	2.0843542087729144e+18
14134.0	2.0843611092418552e+18
14135.0	2.0839455778668536e+18
14136.0	2.0835377505894397e+18
14137.0	2.083129752184422e+18
14138.0	2.082713204110131e+18
14139.0	2.0823080863531003e+18
14140.0	2.0818920415952893e+18
14141.0	2.0814613704605693e+18
14142.0	2.0810117477826555e+18
14143.0	2.0806538645995515e+18
14144.0	2.080248500217446e+18
14145.0	2.0798377151168504e+18
14146.0	2.0794252573278205e+18
14147.0	2.0790137038307328e+18
14148.0	2.0786016050741245e+18
14149.0	2.0781903753773053e+18
14150.0	2.07778094252032e+18
14151.0	2.0773651745865728e+18
14152.0	2.0769586072780797e+18
14153.0	2.0765474312683515e+18
14154.0	2.0761134969651197e+18
14155.0	2.0757099596218363e+18
14156.0	2.075312096333004e+18
14157.0	2.0749033681190907e+18
14158.0	2.074489771157094e+18
14159.0	2.0740818583158776e+18
14160.0	2.0736599700537344e+18
14161.0	2.073215412417331e+18
14162.0	2.072765115295334e+18
14163.0	2.0724325304762365e+18
14164.0	2.0719942089310203e+18
14165.0	2.0715882103701501e+18
14166.0	2.0712062887919616e+18
14167.0	2.0707876569874427e+18
14168.0	2.070390196351795e+18
14169.0	2.0699821325156347e+18
14170.0	2.0695702954835965e+18
14171.0	2.0691611209957368e+18
14172.0	2.0687536544284667e+18
14173.0	2.068322718213734e+18
14174.0	2.0679290441957373e+18
14175.0	2.0675267248783355e+18
14176.0	2.067118102360883e+18
14177.0	2.06670934394798e+18
14178.0	2.066299880892006e+18
14179.0	2.0658875371880443e+18
14180.0	2.0654833673437181e+18
14181.0	2.0650748891103227e+18
14182.0	2.064665783409049e+18
14183.0	2.0642576541417467e+18
14184.0	2.0638444430557176e+18
14185.0	2.063434027053875e+18
14186.0	2.0628223784124416e+18
14187.0	2.062587586307686e+18
14188.0	2.062212400781721e+18
14189.0	2.0618078635163643e+18
14190.0	2.0614006116974587e+18
14191.0	2.060992235805081e+18
14192.0	2.0605785465683965e+18
14193.0	2.0601473150746621e+18
14194.0	2.059770700129894e+18
14195.0	2.0593663407030264e+18
14196.0	2.0589594781155325e+18
14197.0	2.0585525433860093e+18
14198.0	2.0581418136502267e+18
14199.0	2.057736029837721e+18
14200.0	2.057211050616422e+18
14201.0	2.0569076531199997e+18
14202.0	2.0565183931875325e+18
14203.0	2.0561081348915203e+18
14204.0	2.0557040640327677e+18
14205.0	2.0552964749918205e+18
14206.0	2.0547937272594427e+18
14207.0	2.0544839057670144e+18
14208.0	2.0540805831720955e+18
14209.0	2.053569430054502e+18
14210.0	2.053188822132326e+18
14211.0	2.0528597169078272e+18
14212.0	2.0524207410511864e+18
14213.0	2.0519440818896893e+18
14214.0	2.05153817895895e+18
14215.0	2.0511244779782144e+18
14216.0	2.0507284769603576e+18
14217.0	2.050323248473702e+18
14218.0	2.049907126540697e+18
14219.0	2.0495127629791227e+18
14220.0	2.0491077559517176e+18
14221.0	2.048701373192601e+18
14222.0	2.0482836742012925e+18
14223.0	2.047891865809715e+18
14224.0	2.0474841475842043e+18
14225.0	2.0467069967400963e+18
14226.0	2.0466598863175675e+18
14227.0	2.0462687473369088e+18
14228.0	2.044976955392e+18
14229.0	2.045264674580069e+18
14230.0	2.045023196754739e+18
14231.0	2.0445355317395453e+18
14232.0	2.044138096269721e+18
14233.0	2.043731847728332e+18
14234.0	2.0433301357461501e+18
14235.0	2.0429242076495864e+18
14236.0	2.0425220259053565e+18
14237.0	2.042116693399961e+18
14238.0	2.041711961518899e+18
14239.0	2.041294693702041e+18
14240.0	2.0396798916952061e+18
14241.0	2.0404749924827128e+18
14242.0	2.0400881954455547e+18
14243.0	2.0395743160303616e+18
14244.0	2.0392918967648253e+18
14245.0	2.038881948847308e+18
14246.0	2.0384786094751736e+18
14247.0	2.0380812142706683e+18
14248.0	2.0376708804771837e+18
14249.0	2.0372785956126717e+18
14250.0	2.0368218946273275e+18
14251.0	2.036354748147302e+18
14252.0	2.035951593324544e+18
14253.0	2.0355473983143928e+18
14254.0	2.0351417403310075e+18
14255.0	2.0347070023991293e+18
14256.0	2.0339543865556992e+18
14257.0	2.0338495088230397e+18
14258.0	2.033529832393932e+18
14259.0	2.03311373394903e+18
14260.0	2.032714667733811e+18
14261.0	2.032306266675609e+18
14262.0	2.0319365874319352e+18
14263.0	2.0309829503418365e+18
14264.0	2.0309244901326843e+18
14265.0	2.0307315118833661e+18
14266.0	2.0303439514828797e+18
14267.0	2.0299448869453821e+18
14268.0	2.0295442621267965e+18
14269.0	2.0291349987196928e+18
14270.0	2.0287412089389048e+18
14271.0	2.028338305774387e+18
14272.0	2.0279324632416256e+18
14273.0	2.0274229006041083e+18
14274.0	2.026068043104256e+18
14275.0	2.0264438158327803e+18
14276.0	2.0261760262995965e+18
14277.0	2.0257880968003576e+18
14278.0	2.0253979057324027e+18
14279.0	2.0249972003831803e+18
14280.0	2.024593463391027e+18
14281.0	2.024198544503603e+18
14282.0	2.0237985521860603e+18
14283.0	2.023398227679641e+18
14284.0	2.0229978478084093e+18
14285.0	2.0225972984872955e+18
14286.0	2.0221964840861693e+18
14287.0	2.0217954733916155e+18
14288.0	2.0213858559852536e+18
14289.0	2.020207860541029e+18
14290.0	2.0205865827041277e+18
14291.0	2.0201950276485115e+18
14292.0	2.0197969043128317e+18
14293.0	2.0193940330250237e+18
14294.0	2.0188887938760701e+18
14295.0	2.0185748636434427e+18
14296.0	2.017569200406528e+18
14297.0	2.017772244985446e+18
14298.0	2.0171523251765243e+18
14299.0	2.0168527126200317e+18
14300.0	2.0164647093010427e+18
14301.0	2.0160694078930936e+18
14302.0	2.015672542848614e+18
14303.0	2.0152425864232955e+18
14304.0	2.0148611312517117e+18
14305.0	2.014473866130227e+18
14306.0	2.0140657217634301e+18
14307.0	2.0136673551581176e+18
14308.0	2.0132731191033853e+18
14309.0	2.0128685617053693e+18
14310.0	2.012435588736614e+18
14311.0	2.0120406782377981e+18
14312.0	2.011644682253107e+18
14313.0	2.0112138903224317e+18
14314.0	2.010880718300774e+18
14315.0	2.010485720560435e+18
14316.0	2.0100510866472955e+18
14317.0	2.0096840598814717e+18
14318.0	2.009297960776499e+18
14319.0	2.0089028153966587e+18
14320.0	2.0085055913197568e+18
14321.0	2.0081035169497083e+18
14322.0	2.0076721025843197e+18
14323.0	2.0072864094879744e+18
14324.0	2.006908292982374e+18
14325.0	2.0065024890372093e+18
14326.0	2.006034010446233e+18
14327.0	2.0055787523014656e+18
14328.0	2.005182680819302e+18
14329.0	2.0047907516317693e+18
14330.0	2.0043898516668416e+18
14331.0	2.0039910555648e+18
14332.0	2.0035942660177917e+18
14333.0	2.0031973506416637e+18
14334.0	2.002800353057177e+18
14335.0	2.0023933478633464e+18
14336.0	2.0019663660384253e+18
14337.0	2.0016069091524605e+18
14338.0	2.0012111530819581e+18
14339.0	2.0008065889730555e+18
14340.0	2.000420164390092e+18
14341.0	2.0000229604458493e+18
14342.0	1.999626128955801e+18
14343.0	1.9992304701931515e+18
14344.0	1.998831721067315e+18
14345.0	1.9984396291407864e+18
14346.0	1.998040759218995e+18
14347.0	1.9976350827806717e+18
14348.0	1.997249611143577e+18
14349.0	1.996855505951129e+18
14350.0	1.996426844726886e+18
14351.0	1.9960265856516093e+18
14352.0	1.9956616090615805e+18
14353.0	1.995273531922841e+18
14354.0	1.9948750562656253e+18
14355.0	1.9944725104558072e+18
14356.0	1.9940794152517627e+18
14357.0	1.993694411698995e+18
14358.0	1.9932257049378808e+18
14359.0	1.9927551543607293e+18
14360.0	1.992371712766771e+18
14361.0	1.9919775840862203e+18
14362.0	1.9915837104193533e+18
14363.0	1.991186749744742e+18
14364.0	1.990694788084531e+18
14365.0	1.9903612587081725e+18
14366.0	1.989985212511027e+18
14367.0	1.9896096243318781e+18
14368.0	1.9892151198416893e+18
14369.0	1.9888211522224125e+18
14370.0	1.9884268104712187e+18
14371.0	1.9880326515916797e+18
14372.0	1.98763355349975e+18
14373.0	1.9872438019948536e+18
14374.0	1.986849659892531e+18
14375.0	1.986454588332441e+18
14376.0	1.9860616910995448e+18
14377.0	1.9856671463440384e+18
14378.0	1.985271606699622e+18
14379.0	1.9848797999857661e+18
14380.0	1.984485171344179e+18
14381.0	1.9840816390340605e+18
14382.0	1.9836973082476536e+18
14383.0	1.9833031393017853e+18
14384.0	1.982894563760537e+18
14385.0	1.982518364890726e+18
14386.0	1.982108173703577e+18
14387.0	1.981731451384627e+18
14388.0	1.9813372874719227e+18
14389.0	1.9809447727595517e+18
14390.0	1.98055071622103e+18
14391.0	1.9801593641697277e+18
14392.0	1.979765799203635e+18
14393.0	1.9793737458647037e+18
14394.0	1.978946079529369e+18
14395.0	1.9784620417482747e+18
14396.0	1.9780580010885115e+18
14397.0	1.977664959571558e+18
14398.0	1.9772713778282493e+18
14399.0	1.9768779353358333e+18
14400.0	1.9764694805905403e+18
14401.0	1.97608269194199e+18
14402.0	1.9756848051650555e+18
14403.0	1.9747475610927096e+18
14404.0	1.9721772446253038e+18
14405.0	1.9731474609602527e+18
14406.0	1.9741004655493115e+18
14407.0	1.9730446719909888e+18
14408.0	1.9733078310125565e+18
14409.0	1.9729340480618493e+18
14410.0	1.9725524435730427e+18
14411.0	1.9721679852797952e+18
14412.0	1.9717751668998141e+18
14413.0	1.971386484103577e+18
14414.0	1.9709926708346872e+18
14415.0	1.9706016258064381e+18
14416.0	1.970209312420659e+18
14417.0	1.9698114625535997e+18
14418.0	1.9694163607945216e+18
14419.0	1.969032461182566e+18
14420.0	1.9686375037075448e+18
14421.0	1.9682476632834043e+18
14422.0	1.9678449799004155e+18
14423.0	1.9674009608126461e+18
14424.0	1.9642483625426934e+18
14425.0	1.966613324208537e+18
14426.0	1.9662849689255933e+18
14427.0	1.9659019484397565e+18
14428.0	1.9654919669678075e+18
14429.0	1.9651194943176701e+18
14430.0	1.9647263756255224e+18
14431.0	1.964165377399193e+18
14432.0	1.9639356033597435e+18
14433.0	1.963029762880307e+18
14434.0	1.9631449418235896e+18
14435.0	1.9627562070179837e+18
14436.0	1.9622600644755456e+18
14437.0	1.9618616542494715e+18
14438.0	1.9614454836625405e+18
14439.0	1.961073455608627e+18
14440.0	1.9606902690283517e+18
14441.0	1.96029449282519e+18
14442.0	1.9598997685534717e+18
14443.0	1.9594763049107453e+18
14444.0	1.9591215506784253e+18
14445.0	1.9587278313619456e+18
14446.0	1.9572716495437827e+18
14447.0	1.9579142857031675e+18
14448.0	1.9575652273356797e+18
14449.0	1.9571780611997693e+18
14450.0	1.95678314734551e+18
14451.0	1.9563949057900544e+18
14452.0	1.9560067648978941e+18
14453.0	1.955611968484147e+18
14454.0	1.9552278272802816e+18
14455.0	1.9548304790519805e+18
14456.0	1.9544461029670907e+18
14457.0	1.9540549925076987e+18
14458.0	1.9536650061217787e+18
14459.0	1.9532720266805243e+18
14460.0	1.9528780523503608e+18
14461.0	1.9524658193760256e+18
14462.0	1.9520701790683133e+18
14463.0	1.95170142257152e+18
14464.0	1.951323762406195e+18
14465.0	1.9509212065300477e+18
14466.0	1.9505491113672701e+18
14467.0	1.9501430020767741e+18
14468.0	1.9497702475694077e+18
14469.0	1.9493616653172733e+18
14470.0	1.9489724188065787e+18
14471.0	1.9486032563011584e+18
14472.0	1.9482178635169787e+18
14473.0	1.947833665270579e+18
14474.0	1.947447848022835e+18
14475.0	1.9470566234783741e+18
14476.0	1.9466392180883456e+18
14477.0	1.9462822408749053e+18
14478.0	1.9458925061472256e+18
14479.0	1.945506531193651e+18
14480.0	1.9451024452354043e+18
14481.0	1.944730761114419e+18
14482.0	1.9443383873306621e+18
14483.0	1.9439456712916987e+18
14484.0	1.9435513144410107e+18
14485.0	1.9430733885997048e+18
14486.0	1.9423967349571581e+18
14487.0	1.942258185351987e+18
14488.0	1.9418662007996408e+18
14489.0	1.9414713943195643e+18
14490.0	1.9410935126949883e+18
14491.0	1.9407101231103997e+18
14492.0	1.9403237606031355e+18
14493.0	1.9399289172131835e+18
14494.0	1.9395275105763328e+18
14495.0	1.9391533820149752e+18
14496.0	1.9386581051768827e+18
14497.0	1.9383805630480381e+18
14498.0	1.937996054423142e+18
14499.0	1.9376084856340475e+18
14500.0	1.9372197877383163e+18
14501.0	1.9368077913227261e+18
14502.0	1.9362618456145917e+18
14503.0	1.9360383177326587e+18
14504.0	1.935662925846937e+18
14505.0	1.9352634636894205e+18
14506.0	1.9348580590419963e+18
14507.0	1.934297428236697e+18
14508.0	1.934116613468979e+18
14509.0	1.9337331752304637e+18
14510.0	1.9333435864645632e+18
14511.0	1.932957849747456e+18
14512.0	1.9325588388970493e+18
14513.0	1.9321811669876733e+18
14514.0	1.9317675415044093e+18
14515.0	1.9313917184442365e+18
14516.0	1.9290206028955656e+18
14517.0	1.930586440597504e+18
14518.0	1.9302443783290875e+18
14519.0	1.929861752107827e+18
14520.0	1.9294760808218621e+18
14521.0	1.9290894482014205e+18
14522.0	1.928700307387187e+18
14523.0	1.9282712921636856e+18
14524.0	1.927891405661798e+18
14525.0	1.9275375238447104e+18
14526.0	1.9271540470185981e+18
14527.0	1.926744815488204e+18
14528.0	1.9262774475489277e+18
14529.0	1.925986817513881e+18
14530.0	1.9255954587516928e+18
14531.0	1.9252219157151744e+18
14532.0	1.9247960931958781e+18
14533.0	1.9244499792297984e+18
14534.0	1.924067287577395e+18
14535.0	1.9236705668169728e+18
14536.0	1.9232907004477435e+18
14537.0	1.922898729317171e+18
14538.0	1.9225226445324288e+18
14539.0	1.9221368306401277e+18
14540.0	1.9217505302085632e+18
14541.0	1.9213042696847355e+18
14542.0	1.920823147783782e+18
14543.0	1.920406470524928e+18
14544.0	1.9200464146923517e+18
14545.0	1.9196396762562555e+18
14546.0	1.915877424155851e+18
14547.0	1.9156868349820902e+18
14548.0	1.9184690560761853e+18
14549.0	1.918011353491046e+18
14550.0	1.9177221126094843e+18
14551.0	1.9173497389449219e+18
14552.0	1.916963862976921e+18
14553.0	1.9165734152175616e+18
14554.0	1.9161935538814973e+18
14555.0	1.9158071645306875e+18
14556.0	1.915420010138828e+18
14557.0	1.9150324145061888e+18
14558.0	1.914629167408742e+18
14559.0	1.9127808366215142e+18
14560.0	1.9138543150432253e+18
14561.0	1.9134827433295872e+18
14562.0	1.913080517964595e+18
14563.0	1.912715838331289e+18
14564.0	1.9123246204977147e+18
14565.0	1.911948844413747e+18
14566.0	1.9115638928703488e+18
14567.0	1.9111768424972283e+18
14568.0	1.910782827901747e+18
14569.0	1.910398325987737e+18
14570.0	1.9096084747911158e+18
14571.0	1.9096271914532861e+18
14572.0	1.9092149853224955e+18
14573.0	1.908817242829619e+18
14574.0	1.908458621449011e+18
14575.0	1.908084747901337e+18
14576.0	1.9076976354525181e+18
14577.0	1.9073162759110656e+18
14578.0	1.9069368423940096e+18
14579.0	1.9065534863638525e+18
14580.0	1.9061684593229821e+18
14581.0	1.905779407427993e+18
14582.0	1.9053938871369725e+18
14583.0	1.905011953814732e+18
14584.0	1.9046136828395523e+18
14585.0	1.9042405307121661e+18
14586.0	1.903854012176793e+18
14587.0	1.9034710336339968e+18
14588.0	1.903086466288844e+18
14589.0	1.9027043349954555e+18
14590.0	1.9023222171238397e+18
14591.0	1.9019387302313984e+18
14592.0	1.901548396557107e+18
14593.0	1.901074641531699e+18
14594.0	1.900789982507827e+18
14595.0	1.9004027593293821e+18
14596.0	1.8999327288459261e+18
14597.0	1.8995321979797496e+18
14598.0	1.8992511393464315e+18
14599.0	1.8988826361855997e+18
14600.0	1.898500092172697e+18
14601.0	1.8981182528028664e+18
14602.0	1.8977347558440955e+18
14603.0	1.8973525675081728e+18
14604.0	1.8969344625082365e+18
14605.0	1.896576896414515e+18
14606.0	1.8960956453289981e+18
14607.0	1.8956871519961083e+18
14608.0	1.8953085254631421e+18
14609.0	1.894924718125875e+18
14610.0	1.894538070405939e+18
14611.0	1.8941585077043197e+18
14612.0	1.8937823155453947e+18
14613.0	1.8934019542482944e+18
14614.0	1.893017608362393e+18
14615.0	1.892638163101286e+18
14616.0	1.8922565703565302e+18
14617.0	1.8918735314157565e+18
14618.0	1.891484279871897e+18
14619.0	1.8909999417786365e+18
14620.0	1.8904861345054712e+18
14621.0	1.8903405837680637e+18
14622.0	1.8899598047182843e+18
14623.0	1.889580357779456e+18
14624.0	1.889150065809817e+18
14625.0	1.8888116760739837e+18
14626.0	1.8884341618704381e+18
14627.0	1.8880499753680893e+18
14628.0	1.887670862295859e+18
14629.0	1.8872883484819453e+18
14630.0	1.8869044891353083e+18
14631.0	1.886521706885939e+18
14632.0	1.88591773885399e+18
14633.0	1.8857132346572792e+18
14634.0	1.8853721991544832e+18
14635.0	1.8849761696153597e+18
14636.0	1.884558317951385e+18
14637.0	1.8842293955985403e+18
14638.0	1.8838404242341883e+18
14639.0	1.8834489580978168e+18
14640.0	1.8830610487312381e+18
14641.0	1.881813333888204e+18
14642.0	1.8822934508339197e+18
14643.0	1.8819292342517755e+18
14644.0	1.8815367346388987e+18
14645.0	1.881147602213273e+18
14646.0	1.8807719670579197e+18
14647.0	1.8803836466495483e+18
14648.0	1.880010670682931e+18
