# Flux units: erg / (cm m2 s)
# Wavelength units: Angstrom
wave	flux
14000.0	2.1840684780617723e+18
14001.0	2.183551402586931e+18
14002.0	2.1830720859144187e+18
14003.0	2.182572296005222e+18
14004.0	2.1820725815934973e+18
14005.0	2.181572835305062e+18
14006.0	2.1810706999410683e+18
14007.0	2.180570094659174e+18
14008.0	2.180036810715955e+18
14009.0	2.1795749608030205e+18
14010.0	2.1790707333201912e+18
14011.0	2.178370564731699e+18
14012.0	2.1780781345013755e+18
14013.0	2.1775795911393275e+18
14014.0	2.177078792919449e+18
14015.0	2.1765817343410173e+18
14016.0	2.1760843838390267e+18
14017.0	2.175586254874214e+18
14018.0	2.1750879732367355e+18
14019.0	2.174590392886886e+18
14020.0	2.174092369618534e+18
14021.0	2.1735945191555067e+18
14022.0	2.1730962626838525e+18
14023.0	2.1725908222083064e+18
14024.0	2.172095448062361e+18
14025.0	2.171605773136691e+18
14026.0	2.171108337070899e+18
14027.0	2.1706123455234045e+18
14028.0	2.1701157097308157e+18
14029.0	2.1696188742893563e+18
14030.0	2.168778117663949e+18
14031.0	2.1685906171756536e+18
14032.0	2.1680895740084221e+18
14033.0	2.167574760102297e+18
14034.0	2.1670972838903803e+18
14035.0	2.1666022922649595e+18
14036.0	2.1661067033706496e+18
14037.0	2.1656112067510267e+18
14038.0	2.165115824216473e+18
14039.0	2.164620574221926e+18
14040.0	2.164121337960857e+18
14041.0	2.1636288427851773e+18
14042.0	2.163131638244966e+18
14043.0	2.1626268638248955e+18
14044.0	2.162142597873664e+18
14045.0	2.1616508291514365e+18
14046.0	2.1611553644085243e+18
14047.0	2.160659681561804e+18
14048.0	2.160168451388211e+18
14049.0	2.1596416669384696e+18
14050.0	2.1591418719961083e+18
14051.0	2.158644828517171e+18
14052.0	2.1581544858583032e+18
14053.0	2.1576609102299133e+18
14054.0	2.1571676718235645e+18
14055.0	2.1566744569053181e+18
14056.0	2.1561813577498621e+18
14057.0	2.155688414622515e+18
14058.0	2.155195595646566e+18
14059.0	2.1547029142437885e+18
14060.0	2.1542103603478528e+18
14061.0	2.1537157009113085e+18
14062.0	2.1532256468205565e+18
14063.0	2.1527275010785277e+18
14064.0	2.1521931215831037e+18
14065.0	2.1517466647658486e+18
14066.0	2.1512577464926205e+18
14067.0	2.1507582887723e+18
14068.0	2.1502657768194045e+18
14069.0	2.1497433125027832e+18
14070.0	2.149252854081126e+18
14071.0	2.1487609175867387e+18
14072.0	2.148270803098009e+18
14073.0	2.1477798715588605e+18
14074.0	2.1472890742374392e+18
14075.0	2.1467913814802427e+18
14076.0	2.1462989097926648e+18
14077.0	2.145737317652889e+18
14078.0	2.1453210094927867e+18
14079.0	2.1448345759252477e+18
14080.0	2.144347083715379e+18
14081.0	2.1438572124962819e+18
14082.0	2.1433625547374587e+18
14083.0	2.1428773089968125e+18
14084.0	2.1423883068375037e+18
14085.0	2.14176713712599e+18
14086.0	2.1414032577658877e+18
14087.0	2.1409207131570168e+18
14088.0	2.14042672145367e+18
14089.0	2.1399355114127352e+18
14090.0	2.1394528392970237e+18
14091.0	2.138924001316044e+18
14092.0	2.138413094823526e+18
14093.0	2.1379247033548795e+18
14094.0	2.1374364410707965e+18
14095.0	2.1369482542841853e+18
14096.0	2.1364426175152125e+18
14097.0	2.1359623411859453e+18
14098.0	2.1354764696551421e+18
14099.0	2.1349970204426235e+18
14100.0	2.134505640951808e+18
14101.0	2.134022353112269e+18
14102.0	2.1335349917646843e+18
14103.0	2.1330434025586688e+18
14104.0	2.132561112963481e+18
14105.0	2.1320735637110776e+18
14106.0	2.1315875277635584e+18
14107.0	2.1310989349683195e+18
14108.0	2.130609927775846e+18
14109.0	2.1301263446573053e+18
14110.0	2.1296361882255357e+18
14111.0	2.1291442768969725e+18
14112.0	2.1286669382582267e+18
14113.0	2.1281842225217533e+18
14114.0	2.127693247361843e+18
14115.0	2.1272124593274875e+18
14116.0	2.1266708454965243e+18
14117.0	2.1256420833886205e+18
14118.0	2.1257189096161275e+18
14119.0	2.1252223325437947e+18
14120.0	2.1247400479817728e+18
14121.0	2.1242562484371456e+18
14122.0	2.1237687931371517e+18
14123.0	2.123279369869721e+18
14124.0	2.122793493305753e+18
14125.0	2.122155937287372e+18
14126.0	2.1218380895748093e+18
14127.0	2.1213579642404861e+18
14128.0	2.1208735623938045e+18
14129.0	2.1203857228955643e+18
14130.0	2.1198981031788544e+18
14131.0	2.119423019397939e+18
14132.0	2.118937397847654e+18
14133.0	2.1182574961360886e+18
14134.0	2.1179728723443704e+18
14135.0	2.1174824961310715e+18
14136.0	2.116975240360755e+18
14137.0	2.116523030636134e+18
14138.0	2.1160336946102267e+18
14139.0	2.1155587802791933e+18
14140.0	2.1150670132346875e+18
14141.0	2.1145912852086776e+18
14142.0	2.114058544847257e+18
14143.0	2.1136078148730877e+18
14144.0	2.1131112948432893e+18
14145.0	2.1126294682992637e+18
14146.0	2.1121470478417917e+18
14147.0	2.1116652330418168e+18
14148.0	2.1111817992404987e+18
14149.0	2.1106994593136637e+18
14150.0	2.110221964646809e+18
14151.0	2.1097346167209981e+18
14152.0	2.1092599490150397e+18
14153.0	2.1087790150189053e+18
14154.0	2.108288437479014e+18
14155.0	2.1077619030097915e+18
14156.0	2.1073324230574077e+18
14157.0	2.1068567252303872e+18
14158.0	2.1063745698529277e+18
14159.0	2.1058963436994555e+18
14160.0	2.1054152285093883e+18
14161.0	2.104913537741619e+18
14162.0	2.1044175277391872e+18
14163.0	2.1039765990146043e+18
14164.0	2.1034743881531387e+18
14165.0	2.1029204044808187e+18
14166.0	2.1025377245724664e+18
14167.0	2.102054471965081e+18
14168.0	2.1015777607942144e+18
14169.0	2.101102272682393e+18
14170.0	2.1006208504692733e+18
14171.0	2.1001439899811835e+18
14172.0	2.0996664516935675e+18
14173.0	2.0991411805487101e+18
14174.0	2.0987077495619581e+18
14175.0	2.0982061393248256e+18
14176.0	2.097716786521702e+18
14177.0	2.0972393069543421e+18
14178.0	2.0967605170864125e+18
14179.0	2.0962743620206587e+18
14180.0	2.0958065108975616e+18
14181.0	2.095329049785139e+18
14182.0	2.094851436000051e+18
14183.0	2.0943744849149947e+18
14184.0	2.0938954719100925e+18
14185.0	2.093420297532211e+18
14186.0	2.0928290332082173e+18
14187.0	2.0924576359776253e+18
14188.0	2.0919898351861757e+18
14189.0	2.091511728150937e+18
14190.0	2.09103645310976e+18
14191.0	2.0905598291804155e+18
14192.0	2.0900818882396152e+18
14193.0	2.0895906362556408e+18
14194.0	2.0891318465069053e+18
14195.0	2.0886574942126075e+18
14196.0	2.088181774575206e+18
14197.0	2.087706279752499e+18
14198.0	2.0872291155968e+18
14199.0	2.0867539462520827e+18
14200.0	2.086216436128153e+18
14201.0	2.0858039296851965e+18
14202.0	2.0853307232747515e+18
14203.0	2.0848450664923133e+18
14204.0	2.0843801463488504e+18
14205.0	2.083905753789235e+18
14206.0	2.0833860543578104e+18
14207.0	2.0829580357009403e+18
14208.0	2.0824840105623547e+18
14209.0	2.0819608348917752e+18
14210.0	2.0815035366375421e+18
14211.0	2.081045426366054e+18
14212.0	2.080552843948851e+18
14213.0	2.0800779900157947e+18
14214.0	2.0796057751388152e+18
14215.0	2.0791284046233597e+18
14216.0	2.0786594864693243e+18
14217.0	2.0781863505231867e+18
14218.0	2.0777086494965755e+18
14219.0	2.0772403839762427e+18
14220.0	2.0767676590718968e+18
14221.0	2.0762929091575805e+18
14222.0	2.0758070678257661e+18
14223.0	2.0753498450690043e+18
14224.0	2.074877660391014e+18
14225.0	2.074226187671961e+18
14226.0	2.0739330980970493e+18
14227.0	2.0734615425646587e+18
14228.0	2.0725820624470016e+18
14229.0	2.072457105742233e+18
14230.0	2.072046468281139e+18
14231.0	2.071562856641331e+18
14232.0	2.0711036441067517e+18
14233.0	2.0706298739818493e+18
14234.0	2.0701613484146688e+18
14235.0	2.0696894841815035e+18
14236.0	2.0692192255279101e+18
14237.0	2.0687364292607997e+18
14238.0	2.0682266082541565e+18
14239.0	2.0677536082034683e+18
14240.0	2.0667817661562877e+18
14241.0	2.0668137988947958e+18
14242.0	2.066344830409113e+18
14243.0	2.0658183898923005e+18
14244.0	2.0654056485683197e+18
14245.0	2.064929984295731e+18
14246.0	2.06445529310167e+18
14247.0	2.0639946628923387e+18
14248.0	2.0635222684991488e+18
14249.0	2.063057175550361e+18
14250.0	2.062587874875801e+18
14251.0	2.0621173377204221e+18
14252.0	2.0616162979086333e+18
14253.0	2.0611471180300288e+18
14254.0	2.0606776613273597e+18
14255.0	2.0601988479713275e+18
14256.0	2.0595542220341245e+18
14257.0	2.0592689271537661e+18
14258.0	2.058804478450073e+18
14259.0	2.0583303962689533e+18
14260.0	2.0578629947752443e+18
14261.0	2.0573920163790843e+18
14262.0	2.0569434540212221e+18
14263.0	2.056200203219763e+18
14264.0	2.05596304384983e+18
14265.0	2.0555374629224445e+18
14266.0	2.0550732776210427e+18
14267.0	2.0546059147149307e+18
14268.0	2.0541388521209853e+18
14269.0	2.0536709154340856e+18
14270.0	2.053204849406771e+18
14271.0	2.0527364245028861e+18
14272.0	2.05227109163991e+18
14273.0	2.0518040089133048e+18
14274.0	2.0509319778795517e+18
14275.0	2.0508347203583997e+18
14276.0	2.0503931306115064e+18
14277.0	2.0499306230317053e+18
14278.0	2.0494732778012667e+18
14279.0	2.049007142987366e+18
14280.0	2.0485387667374075e+18
14281.0	2.0480759051583483e+18
14282.0	2.0476104330444797e+18
14283.0	2.047144964286054e+18
14284.0	2.0466658304851965e+18
14285.0	2.0461822540775421e+18
14286.0	2.045716543727206e+18
14287.0	2.045252244340736e+18
14288.0	2.044787307420057e+18
14289.0	2.0439970334375923e+18
14290.0	2.0438558313545728e+18
14291.0	2.0433930385620987e+18
14292.0	2.042929014321971e+18
14293.0	2.0424639113068536e+18
14294.0	2.041949793655193e+18
14295.0	2.0415312574808061e+18
14296.0	2.0408080638410752e+18
14297.0	2.0406084300701693e+18
14298.0	2.0400467456557053e+18
14299.0	2.0396745078865917e+18
14300.0	2.0392060779495421e+18
14301.0	2.0387177904996347e+18
14302.0	2.0382560748044283e+18
14303.0	2.037780085053849e+18
14304.0	2.0373257647554555e+18
14305.0	2.0368656378626043e+18
14306.0	2.0363789375373307e+18
14307.0	2.035932527696281e+18
14308.0	2.0354763384160253e+18
14309.0	2.0350099200671744e+18
14310.0	2.0344380619489275e+18
14311.0	2.0340210491457533e+18
14312.0	2.0335996876881917e+18
14313.0	2.0331401765191677e+18
14314.0	2.0327001285984253e+18
14315.0	2.032241681104896e+18
14316.0	2.0317612269371384e+18
14317.0	2.031302868362854e+18
14318.0	2.0308575993724925e+18
14319.0	2.0303964641689597e+18
14320.0	2.0299349917433853e+18
14321.0	2.0294739572031483e+18
14322.0	2.0289967980806136e+18
14323.0	2.0285456419651581e+18
14324.0	2.0280909106249725e+18
14325.0	2.027626049201766e+18
14326.0	2.0271693666713597e+18
14327.0	2.0267060688846845e+18
14328.0	2.0262459201814525e+18
14329.0	2.025787819976294e+18
14330.0	2.0253275118895101e+18
14331.0	2.024867141727027e+18
14332.0	2.0244071876395005e+18
14333.0	2.0239472117415933e+18
14334.0	2.0234873297960955e+18
14335.0	2.0230216177680384e+18
14336.0	2.022544688493363e+18
14337.0	2.0221080597692408e+18
14338.0	2.021648046961459e+18
14339.0	2.0211847995064315e+18
14340.0	2.0207300866211837e+18
14341.0	2.020269389302988e+18
14342.0	2.019811971930521e+18
14343.0	2.0193487345418237e+18
14344.0	2.0188917231779837e+18
14345.0	2.0184354802106363e+18
14346.0	2.0179753013084152e+18
14347.0	2.0175075927916544e+18
14348.0	2.0170594146320381e+18
14349.0	2.0166016852033533e+18
14350.0	2.016128493892403e+18
14351.0	2.0156672261488637e+18
14352.0	2.0152242623479805e+18
14353.0	2.0147692424396797e+18
14354.0	2.0143097262374907e+18
14355.0	2.013848565868134e+18
14356.0	2.0133681284775933e+18
14357.0	2.0129064161378301e+18
14358.0	2.012448963533209e+18
14359.0	2.0119853453017083e+18
14360.0	2.011532836942643e+18
14361.0	2.0110767449702397e+18
14362.0	2.0106201698140152e+18
14363.0	2.0101630879858688e+18
14364.0	2.0096535270260733e+18
14365.0	2.0092416044302333e+18
14366.0	2.0087847558053883e+18
14367.0	2.008336497115136e+18
14368.0	2.0078798498168827e+18
14369.0	2.0074237075128317e+18
14370.0	2.0069675098439677e+18
14371.0	2.0065114363265021e+18
14372.0	2.0060534049079293e+18
14373.0	2.005599331234611e+18
14374.0	2.0051435748065275e+18
14375.0	2.0046878435442688e+18
14376.0	2.004232184424038e+18
14377.0	2.0037764061855744e+18
14378.0	2.0033202034835453e+18
14379.0	2.002865809365401e+18
14380.0	2.0024103146618877e+18
14381.0	2.0019506290098173e+18
14382.0	2.0014996725432315e+18
14383.0	2.0010385172070392e+18
14384.0	2.0005823530926075e+18
14385.0	2.0001357066928125e+18
14386.0	1.999675115071078e+18
14387.0	1.9992263312539643e+18
14388.0	1.9987710496210936e+18
14389.0	1.9983174205439997e+18
14390.0	1.997862440901017e+18
14391.0	1.997408865511014e+18
14392.0	1.9969529832538107e+18
14393.0	1.996500944656793e+18
14394.0	1.996032544918732e+18
14395.0	1.9955834289127421e+18
14396.0	1.9951391313231872e+18
14397.0	1.9946858411458555e+18
14398.0	1.9942309353226237e+18
14399.0	1.993778415219507e+18
14400.0	1.9933162582835192e+18
14401.0	1.9928696521490427e+18
14402.0	1.9924182712188925e+18
14403.0	1.9904168013594596e+18
14404.0	1.9872837988777974e+18
14405.0	1.990560723029195e+18
14406.0	1.9906065214734333e+18
14407.0	1.9878839551262728e+18
14408.0	1.9896877457604603e+18
14409.0	1.9892425656893437e+18
14410.0	1.988792736651673e+18
14411.0	1.9883443034783736e+18
14412.0	1.9878911559073792e+18
14413.0	1.9874402162180093e+18
14414.0	1.98698709549056e+18
14415.0	1.9865355233001472e+18
14416.0	1.9860816392093693e+18
14417.0	1.9856206902329344e+18
14418.0	1.9851638650961912e+18
14419.0	1.9847279561146365e+18
14420.0	1.9842532447879163e+18
14421.0	1.9837933695533056e+18
14422.0	1.9833416346238973e+18
14423.0	1.9828847407005696e+18
14424.0	1.973242344505338e+18
14425.0	1.981983352894259e+18
14426.0	1.9815366880395261e+18
14427.0	1.9810860503400443e+18
14428.0	1.9806242004271096e+18
14429.0	1.980143424136806e+18
14430.0	1.979694116870553e+18
14431.0	1.9791603883311101e+18
14432.0	1.9787849310142461e+18
14433.0	1.9766437824430065e+18
14434.0	1.9778865681399803e+18
14435.0	1.977426323806617e+18
14436.0	1.976991032226611e+18
14437.0	1.9765408877772797e+18
14438.0	1.976035425491353e+18
14439.0	1.975627782763315e+18
14440.0	1.975190441007513e+18
14441.0	1.9747387899641853e+18
14442.0	1.9742872395841536e+18
14443.0	1.973823567665561e+18
14444.0	1.973389970584371e+18
14445.0	1.9729418410786816e+18
14446.0	1.9705853586178056e+18
14447.0	1.9720373964636155e+18
14448.0	1.9715939511566333e+18
14449.0	1.9711447713972221e+18
14450.0	1.9706932411498493e+18
14451.0	1.970245945471795e+18
14452.0	1.9697955812409341e+18
14453.0	1.9693147831402493e+18
14454.0	1.9688991460687872e+18
14455.0	1.9684485519900672e+18
14456.0	1.9679941561942016e+18
14457.0	1.967541575693107e+18
14458.0	1.9671000983535608e+18
14459.0	1.966650437088051e+18
14460.0	1.9662029283393533e+18
14461.0	1.9657367532601341e+18
14462.0	1.9652447563677693e+18
14463.0	1.96485252686807e+18
14464.0	1.9644115562004475e+18
14465.0	1.9639576737873915e+18
14466.0	1.963517575535001e+18
14467.0	1.9630415002206205e+18
14468.0	1.9626193904992246e+18
14469.0	1.962161850653081e+18
14470.0	1.9617156572381184e+18
14471.0	1.961273599406899e+18
14472.0	1.9608278707208187e+18
14473.0	1.9603844086366203e+18
14474.0	1.9599371381243907e+18
14475.0	1.9594879600427003e+18
14476.0	1.9589321140994043e+18
14477.0	1.958594772939571e+18
14478.0	1.9581475309486077e+18
14479.0	1.9576997604753403e+18
14480.0	1.9572470625337341e+18
14481.0	1.9568069307269117e+18
14482.0	1.9563587324346363e+18
14483.0	1.955908967150387e+18
14484.0	1.955463414625075e+18
14485.0	1.9550038749347835e+18
14486.0	1.9544603216576512e+18
14487.0	1.9541254635257853e+18
14488.0	1.953662098630246e+18
14489.0	1.953224884381286e+18
14490.0	1.95278513677271e+18
14491.0	1.9523402050043901e+18
14492.0	1.951894253181337e+18
14493.0	1.9514459559034877e+18
14494.0	1.9509935649849341e+18
14495.0	1.9505558742630397e+18
14496.0	1.9500584029650941e+18
14497.0	1.9496632475189243e+18
14498.0	1.9491871386501115e+18
14499.0	1.9487415861247997e+18
14500.0	1.9482954279419901e+18
14501.0	1.9477960742404093e+18
14502.0	1.9472743514767355e+18
14503.0	1.9469465364201472e+18
14504.0	1.9465096929476603e+18
14505.0	1.9460157901635574e+18
14506.0	1.9455088900702205e+18
14507.0	1.945081988775936e+18
14508.0	1.944728871999897e+18
14509.0	1.9442832389439488e+18
14510.0	1.943827526136627e+18
14511.0	1.943359478720102e+18
14512.0	1.9429076196392955e+18
14513.0	1.9424683854135293e+18
14514.0	1.9420057352273912e+18
14515.0	1.941576617662873e+18
14516.0	1.9403293893591043e+18
14517.0	1.940686418581913e+18
14518.0	1.940241335818649e+18
14519.0	1.9397961825910781e+18
14520.0	1.9393509739986941e+18
14521.0	1.9389051882700797e+18
14522.0	1.938459160949555e+18
14523.0	1.937891537400627e+18
14524.0	1.9374474075832317e+18
14525.0	1.9371234714189821e+18
14526.0	1.936680698878361e+18
14527.0	1.9362269557161984e+18
14528.0	1.9357403510210555e+18
14529.0	1.935341767989657e+18
14530.0	1.9348936636497915e+18
14531.0	1.934455229697229e+18
14532.0	1.9338449282662397e+18
14533.0	1.933566146301132e+18
14534.0	1.9331221540569088e+18
14535.0	1.93267294577623e+18
14536.0	1.9322325589557243e+18
14537.0	1.931783162770227e+18
14538.0	1.9313432541003773e+18
14539.0	1.9308988491366392e+18
14540.0	1.9304542042587133e+18
14541.0	1.930000086964633e+18
14542.0	1.9295637568749563e+18
14543.0	1.9290417623203837e+18
14544.0	1.9286516031291387e+18
14545.0	1.9282037353480187e+18
14546.0	1.9176978779209664e+18
14547.0	1.9183390511071155e+18
14548.0	1.926867629742489e+18
14549.0	1.9263828655079421e+18
14550.0	1.9259813800181763e+18
14551.0	1.9255393674854397e+18
14552.0	1.9250937411403773e+18
14553.0	1.9246469622005755e+18
14554.0	1.9242054110412797e+18
14555.0	1.9237603416997883e+18
14556.0	1.92331285308375e+18
14557.0	1.9228711928725496e+18
14558.0	1.9224260195123192e+18
14559.0	1.9213795020767212e+18
14560.0	1.921525015904256e+18
14561.0	1.9210895448080381e+18
14562.0	1.9206365834641405e+18
14563.0	1.920202259929497e+18
14564.0	1.9197493254291453e+18
14565.0	1.919313287263027e+18
14566.0	1.918799533676953e+18
14567.0	1.9183504948461568e+18
14568.0	1.9178877691625472e+18
14569.0	1.9174610574508027e+18
14570.0	1.9168421274976253e+18
14571.0	1.9165703097548792e+18
14572.0	1.9161057972977661e+18
14573.0	1.9156638703288315e+18
14574.0	1.9152144489775104e+18
14575.0	1.9147889552916477e+18
14576.0	1.91434341786583e+18
14577.0	1.9138994054889464e+18
14578.0	1.913456418199961e+18
14579.0	1.9130120434352125e+18
14580.0	1.9125670042927104e+18
14581.0	1.9121179134525437e+18
14582.0	1.911676263307673e+18
14583.0	1.911231281207705e+18
14584.0	1.910779480847155e+18
14585.0	1.9103402516545533e+18
14586.0	1.9098933032648704e+18
14587.0	1.9094465864007675e+18
14588.0	1.9089883402338304e+18
14589.0	1.908542802808012e+18
14590.0	1.9081115830583293e+18
14591.0	1.907679110050611e+18
14592.0	1.9072462746550264e+18
14593.0	1.9067725666058237e+18
14594.0	1.9063853568491517e+18
14595.0	1.9059511759208443e+18
14596.0	1.9054724363845627e+18
14597.0	1.905039970087731e+18
14598.0	1.904653322367795e+18
14599.0	1.9042254832271355e+18
14600.0	1.9037917888380925e+18
14601.0	1.9033601463025661e+18
14602.0	1.9029232172662781e+18
14603.0	1.9024948429324283e+18
14604.0	1.902043651584819e+18
14605.0	1.9016193390149624e+18
14606.0	1.901171821877657e+18
14607.0	1.9007627061100541e+18
14608.0	1.9003306189783037e+18
14609.0	1.8998869639561216e+18
14610.0	1.899447771673395e+18
14611.0	1.8990268397125632e+18
14612.0	1.89859774899159e+18
14613.0	1.898164787766886e+18
14614.0	1.8977298015322107e+18
14615.0	1.897295588727193e+18
14616.0	1.8968631777951741e+18
14617.0	1.8964287905071104e+18
14618.0	1.895986311567769e+18
14619.0	1.8955318385967104e+18
14620.0	1.8950025912516603e+18
14621.0	1.894690315252531e+18
14622.0	1.8942541328023547e+18
14623.0	1.8938202958069755e+18
14624.0	1.893362279487897e+18
14625.0	1.8929478033997821e+18
14626.0	1.892510391179673e+18
14627.0	1.8920704506331133e+18
14628.0	1.8916414354096125e+18
14629.0	1.8912049543249915e+18
14630.0	1.8907671344185336e+18
14631.0	1.8903304553627643e+18
14632.0	1.8891520908197888e+18
14633.0	1.889371100597452e+18
14634.0	1.8890160208871421e+18
14635.0	1.8885199387426808e+18
14636.0	1.8879582492950525e+18
14637.0	1.8877056565641213e+18
14638.0	1.8872648922562555e+18
14639.0	1.886823277343539e+18
14640.0	1.8863878263799805e+18
14641.0	1.883091155445348e+18
14642.0	1.8855086079868925e+18
14643.0	1.885070596820172e+18
14644.0	1.8846255258009597e+18
14645.0	1.8841809127997437e+18
14646.0	1.8837382392446973e+18
14647.0	1.8832953693962235e+18
14648.0	1.8828651428577277e+18
