# Flux units: erg / (cm m2 s)
# Wavelength units: Angstrom
wave	flux
14000.0	1.9645078003777533e+18
14001.0	1.9639347644989437e+18
14002.0	1.9635100241100792e+18
14003.0	1.9630535731052541e+18
14004.0	1.9625894582681597e+18
14005.0	1.9621100358991872e+18
14006.0	1.9616043504762875e+18
14007.0	1.9611118485897216e+18
14008.0	1.9603837291593725e+18
14009.0	1.960170656838451e+18
14010.0	1.959643773403136e+18
14011.0	1.9578554194853896e+18
14012.0	1.9587191474749437e+18
14013.0	1.9582503836712955e+18
14014.0	1.95774876001239e+18
14015.0	1.9572805817335803e+18
14016.0	1.9568056070045696e+18
14017.0	1.9563206397657083e+18
14018.0	1.955803857892147e+18
14019.0	1.9553614578057208e+18
14020.0	1.9548703786270717e+18
14021.0	1.9543926172024827e+18
14022.0	1.9539171995549693e+18
14023.0	1.9533873985617912e+18
14024.0	1.9529145075630077e+18
14025.0	1.9524736929234944e+18
14026.0	1.9519910963052544e+18
14027.0	1.9515016059289592e+18
14028.0	1.9510180546871293e+18
14029.0	1.9505111126507515e+18
14030.0	1.9490677033271299e+18
14031.0	1.9495388192964605e+18
14032.0	1.949113464861491e+18
14033.0	1.9485088525844477e+18
14034.0	1.9481586718212093e+18
14035.0	1.9476679667744765e+18
14036.0	1.947193126263193e+18
14037.0	1.946701798781747e+18
14038.0	1.9462370262777853e+18
14039.0	1.9457493260304381e+18
14040.0	1.9452467511033853e+18
14041.0	1.944800155035238e+18
14042.0	1.944306565985075e+18
14043.0	1.9437590566404093e+18
14044.0	1.943354609972019e+18
14045.0	1.942885114681753e+18
14046.0	1.9424058047201277e+18
14047.0	1.9419211780587515e+18
14048.0	1.941461987334553e+18
14049.0	1.940990109679616e+18
14050.0	1.9405092075601915e+18
14051.0	1.9400021296283645e+18
14052.0	1.9395466164699133e+18
14053.0	1.9390729990176765e+18
14054.0	1.9386085066932221e+18
14055.0	1.9380947799506936e+18
14056.0	1.937656782205747e+18
14057.0	1.9371635605766141e+18
14058.0	1.9366989340344317e+18
14059.0	1.9362255934062587e+18
14060.0	1.9357551451701245e+18
14061.0	1.93526057968599e+18
14062.0	1.9348050229067773e+18
14063.0	1.9342881168818173e+18
14064.0	1.9337322256400381e+18
14065.0	1.9333616857251837e+18
14066.0	1.9328898567241728e+18
14067.0	1.9323970964684797e+18
14068.0	1.9319593067610107e+18
14069.0	1.9314806460776445e+18
14070.0	1.9310114007678973e+18
14071.0	1.9305290876846075e+18
14072.0	1.9300607114346493e+18
14073.0	1.92958618969047e+18
14074.0	1.9291137097334784e+18
14075.0	1.928594938082099e+18
14076.0	1.9281311453675517e+18
14077.0	1.9274393301549056e+18
14078.0	1.927199818619289e+18
14079.0	1.9267255468556283e+18
14080.0	1.9262839571087355e+18
14081.0	1.9258081183531005e+18
14082.0	1.9252145756831741e+18
14083.0	1.9248526307360763e+18
14084.0	1.924395533808435e+18
14085.0	1.9231677905633277e+18
14086.0	1.9234254181367803e+18
14087.0	1.9229787784478712e+18
14088.0	1.9224777889677307e+18
14089.0	1.9219636344061947e+18
14090.0	1.9215548676046843e+18
14091.0	1.9210959771926525e+18
14092.0	1.920619544523571e+18
14093.0	1.9201523946881021e+18
14094.0	1.9196838305333245e+18
14095.0	1.9192152496013312e+18
14096.0	1.918688025588531e+18
14097.0	1.9181956830855165e+18
14098.0	1.917687925676441e+18
14099.0	1.9173250227503096e+18
14100.0	1.916823160854937e+18
14101.0	1.9163973215584253e+18
14102.0	1.915913449871769e+18
14103.0	1.9154256640606203e+18
14104.0	1.9149824301465597e+18
14105.0	1.9144314596622333e+18
14106.0	1.9140511017205755e+18
14107.0	1.913306444988415e+18
14108.0	1.9130767179251707e+18
14109.0	1.9126358781198333e+18
14110.0	1.9120732676030456e+18
14111.0	1.9114834729631736e+18
14112.0	1.911217028962713e+18
14113.0	1.9107428209524733e+18
14114.0	1.910244348054732e+18
14115.0	1.909829294830387e+18
14116.0	1.9090873274859517e+18
14117.0	1.9073248205471744e+18
14118.0	1.9084202335010816e+18
14119.0	1.9079301206900728e+18
14120.0	1.9074818888433661e+18
14121.0	1.906963855389491e+18
14122.0	1.9065527062233088e+18
14123.0	1.905929001474457e+18
14124.0	1.9055611341701115e+18
14125.0	1.9039982761017341e+18
14126.0	1.9046921934995453e+18
14127.0	1.9042451478020093e+18
14128.0	1.9037738506387456e+18
14129.0	1.9032792599887864e+18
14130.0	1.9027797469036541e+18
14131.0	1.9023770266107904e+18
14132.0	1.9018984967897088e+18
14133.0	1.900099480951189e+18
14134.0	1.900983423808307e+18
14135.0	1.900480860625305e+18
14136.0	1.899912094547968e+18
14137.0	1.899587400053555e+18
14138.0	1.899103862233497e+18
14139.0	1.8986618614448125e+18
14140.0	1.8980233340256253e+18
14141.0	1.8977375307956221e+18
14142.0	1.8970237542072317e+18
14143.0	1.8958335231393797e+18
14144.0	1.896347862250291e+18
14145.0	1.895884247374233e+18
14146.0	1.89541695661015e+18
14147.0	1.8949560596430845e+18
14148.0	1.894487183432089e+18
14149.0	1.8940191595036672e+18
14150.0	1.8935634651512827e+18
14151.0	1.8930795850760187e+18
14152.0	1.89264607355863e+18
14153.0	1.8921885353902075e+18
14154.0	1.8916573167222781e+18
14155.0	1.8898419665862666e+18
14156.0	1.890745137810636e+18
14157.0	1.8903349550120955e+18
14158.0	1.8898146985771005e+18
14159.0	1.889409513711206e+18
14160.0	1.8889560742166525e+18
14161.0	1.8883234322448384e+18
14162.0	1.8877648583262203e+18
14163.0	1.887573854755225e+18
14164.0	1.8870239496241147e+18
14165.0	1.8848394000728074e+18
14166.0	1.8861713197629435e+18
14167.0	1.8856967309099005e+18
14168.0	1.8852404661321725e+18
14169.0	1.8848125967925243e+18
14170.0	1.8843350702489597e+18
14171.0	1.8838666889658365e+18
14172.0	1.8834394739376125e+18
14173.0	1.8821792147701763e+18
14174.0	1.882502744925798e+18
14175.0	1.8820633429278715e+18
14176.0	1.8815702152511483e+18
14177.0	1.8811253287813115e+18
14178.0	1.8806634453139453e+18
14179.0	1.8800514779054077e+18
14180.0	1.8797721808797693e+18
14181.0	1.8793107470417915e+18
14182.0	1.878853546095411e+18
14183.0	1.878397360170598e+18
14184.0	1.8779229357342715e+18
14185.0	1.8774774922608635e+18
14186.0	1.8766600861646845e+18
14187.0	1.8765052559491064e+18
14188.0	1.876098386650726e+18
14189.0	1.8756283125465083e+18
14190.0	1.875194292679475e+18
14191.0	1.8747370565009405e+18
14192.0	1.8742584478269435e+18
14193.0	1.873776262250496e+18
14194.0	1.8733680356753405e+18
14195.0	1.872916179949977e+18
14196.0	1.8724577676886016e+18
14197.0	1.87200078652375e+18
14198.0	1.871536946832998e+18
14199.0	1.8710289360879613e+18
14200.0	1.8704581131239421e+18
14201.0	1.870181973570355e+18
14202.0	1.869722152022835e+18
14203.0	1.8690782676385787e+18
14204.0	1.868801267413811e+18
14205.0	1.8683560068120576e+18
14206.0	1.8675908130897917e+18
14207.0	1.867456177609113e+18
14208.0	1.8670009697959933e+18
14209.0	1.8661764149280763e+18
14210.0	1.8658858318692337e+18
14211.0	1.8656198324649981e+18
14212.0	1.8651811351101437e+18
14213.0	1.8646852190601213e+18
14214.0	1.8642737796481024e+18
14215.0	1.8637385025716221e+18
14216.0	1.863363610646937e+18
14217.0	1.8629121240203261e+18
14218.0	1.8624330355179517e+18
14219.0	1.8619857247404027e+18
14220.0	1.8615555770548221e+18
14221.0	1.8610999716216832e+18
14222.0	1.8605680130785275e+18
14223.0	1.8601914484654075e+18
14224.0	1.8597516555583483e+18
14225.0	1.8588137437528067e+18
14226.0	1.8588486772719608e+18
14227.0	1.8583938654011387e+18
14228.0	1.8568455565344768e+18
14229.0	1.8573071900213238e+18
14230.0	1.8570394843742203e+18
14231.0	1.8565267105775613e+18
14232.0	1.8561391635988477e+18
14233.0	1.8556624037740536e+18
14234.0	1.8552408091131904e+18
14235.0	1.8547802342686715e+18
14236.0	1.854303999570739e+18
14237.0	1.8538764557090813e+18
14238.0	1.8534266400931837e+18
14239.0	1.8529622769532923e+18
14240.0	1.8493467986493458e+18
14241.0	1.8520868317560827e+18
14242.0	1.8516394454810621e+18
14243.0	1.8507965682155525e+18
14244.0	1.850742832470425e+18
14245.0	1.8502374708477947e+18
14246.0	1.8497418299441147e+18
14247.0	1.849370478012006e+18
14248.0	1.8489124499488763e+18
14249.0	1.8484856744837115e+18
14250.0	1.8480440360828925e+18
14251.0	1.84759581933568e+18
14252.0	1.8471472519446523e+18
14253.0	1.846699796883046e+18
14254.0	1.846250489616793e+18
14255.0	1.8457384959606784e+18
14256.0	1.8451435842699261e+18
14257.0	1.844897576596275e+18
14258.0	1.8444657578999803e+18
14259.0	1.8439425771962365e+18
14260.0	1.8435615699763197e+18
14261.0	1.8430639845933059e+18
14262.0	1.8426745149456381e+18
14263.0	1.8418956276596736e+18
14264.0	1.841725783513497e+18
14265.0	1.8412835092561917e+18
14266.0	1.8408901909151741e+18
14267.0	1.8404301328089088e+18
14268.0	1.839986506307993e+18
14269.0	1.8395245037223933e+18
14270.0	1.8391086334476288e+18
14271.0	1.8386287295725568e+18
14272.0	1.8382121177448443e+18
14273.0	1.837769229441433e+18
14274.0	1.8368291768631296e+18
14275.0	1.8368398236844032e+18
14276.0	1.8362247290028032e+18
14277.0	1.8358765195624443e+18
14278.0	1.8355469781303296e+18
14279.0	1.8350967229513725e+18
14280.0	1.8346368611385341e+18
14281.0	1.8342141491150845e+18
14282.0	1.8337686251110397e+18
14283.0	1.8333254281068541e+18
14284.0	1.8328801473724416e+18
14285.0	1.8324377607077885e+18
14286.0	1.8319826149703675e+18
14287.0	1.8315304186675192e+18
14288.0	1.8311005176070141e+18
14289.0	1.8286114817179584e+18
14290.0	1.8301736603090936e+18
14291.0	1.8297653397815293e+18
14292.0	1.8293285701287933e+18
14293.0	1.8288896982908925e+18
14294.0	1.8280996021469181e+18
14295.0	1.8279512412258304e+18
14296.0	1.8258942421368845e+18
14297.0	1.8271211045781504e+18
14298.0	1.8262357138472955e+18
14299.0	1.8261885983916032e+18
14300.0	1.8257682821545981e+18
14301.0	1.8252305589600256e+18
14302.0	1.8248955263451133e+18
14303.0	1.8243661162610685e+18
14304.0	1.8239857079877627e+18
14305.0	1.8235576910086141e+18
14306.0	1.8227319114039293e+18
14307.0	1.822608553567846e+18
14308.0	1.822257460124057e+18
14309.0	1.821798814659379e+18
14310.0	1.8195591150436337e+18
14311.0	1.820539137661337e+18
14312.0	1.820393227891507e+18
14313.0	1.8199275460624381e+18
14314.0	1.8196121293684733e+18
14315.0	1.8191818877304832e+18
14316.0	1.8186101839626237e+18
14317.0	1.8175460152180733e+18
14318.0	1.8178543653486587e+18
14319.0	1.8174229191065597e+18
14320.0	1.8169869950255104e+18
14321.0	1.8165351443333117e+18
14322.0	1.8159923242205184e+18
14323.0	1.8156371958562808e+18
14324.0	1.8152222701387776e+18
14325.0	1.814768825611059e+18
14326.0	1.8143584649740285e+18
14327.0	1.813873818179993e+18
14328.0	1.813462177441382e+18
14329.0	1.813047768462131e+18
14330.0	1.812603251091046e+18
14331.0	1.8121491119865856e+18
14332.0	1.8117154041757693e+18
14333.0	1.8112914590269435e+18
14334.0	1.8108560432955387e+18
14335.0	1.810269468203417e+18
14336.0	1.8098648302747643e+18
14337.0	1.809533386306355e+18
14338.0	1.80910027744215e+18
14339.0	1.808636013287833e+18
14340.0	1.8082360125816827e+18
14341.0	1.8077881246679037e+18
14342.0	1.8073466003521533e+18
14343.0	1.806834534554009e+18
14344.0	1.8064270730199037e+18
14345.0	1.8060522834362365e+18
14346.0	1.805616689866342e+18
14347.0	1.8051446243065853e+18
14348.0	1.804707353015091e+18
14349.0	1.8043145916776443e+18
14350.0	1.803840091743846e+18
14351.0	1.8033940644233213e+18
14352.0	1.8029836115116032e+18
14353.0	1.8025727609798653e+18
14354.0	1.8021264065036288e+18
14355.0	1.801698525419929e+18
14356.0	1.8012682351280128e+18
14357.0	1.800838142807244e+18
14358.0	1.800403200193331e+18
14359.0	1.7999266718941181e+18
14360.0	1.7995349457108987e+18
14361.0	1.7991041923678203e+18
14362.0	1.7986669361758205e+18
14363.0	1.7982356728053755e+18
14364.0	1.7976531963871227e+18
14365.0	1.7973527953014781e+18
14366.0	1.7969102224097277e+18
14367.0	1.796497251237888e+18
14368.0	1.7960646926663675e+18
14369.0	1.7956387191521277e+18
14370.0	1.7952047395504123e+18
14371.0	1.7947726708735997e+18
14372.0	1.7943208805793787e+18
14373.0	1.793908541908582e+18
14374.0	1.7934578589106176e+18
14375.0	1.7930393495797752e+18
14376.0	1.7926081482850304e+18
14377.0	1.7921806899871741e+18
14378.0	1.7917415547469821e+18
14379.0	1.7913190373392381e+18
14380.0	1.7908768654229504e+18
14381.0	1.7904214126624765e+18
14382.0	1.7900121006014461e+18
14383.0	1.7894382023737341e+18
14384.0	1.7890950646857725e+18
14385.0	1.7887322976550912e+18
14386.0	1.7882504895660027e+18
14387.0	1.7878652930752507e+18
14388.0	1.7874273322401787e+18
14389.0	1.7870041856868347e+18
14390.0	1.786573796409344e+18
14391.0	1.786128366357708e+18
14392.0	1.7855410849447933e+18
14393.0	1.7852894669701117e+18
14394.0	1.7847608907137021e+18
14395.0	1.784127681671987e+18
14396.0	1.7839885196984315e+18
14397.0	1.7835740486434813e+18
14398.0	1.7829735719501821e+18
14399.0	1.7827060407861243e+18
14400.0	1.782000758502195e+18
14401.0	1.7818368887226368e+18
14402.0	1.7814097877794813e+18
14403.0	1.760378379829219e+18
14404.0	1.7322659180183478e+18
14405.0	1.7773230408335235e+18
14406.0	1.7797116717957117e+18
14407.0	1.7450500559470766e+18
14408.0	1.7787430157418488e+18
14409.0	1.7783503970107387e+18
14410.0	1.7779271632158715e+18
14411.0	1.777564035475046e+18
14412.0	1.7771345672667133e+18
14413.0	1.7767088957423608e+18
14414.0	1.776286312903475e+18
14415.0	1.775865599046451e+18
14416.0	1.7754253011451904e+18
14417.0	1.774912133083955e+18
14418.0	1.774402900957593e+18
14419.0	1.774159549117235e+18
14420.0	1.773720902094028e+18
14421.0	1.7733080500404221e+18
14422.0	1.7728676950966272e+18
14423.0	1.7724372772978685e+18
14424.0	1.6780394460348017e+18
14425.0	1.77158663218135e+18
14426.0	1.771170587423539e+18
14427.0	1.7707534789902333e+18
14428.0	1.7701390503641088e+18
14429.0	1.7698998391406587e+18
14430.0	1.7694821938364416e+18
14431.0	1.7688265922445312e+18
14432.0	1.768488806488473e+18
14433.0	1.7416564882014047e+18
14434.0	1.7677437756243963e+18
14435.0	1.7673026237628408e+18
14436.0	1.7669335870865403e+18
14437.0	1.76651010834432e+18
14438.0	1.7651573832286213e+18
14439.0	1.7654424818155512e+18
14440.0	1.7652379843297277e+18
14441.0	1.7647895662559227e+18
14442.0	1.76437054186455e+18
14443.0	1.7638534546456576e+18
14444.0	1.7635325501243387e+18
14445.0	1.7631133495721981e+18
14446.0	1.735367897749925e+18
14447.0	1.762233049048678e+18
14448.0	1.7618547446382587e+18
14449.0	1.7614329754943488e+18
14450.0	1.7609941959311357e+18
14451.0	1.7605743511339005e+18
14452.0	1.7601451110957056e+18
14453.0	1.7590979309600768e+18
14454.0	1.7592969859170304e+18
14455.0	1.7588714301554685e+18
14456.0	1.7583372704415736e+18
14457.0	1.757829049981337e+18
14458.0	1.7573204302233595e+18
14459.0	1.756860536533811e+18
14460.0	1.7567852588433405e+18
14461.0	1.7563202380365824e+18
14462.0	1.7556422321504253e+18
14463.0	1.7555117708410875e+18
14464.0	1.7551024755572733e+18
14465.0	1.754641133993984e+18
14466.0	1.7542269951279104e+18
14467.0	1.7533835608588288e+18
14468.0	1.7533728385400827e+18
14469.0	1.7529556713865213e+18
14470.0	1.7525050672414717e+18
14471.0	1.7520986106626043e+18
14472.0	1.751701524158873e+18
14473.0	1.7513185942700032e+18
14474.0	1.7508986051887104e+18
14475.0	1.7504563762298875e+18
14476.0	1.7481491281870858e+18
14477.0	1.7496393895641085e+18
14478.0	1.749212500013875e+18
14479.0	1.7487600168206333e+18
14480.0	1.7483483374944256e+18
14481.0	1.7479766248521725e+18
14482.0	1.7475452322971643e+18
14483.0	1.747093260809011e+18
14484.0	1.7467073613529085e+18
14485.0	1.7461839575121915e+18
14486.0	1.7451394147549187e+18
14487.0	1.7454641629364221e+18
14488.0	1.7449626349076477e+18
14489.0	1.7445985928085504e+18
14490.0	1.7440965698519035e+18
14491.0	1.7437925381767163e+18
14492.0	1.7433748442185725e+18
14493.0	1.742928449477017e+18
14494.0	1.7424901312872443e+18
14495.0	1.7421260036243453e+18
14496.0	1.741369757191373e+18
14497.0	1.7412873206628347e+18
14498.0	1.740863654015795e+18
14499.0	1.7404613212766205e+18
14500.0	1.7400440903696384e+18
14501.0	1.7386812804694016e+18
14502.0	1.737758288642049e+18
14503.0	1.7387077280727032e+18
14504.0	1.738358345904947e+18
14505.0	1.737058150252542e+18
14506.0	1.73548764177367e+18
14507.0	1.7365272335745024e+18
14508.0	1.7367189635989504e+18
14509.0	1.7363032225087488e+18
14510.0	1.7358852869586936e+18
14511.0	1.7354754749366272e+18
14512.0	1.7350139723120637e+18
14513.0	1.7346446537785341e+18
14514.0	1.7336556654166016e+18
14515.0	1.7337569561804797e+18
14516.0	1.7285617553506348e+18
14517.0	1.7329884120481784e+18
14518.0	1.7325703506690043e+18
14519.0	1.732156134627737e+18
14520.0	1.73174523208663e+18
14521.0	1.7312871788576768e+18
14522.0	1.7309091697262587e+18
14523.0	1.7284351947440102e+18
14524.0	1.7278764798967788e+18
14525.0	1.7296618709581821e+18
14526.0	1.7292498762203133e+18
14527.0	1.7284237459718144e+18
14528.0	1.7280122897825787e+18
14529.0	1.7279963463942141e+18
14530.0	1.7275571541114877e+18
14531.0	1.7271924560232443e+18
14532.0	1.7222398755471368e+18
14533.0	1.7263673995165693e+18
14534.0	1.7259613372022781e+18
14535.0	1.7255102851055613e+18
14536.0	1.725120476558131e+18
14537.0	1.724683243854233e+18
14538.0	1.724275047478067e+18
14539.0	1.7239000817336315e+18
14540.0	1.723488232957542e+18
14541.0	1.7230128102768635e+18
14542.0	1.7226539238162432e+18
14543.0	1.7208942304165875e+18
14544.0	1.7218381518209021e+18
14545.0	1.7213599072124925e+18
14546.0	1.652245197016252e+18
14547.0	1.6574765728792338e+18
14548.0	1.7201472148078587e+18
14549.0	1.7194876907028477e+18
14550.0	1.7193549158154237e+18
14551.0	1.718972346636697e+18
14552.0	1.7184709159157752e+18
14553.0	1.7180412329590781e+18
14554.0	1.7177398218850304e+18
14555.0	1.7173189402558461e+18
14556.0	1.7168633046237184e+18
14557.0	1.716511600489267e+18
14558.0	1.716101627405926e+18
14559.0	1.711882212946728e+18
14560.0	1.7150772089192438e+18
14561.0	1.714856989504307e+18
14562.0	1.7143807413846013e+18
14563.0	1.7140538205536253e+18
14564.0	1.7136177974870013e+18
14565.0	1.713239209541632e+18
14566.0	1.7128316205006843e+18
14567.0	1.712418377537945e+18
14568.0	1.7118417748230144e+18
14569.0	1.7116056304746493e+18
14570.0	1.7101241586810877e+18
14571.0	1.71077937439703e+18
14572.0	1.7102561064517627e+18
14573.0	1.7098474923229181e+18
14574.0	1.7094871646994432e+18
14575.0	1.7091471458959357e+18
14576.0	1.7087408067575805e+18
14577.0	1.708315217441587e+18
14578.0	1.7079300897374205e+18
14579.0	1.7075112264073216e+18
14580.0	1.707122432881459e+18
14581.0	1.7064510288297981e+18
14582.0	1.7063062699769853e+18
14583.0	1.7059023383691261e+18
14584.0	1.7054674611863552e+18
14585.0	1.705083925639987e+18
14586.0	1.7046721221623805e+18
14587.0	1.704228946968576e+18
14588.0	1.703850895894118e+18
14589.0	1.7034769988583421e+18
14590.0	1.7030889988947965e+18
14591.0	1.7026867416530941e+18
14592.0	1.70228696743936e+18
14593.0	1.7016210797363197e+18
14594.0	1.701514078008115e+18
14595.0	1.7011193386369021e+18
14596.0	1.7004762763362304e+18
14597.0	1.700242167064166e+18
14598.0	1.6999589156487163e+18
14599.0	1.6995848843952128e+18
14600.0	1.6991932454535165e+18
14601.0	1.6987996234448893e+18
14602.0	1.6982262570549243e+18
14603.0	1.6979786572234747e+18
14604.0	1.6975300713775104e+18
14605.0	1.697213278951833e+18
14606.0	1.6966493514235904e+18
14607.0	1.6964707831250941e+18
14608.0	1.6960267002839035e+18
14609.0	1.6953162556506112e+18
14610.0	1.6952328376549376e+18
14611.0	1.6949166760525821e+18
14612.0	1.694532055020339e+18
14613.0	1.6941535643828224e+18
14614.0	1.693755897387417e+18
14615.0	1.6933170003836928e+18
14616.0	1.692985145373491e+18
14617.0	1.692600494142259e+18
14618.0	1.6920409270124541e+18
14619.0	1.691764366350745e+18
14620.0	1.6911043590619133e+18
14621.0	1.6910557638557693e+18
14622.0	1.6906604758695933e+18
14623.0	1.6902801900699643e+18
14624.0	1.689744332501811e+18
14625.0	1.6894995495649277e+18
14626.0	1.6890302270799867e+18
14627.0	1.688613330039603e+18
14628.0	1.6883512766365693e+18
14629.0	1.6879650718351357e+18
14630.0	1.687575337107456e+18
14631.0	1.687136899799449e+18
14632.0	1.6745454297415754e+18
14633.0	1.6851368358707154e+18
14634.0	1.6859984633528315e+18
14635.0	1.6843936068796324e+18
14636.0	1.6807428343463926e+18
14637.0	1.6848805890621437e+18
14638.0	1.6844604691185661e+18
14639.0	1.6840849732141056e+18
14640.0	1.6837090494906365e+18
14641.0	1.6425560016158446e+18
14642.0	1.682936144959897e+18
14643.0	1.6825655530356739e+18
14644.0	1.682150233053593e+18
14645.0	1.6817320609447933e+18
14646.0	1.6813499497840635e+18
14647.0	1.6809792018317304e+18
