# Flux units: erg / (cm m2 s)
# Wavelength units: Angstrom
wave	flux
14000.0	2.0592682040557565e+18
14001.0	2.0587914626859005e+18
14002.0	2.058348618003251e+18
14003.0	2.057881552053862e+18
14004.0	2.057414494493081e+18
14005.0	2.0569473547239421e+18
14006.0	2.0564776933392381e+18
14007.0	2.0560098170503165e+18
14008.0	2.0555084433719293e+18
14009.0	2.055079819057561e+18
14010.0	2.0546081142079483e+18
14011.0	2.0539290077364221e+18
14012.0	2.053680558977843e+18
14013.0	2.0532144979836928e+18
14014.0	2.0527462173638653e+18
14015.0	2.0522816277315576e+18
14016.0	2.0518167797301243e+18
14017.0	2.0513511213891581e+18
14018.0	2.0508852835319803e+18
14019.0	2.0504201754836987e+18
14020.0	2.0499545775407101e+18
14021.0	2.0494891305926648e+18
14022.0	2.049016048333619e+18
14023.0	2.0485171660718077e+18
14024.0	2.0480720111665144e+18
14025.0	2.0476284702294008e+18
14026.0	2.047164929173094e+18
14027.0	2.046701312619315e+18
14028.0	2.0462370048442363e+18
14029.0	2.0457723028045824e+18
14030.0	2.0431215194538e+18
14031.0	2.0448188250980347e+18
14032.0	2.0443774786207744e+18
14033.0	2.043875509351219e+18
14034.0	2.0434451838271488e+18
14035.0	2.0429678669987835e+18
14036.0	2.042498510959411e+18
14037.0	2.042039041733427e+18
14038.0	2.0415787084808187e+18
14039.0	2.0411140836163576e+18
14040.0	2.0406486433791997e+18
14041.0	2.0401885282303997e+18
14042.0	2.0397234822578168e+18
14043.0	2.0392506013253627e+18
14044.0	2.0387989033058301e+18
14045.0	2.0383396253401088e+18
14046.0	2.037876448349388e+18
14047.0	2.037405491763609e+18
14048.0	2.0369503577702392e+18
14049.0	2.0364929152319488e+18
14050.0	2.0360314277068797e+18
14051.0	2.035566584738611e+18
14052.0	2.0351000657264637e+18
14053.0	2.034625324200755e+18
14054.0	2.0341643014045693e+18
14055.0	2.0337032668643325e+18
14056.0	2.033242356475494e+18
14057.0	2.0327815853375488e+18
14058.0	2.0323209266069501e+18
14059.0	2.03185737212887e+18
14060.0	2.0313998876475387e+18
14061.0	2.0309373414801405e+18
14062.0	2.0304795147436027e+18
14063.0	2.0300133648302077e+18
14064.0	2.029235568063283e+18
14065.0	2.029096716468224e+18
14066.0	2.0286398443552765e+18
14067.0	2.028127961428787e+18
14068.0	2.027721093808128e+18
14069.0	2.0272561266884605e+18
14070.0	2.0268013148176384e+18
14071.0	2.026342558623334e+18
14072.0	2.0258679630594045e+18
14073.0	2.0254041317572603e+18
14074.0	2.024945357108019e+18
14075.0	2.0244777173778427e+18
14076.0	2.0239705891143677e+18
14077.0	2.023046510123417e+18
14078.0	2.023072437633024e+18
14079.0	2.0226508798820347e+18
14080.0	2.0221955076521984e+18
14081.0	2.0217376507166715e+18
14082.0	2.0212747002183675e+18
14083.0	2.020821671765606e+18
14084.0	2.0203645630939133e+18
14085.0	2.019497961167257e+18
14086.0	2.0194091895619576e+18
14087.0	2.0189928210038776e+18
14088.0	2.018524661180006e+18
14089.0	2.0180331877367803e+18
14090.0	2.0176129537081336e+18
14091.0	2.01716539630551e+18
14092.0	2.0167089620779003e+18
14093.0	2.016252531205734e+18
14094.0	2.015792135877427e+18
14095.0	2.0153185234583547e+18
14096.0	2.0147540221493245e+18
14097.0	2.014373407516262e+18
14098.0	2.013901207738777e+18
14099.0	2.013494779681177e+18
14100.0	2.0130310473646077e+18
14101.0	2.012584077164544e+18
14102.0	2.012128565683814e+18
14103.0	2.01166850925527e+18
14104.0	2.0112183228628987e+18
14105.0	2.0107625345581056e+18
14106.0	2.0103083434442752e+18
14107.0	2.009851347179929e+18
14108.0	2.0093891214573563e+18
14109.0	2.0089420354945024e+18
14110.0	2.0084820814069755e+18
14111.0	2.008023279914188e+18
14112.0	2.0075754389766144e+18
14113.0	2.0070956978405368e+18
14114.0	2.0066659595190264e+18
14115.0	2.0062133622407163e+18
14116.0	2.0056411367014397e+18
14117.0	2.001764076434228e+18
14118.0	2.004857102165606e+18
14119.0	2.0043363776462843e+18
14120.0	2.0038741099806715e+18
14121.0	2.0034629608144896e+18
14122.0	2.0029466990346235e+18
14123.0	2.002478138235289e+18
14124.0	2.002009379464806e+18
14125.0	2.0014916329013243e+18
14126.0	2.0011896782454781e+18
14127.0	2.0007615555698683e+18
14128.0	2.0003089297702912e+18
14129.0	1.9998527639781373e+18
14130.0	1.999396957218406e+18
14131.0	1.9989487790587901e+18
14132.0	1.998498297387417e+18
14133.0	1.9978470259949563e+18
14134.0	1.9975980101664763e+18
14135.0	1.997124161188659e+18
14136.0	1.9964852881588221e+18
14137.0	1.9962377202040827e+18
14138.0	1.995742639659417e+18
14139.0	1.9953416910405624e+18
14140.0	1.994880735353241e+18
14141.0	1.9944273109581821e+18
14142.0	1.9936662242983933e+18
14143.0	1.9935286192504824e+18
14144.0	1.993088921973555e+18
14145.0	1.9926388211449853e+18
14146.0	1.992183519379456e+18
14147.0	1.991716335989555e+18
14148.0	1.9912499763609592e+18
14149.0	1.990794229999206e+18
14150.0	1.990368556797132e+18
14151.0	1.9898839737565181e+18
14152.0	1.9894695580663803e+18
14153.0	1.9890201165824e+18
14154.0	1.988561023166054e+18
14155.0	1.9876220627845123e+18
14156.0	1.9876282971979766e+18
14157.0	1.9872228153753597e+18
14158.0	1.9867700872347645e+18
14159.0	1.9863261604216827e+18
14160.0	1.9858763766824955e+18
14161.0	1.9853875087409147e+18
14162.0	1.9849191878557693e+18
14163.0	1.984509842240307e+18
14164.0	1.9839378180276221e+18
14165.0	1.9835108949229565e+18
14166.0	1.9831657339027456e+18
14167.0	1.982713738926489e+18
14168.0	1.9822508689588221e+18
14169.0	1.9818214359826427e+18
14170.0	1.9813636830658555e+18
14171.0	1.9809261399834621e+18
14172.0	1.98048276849623e+18
14173.0	1.9799865185796093e+18
14174.0	1.9795827463553021e+18
14175.0	1.9791415877828605e+18
14176.0	1.978689815943577e+18
14177.0	1.9782470098485243e+18
14178.0	1.9777964879118333e+18
14179.0	1.9773255883685883e+18
14180.0	1.9768896156336125e+18
14181.0	1.9764434792611837e+18
14182.0	1.9759971767943165e+18
14183.0	1.975551537027481e+18
14184.0	1.9751037648764928e+18
14185.0	1.974659635059097e+18
14186.0	1.9735392961953787e+18
14187.0	1.973758933440921e+18
14188.0	1.9733232593403901e+18
14189.0	1.9728713650274301e+18
14190.0	1.9724280874926077e+18
14191.0	1.9719799059775483e+18
14192.0	1.9715402925867005e+18
14193.0	1.970982822608896e+18
14194.0	1.9706473554640893e+18
14195.0	1.9702097838604283e+18
14196.0	1.9697653218541563e+18
14197.0	1.9693210628521981e+18
14198.0	1.9688750690861053e+18
14199.0	1.9684310248325115e+18
14200.0	1.9675801632899072e+18
14201.0	1.9675330864218107e+18
14202.0	1.967100769442201e+18
14203.0	1.9666463870681088e+18
14204.0	1.9662086577586173e+18
14205.0	1.965769686935142e+18
14206.0	1.9652805623021565e+18
14207.0	1.96488448746455e+18
14208.0	1.9644417468006397e+18
14209.0	1.9639474933727227e+18
14210.0	1.9635225902448635e+18
14211.0	1.96311147127767e+18
14212.0	1.962670485510553e+18
14213.0	1.962217524166656e+18
14214.0	1.961785757479731e+18
14215.0	1.9613179516551165e+18
14216.0	1.9608817272619003e+18
14217.0	1.960439830491955e+18
14218.0	1.9599932713336832e+18
14219.0	1.9595560671510525e+18
14220.0	1.9591110967951355e+18
14221.0	1.9586602443472893e+18
14222.0	1.9581447929069565e+18
14223.0	1.9577868694585341e+18
14224.0	1.957348569723699e+18
14225.0	1.955747191167386e+18
14226.0	1.9564646738427901e+18
14227.0	1.9560256191332347e+18
14228.0	1.9529049898483717e+18
14229.0	1.954720814779594e+18
14230.0	1.954703772483584e+18
14231.0	1.9541784140972027e+18
14232.0	1.9538230726623227e+18
14233.0	1.953380236368281e+18
14234.0	1.9529428174372861e+18
14235.0	1.9525019273003005e+18
14236.0	1.9520627115294712e+18
14237.0	1.9516210345410555e+18
14238.0	1.9511815721451517e+18
14239.0	1.9507327631622141e+18
14240.0	1.949769257713664e+18
14241.0	1.9498548735246333e+18
14242.0	1.9494219659870203e+18
14243.0	1.9489288550875136e+18
14244.0	1.9485480693268477e+18
14245.0	1.9481013692399616e+18
14246.0	1.947659022840627e+18
14247.0	1.9472298230677501e+18
14248.0	1.9467880085061627e+18
14249.0	1.9463540993687547e+18
14250.0	1.9459156956151808e+18
14251.0	1.9454784562003965e+18
14252.0	1.9450403376594944e+18
14253.0	1.9446020849008637e+18
14254.0	1.9441634949201917e+18
14255.0	1.943703785780019e+18
14256.0	1.942093872653927e+18
14257.0	1.9428078824456187e+18
14258.0	1.9423943106494461e+18
14259.0	1.9419469814169597e+18
14260.0	1.941485668374937e+18
14261.0	1.9410746282606587e+18
14262.0	1.940655494817382e+18
14263.0	1.938500614094849e+18
14264.0	1.9395139579412475e+18
14265.0	1.9393349836341243e+18
14266.0	1.9389091929915387e+18
14267.0	1.9384727471390715e+18
14268.0	1.9380353936392187e+18
14269.0	1.937599394060697e+18
14270.0	1.937164134357401e+18
14271.0	1.9367264503463933e+18
14272.0	1.9362913231831037e+18
14273.0	1.9358546088951805e+18
14274.0	1.9328964652695565e+18
14275.0	1.9347544664440827e+18
14276.0	1.9345365320859643e+18
14277.0	1.9341050824884221e+18
14278.0	1.9336789781118973e+18
14279.0	1.933243619423027e+18
14280.0	1.9328060343975936e+18
14281.0	1.932373953976729e+18
14282.0	1.9319392495992827e+18
14283.0	1.9315045116674043e+18
14284.0	1.9310698307780603e+18
14285.0	1.9306347019370493e+18
14286.0	1.930196029748019e+18
14287.0	1.92976651288576e+18
14288.0	1.929332454431129e+18
14289.0	1.9285558018703347e+18
14290.0	1.9284623175450621e+18
14291.0	1.928030309266227e+18
14292.0	1.927596943710617e+18
14293.0	1.9271624960245755e+18
14294.0	1.926676277205401e+18
14295.0	1.9262902569533437e+18
14296.0	1.9255849327263744e+18
14297.0	1.9254299179614203e+18
14298.0	1.9245863226310653e+18
14299.0	1.9245460338245627e+18
14300.0	1.9241287693631483e+18
14301.0	1.9236963148103677e+18
14302.0	1.9232651068047355e+18
14303.0	1.9228178362925053e+18
14304.0	1.9223792664444925e+18
14305.0	1.921946088793702e+18
14306.0	1.921469436343091e+18
14307.0	1.921057777149542e+18
14308.0	1.920638544720691e+18
14309.0	1.9201927959019515e+18
14310.0	1.9195832007917563e+18
14311.0	1.9188208105422845e+18
14312.0	1.9187997601693696e+18
14313.0	1.918437253185536e+18
14314.0	1.918034086618726e+18
14315.0	1.917621917397811e+18
14316.0	1.9171778026799096e+18
14317.0	1.9167014455083003e+18
14318.0	1.916337477228953e+18
14319.0	1.9159075979788283e+18
14320.0	1.915476908389171e+18
14321.0	1.9150466969501693e+18
14322.0	1.9146003206635517e+18
14323.0	1.914179737668812e+18
14324.0	1.9137528850284536e+18
14325.0	1.9133218498281472e+18
14326.0	1.912895784039219e+18
14327.0	1.9124631633919997e+18
14328.0	1.912033589487206e+18
14329.0	1.911606211719987e+18
14330.0	1.911176517019238e+18
14331.0	1.9107372744048635e+18
14332.0	1.9103174799392768e+18
14333.0	1.9098881342046205e+18
14334.0	1.909458869000601e+18
14335.0	1.9090229583413243e+18
14336.0	1.908471655668121e+18
14337.0	1.9081714106105853e+18
14338.0	1.907741997767065e+18
14339.0	1.907304481528217e+18
14340.0	1.9068848732897275e+18
14341.0	1.9064463638396928e+18
14342.0	1.906028742023577e+18
14343.0	1.9055958713958397e+18
14344.0	1.9051674903511037e+18
14345.0	1.9047436978749435e+18
14346.0	1.9043105453899773e+18
14347.0	1.903827230706892e+18
14348.0	1.9034574692548605e+18
14349.0	1.9030323899662333e+18
14350.0	1.9025078033317883e+18
14351.0	1.9020708189306875e+18
14352.0	1.9017471830786043e+18
14353.0	1.9013227765563387e+18
14354.0	1.90088389632983e+18
14355.0	1.9004330942136315e+18
14356.0	1.9000167491436541e+18
14357.0	1.8996151411802112e+18
14358.0	1.8991883489378304e+18
14359.0	1.898751347759513e+18
14360.0	1.898305654305587e+18
14361.0	1.897860256130662e+18
14362.0	1.8974368730185725e+18
14363.0	1.897010325723545e+18
14364.0	1.8962527304024061e+18
14365.0	1.896106964916633e+18
14366.0	1.8956786795020288e+18
14367.0	1.895306777277235e+18
14368.0	1.8948807634976765e+18
14369.0	1.8944552345796605e+18
14370.0	1.8940298902110205e+18
14371.0	1.8936048478322683e+18
14372.0	1.8931759919923197e+18
14373.0	1.8927525182832637e+18
14374.0	1.892328754328371e+18
14375.0	1.891903267353395e+18
14376.0	1.8914786544713725e+18
14377.0	1.8910534946521083e+18
14378.0	1.8906278684262397e+18
14379.0	1.890204129637171e+18
14380.0	1.8897792013434877e+18
14381.0	1.8893501928308733e+18
14382.0	1.8889298145181693e+18
14383.0	1.8884989252796413e+18
14384.0	1.8880737486831613e+18
14385.0	1.8876576804372475e+18
14386.0	1.887227740789145e+18
14387.0	1.8868095334481912e+18
14388.0	1.886384850101862e+18
14389.0	1.885961856221184e+18
14390.0	1.885537479897907e+18
14391.0	1.8851108252286973e+18
14392.0	1.8846888732131325e+18
14393.0	1.8842678506553341e+18
14394.0	1.8838297455362043e+18
14395.0	1.8833792823197693e+18
14396.0	1.8829962165354496e+18
14397.0	1.8825754305363965e+18
14398.0	1.8821509367726077e+18
14399.0	1.8817278036410365e+18
14400.0	1.8812809659809787e+18
14401.0	1.8808812085444603e+18
14402.0	1.8804612127522816e+18
14403.0	1.878341891339056e+18
14404.0	1.8750342749487094e+18
14405.0	1.8786421263302638e+18
14406.0	1.8787723561140221e+18
14407.0	1.87584342833234e+18
14408.0	1.8778674836799488e+18
14409.0	1.8774997539487744e+18
14410.0	1.8770609760632827e+18
14411.0	1.8766608243621883e+18
14412.0	1.8762407715274747e+18
14413.0	1.8758206012522493e+18
14414.0	1.875398181152358e+18
14415.0	1.8749773062340605e+18
14416.0	1.8745389091913725e+18
14417.0	1.8740760509677563e+18
14418.0	1.8736581489721341e+18
14419.0	1.8732924727721981e+18
14420.0	1.8728704033161216e+18
14421.0	1.8724511809535997e+18
14422.0	1.8720285075177472e+18
14423.0	1.8715955311935483e+18
14424.0	1.8610028533514176e+18
14425.0	1.870746496689766e+18
14426.0	1.870330577761075e+18
14427.0	1.8699108487266304e+18
14428.0	1.869481053362585e+18
14429.0	1.869069224719155e+18
14430.0	1.868650666734387e+18
14431.0	1.8676981453291515e+18
14432.0	1.8678030062845947e+18
14433.0	1.8655266669068275e+18
14434.0	1.8669647997960187e+18
14435.0	1.8664728331026427e+18
14436.0	1.8661323797692413e+18
14437.0	1.8657134929510397e+18
14438.0	1.8651949830242304e+18
14439.0	1.8648601701908475e+18
14440.0	1.8644557520437243e+18
14441.0	1.8640346690879483e+18
14442.0	1.8636138981883904e+18
14443.0	1.863180534310502e+18
14444.0	1.8627787501862912e+18
14445.0	1.8623616602079227e+18
14446.0	1.8598662355550216e+18
14447.0	1.8615188332740603e+18
14448.0	1.8610667074355192e+18
14449.0	1.860630582027878e+18
14450.0	1.8602100007108605e+18
14451.0	1.859793553299865e+18
14452.0	1.8593744047570941e+18
14453.0	1.8589223779041277e+18
14454.0	1.8585389010780155e+18
14455.0	1.8581195344314368e+18
14456.0	1.857691252372275e+18
14457.0	1.857272140739379e+18
14458.0	1.8568507692154875e+18
14459.0	1.856439885129318e+18
14460.0	1.856014770608537e+18
14461.0	1.855517764039475e+18
14462.0	1.854702131295027e+18
14463.0	1.8547373382828024e+18
14464.0	1.8543527323500536e+18
14465.0	1.8539351055007744e+18
14466.0	1.8535288569593853e+18
14467.0	1.8530837926510587e+18
14468.0	1.852694623315558e+18
14469.0	1.8522317449592824e+18
14470.0	1.8518528952893437e+18
14471.0	1.8514429406609405e+18
14472.0	1.8510288672260093e+18
14473.0	1.8506158775992317e+18
14474.0	1.85020047205335e+18
14475.0	1.84978154496983e+18
14476.0	1.84924593234903e+18
14477.0	1.8489501382868987e+18
14478.0	1.8485363970408445e+18
14479.0	1.8481164398362621e+18
14480.0	1.8476977157570555e+18
14481.0	1.847289747551027e+18
14482.0	1.846872821989376e+18
14483.0	1.8464543663456253e+18
14484.0	1.8460407005970427e+18
14485.0	1.8456128044138493e+18
14486.0	1.845098062649753e+18
14487.0	1.8447912291794936e+18
14488.0	1.8442723484762112e+18
14489.0	1.8439125996666877e+18
14490.0	1.8435415379804155e+18
14491.0	1.8431375006760955e+18
14492.0	1.8427208787820541e+18
14493.0	1.8422970561069056e+18
14494.0	1.84188132172759e+18
14495.0	1.841478772562329e+18
14496.0	1.8410120639676416e+18
14497.0	1.840649763343564e+18
14498.0	1.840235228535193e+18
14499.0	1.8398091543576576e+18
14500.0	1.8393738862657536e+18
14501.0	1.8388954336198656e+18
14502.0	1.8383484661792765e+18
14503.0	1.8380821966618621e+18
14504.0	1.8376976544825336e+18
14505.0	1.8372328266137597e+18
14506.0	1.836754117276467e+18
14507.0	1.8363634128257021e+18
14508.0	1.8360442715897853e+18
14509.0	1.8356305353768955e+18
14510.0	1.8352157153558525e+18
14511.0	1.834803136770867e+18
14512.0	1.83438321647616e+18
14513.0	1.8339760468656125e+18
14514.0	1.8335441627381755e+18
14515.0	1.8331482506395643e+18
14516.0	1.8318857768796165e+18
14517.0	1.832322424058675e+18
14518.0	1.8319093136359421e+18
14519.0	1.8314962132795387e+18
14520.0	1.831083081046425e+18
14521.0	1.830669141829222e+18
14522.0	1.8302482115461115e+18
14523.0	1.8296568851464187e+18
14524.0	1.8292999398096893e+18
14525.0	1.8290159787180032e+18
14526.0	1.8286037021229053e+18
14527.0	1.8281829647777784e+18
14528.0	1.8277082819723261e+18
14529.0	1.8273630521655293e+18
14530.0	1.8269472775208955e+18
14531.0	1.8265411732635645e+18
14532.0	1.825949039879782e+18
14533.0	1.825716603296153e+18
14534.0	1.8253049441026043e+18
14535.0	1.824887948076646e+18
14536.0	1.8244800587235323e+18
14537.0	1.8240629888778237e+18
14538.0	1.8236555474763776e+18
14539.0	1.8232435762266107e+18
14540.0	1.8228314153943037e+18
14541.0	1.8224109229965307e+18
14542.0	1.8220071759380475e+18
14543.0	1.821512707761766e+18
14544.0	1.8211829448703997e+18
14545.0	1.820765713963417e+18
14546.0	1.8089303846420413e+18
14547.0	1.809744941966942e+18
14548.0	1.8195301693128696e+18
14549.0	1.8190771878363133e+18
14550.0	1.8187095000481787e+18
14551.0	1.8183003909914621e+18
14552.0	1.8178876513452027e+18
14553.0	1.8174736802512896e+18
14554.0	1.817065257382707e+18
14555.0	1.8166531166830587e+18
14556.0	1.8162384493346813e+18
14557.0	1.8158298905706493e+18
14558.0	1.8154170670383104e+18
14559.0	1.814296330554571e+18
14560.0	1.814513493160755e+18
14561.0	1.8141803328831485e+18
14562.0	1.8137499285061632e+18
14563.0	1.813358878444748e+18
14564.0	1.812891487017369e+18
14565.0	1.8125385531129853e+18
14566.0	1.8121271690657787e+18
14567.0	1.8117126107693053e+18
14568.0	1.8111901380640768e+18
14569.0	1.8108887269900288e+18
14570.0	1.8102278892290043e+18
14571.0	1.8100684670894077e+18
14572.0	1.8095894406627325e+18
14573.0	1.8092149430026237e+18
14574.0	1.8086876535586813e+18
14575.0	1.8084074102980605e+18
14576.0	1.8079952024895485e+18
14577.0	1.8076005637816315e+18
14578.0	1.8071898759888893e+18
14579.0	1.8067803374354427e+18
14580.0	1.8063683192094717e+18
14581.0	1.8059501588447227e+18
14582.0	1.805539120408166e+18
14583.0	1.8051359152537597e+18
14584.0	1.8047016672165885e+18
14585.0	1.804313925622169e+18
14586.0	1.8039015366197243e+18
14587.0	1.8034891929157627e+18
14588.0	1.803080766691737e+18
14589.0	1.8026832892788733e+18
14590.0	1.8022870080815104e+18
14591.0	1.8018831368716288e+18
14592.0	1.801454905144115e+18
14593.0	1.801013352307097e+18
14594.0	1.800663132956262e+18
14595.0	1.8002638268268541e+18
14596.0	1.7995952178593784e+18
14597.0	1.799149469040639e+18
14598.0	1.7990484030914552e+18
14599.0	1.798677633328742e+18
14600.0	1.7982702372257787e+18
14601.0	1.7978787425681403e+18
14602.0	1.797454268937011e+18
14603.0	1.79708209659904e+18
14604.0	1.7966440317452285e+18
14605.0	1.7962157983399928e+18
14606.0	1.7958509626785787e+18
14607.0	1.7954965205024765e+18
14608.0	1.7950996806238205e+18
14609.0	1.7946854410944512e+18
14610.0	1.7941725985112061e+18
14611.0	1.7938875888435197e+18
14612.0	1.793510514203033e+18
14613.0	1.793115991257907e+18
14614.0	1.7927178377232381e+18
14615.0	1.7923096749015035e+18
14616.0	1.791924062335795e+18
14617.0	1.791526009464422e+18
14618.0	1.7910759354793981e+18
14619.0	1.7905480856764408e+18
14620.0	1.7895618739437568e+18
14621.0	1.7899330732031997e+18
14622.0	1.789533559036313e+18
14623.0	1.789136259461939e+18
14624.0	1.788714597692211e+18
14625.0	1.7883374425210875e+18
14626.0	1.7879367069728763e+18
14627.0	1.787533439742771e+18
14628.0	1.7871418729431035e+18
14629.0	1.7867424913162235e+18
14630.0	1.7863359911165947e+18
14631.0	1.7859428371922941e+18
14632.0	1.784725861564416e+18
14633.0	1.7850162181308413e+18
14634.0	1.784732735189811e+18
14635.0	1.7837644918554596e+18
14636.0	1.7823074996977654e+18
14637.0	1.7835445207433213e+18
14638.0	1.7831264761413627e+18
14639.0	1.7827250812485624e+18
14640.0	1.7823412470677504e+18
14641.0	1.7787876968234982e+18
14642.0	1.7815367862714365e+18
14643.0	1.7811307893882875e+18
14644.0	1.7807214722940925e+18
14645.0	1.7803177185247227e+18
14646.0	1.7798634502356987e+18
14647.0	1.7794485631057917e+18
14648.0	1.7791108864016381e+18
