# Flux units: erg / (cm m2 s)
# Wavelength units: Angstrom
wave	flux
14000.0	2.0363189891891192e+18
14001.0	2.0358516967473147e+18
14002.0	2.035537274942259e+18
14003.0	2.0351390828199933e+18
14004.0	2.0347404712673275e+18
14005.0	2.0343417858949115e+18
14006.0	2.0339362319302656e+18
14007.0	2.0335356423438333e+18
14008.0	2.033053275573453e+18
14009.0	2.0327443902496765e+18
14010.0	2.0323350597337083e+18
14011.0	2.0313739081285627e+18
14012.0	2.0315507852836861e+18
14013.0	2.0311556902354944e+18
14014.0	2.0307525119246333e+18
14015.0	2.0303583161352187e+18
14016.0	2.029962927485747e+18
14017.0	2.0295655306035197e+18
14018.0	2.0291680280248315e+18
14019.0	2.0287707854929917e+18
14020.0	2.0283727963750397e+18
14021.0	2.0279750102614016e+18
14022.0	2.0275785428369405e+18
14023.0	2.0271716181737472e+18
14024.0	2.0267724529729533e+18
14025.0	2.0263884392759293e+18
14026.0	2.0259901045473272e+18
14027.0	2.02559527625687e+18
14028.0	2.0251925240872955e+18
14029.0	2.0247986420318208e+18
14030.0	2.0242044886712315e+18
14031.0	2.023986086228787e+18
14032.0	2.0236120751079421e+18
14033.0	2.0231774646829053e+18
14034.0	2.02282128942039e+18
14035.0	2.0224259544580093e+18
14036.0	2.0220302973730816e+18
14037.0	2.0216346771980283e+18
14038.0	2.021239134198169e+18
14039.0	2.0208394589700093e+18
14040.0	2.0204427600199675e+18
14041.0	2.0200507066810363e+18
14042.0	2.0196473438207997e+18
14043.0	2.0192255126011901e+18
14044.0	2.01885679133655e+18
14045.0	2.0184703516540925e+18
14046.0	2.018073068856934e+18
14047.0	2.0176766635081725e+18
14048.0	2.01728767033344e+18
14049.0	2.016894009737216e+18
14050.0	2.0164995354460155e+18
14051.0	2.016096900716953e+18
14052.0	2.015706608985702e+18
14053.0	2.0153165504577533e+18
14054.0	2.0149226935681021e+18
14055.0	2.0145286873612283e+18
14056.0	2.0141347616849917e+18
14057.0	2.013740978615091e+18
14058.0	2.0133472391659515e+18
14059.0	2.012953625545932e+18
14060.0	2.012560062257561e+18
14061.0	2.0121603484418043e+18
14062.0	2.011773101775257e+18
14063.0	2.011364954053017e+18
14064.0	2.0109521909186555e+18
14065.0	2.0105857060569083e+18
14066.0	2.0102007226367992e+18
14067.0	2.0098078858018816e+18
14068.0	2.009415057355571e+18
14069.0	2.0090213934039037e+18
14070.0	2.0086295799791608e+18
14071.0	2.0082345050636288e+18
14072.0	2.0078447015493627e+18
14073.0	2.0074523613200381e+18
14074.0	2.007060168730214e+18
14075.0	2.0066508851904512e+18
14076.0	2.006274010198835e+18
14077.0	2.005838628021862e+18
14078.0	2.0054883365289981e+18
14079.0	2.0050903776100347e+18
14080.0	2.0047084543541243e+18
14081.0	2.0043168540000248e+18
14082.0	2.0039230910627835e+18
14083.0	2.0035322641383421e+18
14084.0	2.00314119562199e+18
14085.0	2.0025158383173632e+18
14086.0	2.0023535422406656e+18
14087.0	2.0019687064600573e+18
14088.0	2.0015672595578875e+18
14089.0	2.0011871499190272e+18
14090.0	2.0007958632988664e+18
14091.0	2.0004057863159803e+18
14092.0	2.0000152244715515e+18
14093.0	1.9996246978592765e+18
14094.0	1.9992342232563707e+18
14095.0	1.9988436614119421e+18
14096.0	1.9984433436164093e+18
14097.0	1.998048483449241e+18
14098.0	1.9976692831354877e+18
14099.0	1.9972831857082368e+18
14100.0	1.9968822052126715e+18
14101.0	1.9965037850394621e+18
14102.0	1.996113860729241e+18
14103.0	1.9957108099252221e+18
14104.0	1.99533208272896e+18
14105.0	1.9949453091799037e+18
14106.0	1.9945560777687037e+18
14107.0	1.994166187012915e+18
14108.0	1.9937660889989112e+18
14109.0	1.9933839342174205e+18
14110.0	1.992996461058457e+18
14111.0	1.992599461796249e+18
14112.0	1.9922136260935677e+18
14113.0	1.991832912474931e+18
14114.0	1.991431200492748e+18
14115.0	1.9910539731795963e+18
14116.0	1.990652126979686e+18
14117.0	1.9899258681425915e+18
14118.0	1.9898886395002877e+18
14119.0	1.9894915093757947e+18
14120.0	1.9891094837788672e+18
14121.0	1.988714517915238e+18
14122.0	1.988333000667955e+18
14123.0	1.9879453765140477e+18
14124.0	1.9875544959025152e+18
14125.0	1.986730026598399e+18
14126.0	1.986784847829401e+18
14127.0	1.986399862731571e+18
14128.0	1.9860116077543421e+18
14129.0	1.9856139474698237e+18
14130.0	1.9852171814109181e+18
14131.0	1.9848509733732352e+18
14132.0	1.9844552307245048e+18
14133.0	1.983556480296549e+18
14134.0	1.9836865439858688e+18
14135.0	1.9832908214697981e+18
14136.0	1.9829121295056893e+18
14137.0	1.9825295569715197e+18
14138.0	1.9821407533793275e+18
14139.0	1.9817572966858747e+18
14140.0	1.98136696972247e+18
14141.0	1.980980545139507e+18
14142.0	1.9805740130631677e+18
14143.0	1.9802094542258173e+18
14144.0	1.9798275074818043e+18
14145.0	1.9794417808310272e+18
14146.0	1.9790544385343488e+18
14147.0	1.9786696312750077e+18
14148.0	1.9782844901490683e+18
14149.0	1.977899523506176e+18
14150.0	1.9775140468359165e+18
14151.0	1.977126424359731e+18
14152.0	1.9767436219777024e+18
14153.0	1.9763583382454272e+18
14154.0	1.975948121892454e+18
14155.0	1.9755798049587197e+18
14156.0	1.975202198480486e+18
14157.0	1.974818652867788e+18
14158.0	1.9744300489244672e+18
14159.0	1.9740492648415232e+18
14160.0	1.9736571980808187e+18
14161.0	1.9732229802426365e+18
14162.0	1.9727934986125307e+18
14163.0	1.9725088362332155e+18
14164.0	1.97210653369303e+18
14165.0	1.971692619641651e+18
14166.0	1.9713566693130237e+18
14167.0	1.97096127898583e+18
14168.0	1.9705907524927483e+18
14169.0	1.9702083007545341e+18
14170.0	1.9698220020006907e+18
14171.0	1.9694383674687483e+18
14172.0	1.9690574374240253e+18
14173.0	1.9686388576288768e+18
14174.0	1.968285581469286e+18
14175.0	1.96790778373079e+18
14176.0	1.9675248018325501e+18
14177.0	1.9671418199343096e+18
14178.0	1.966758034407424e+18
14179.0	1.966369209004851e+18
14180.0	1.9659933339353083e+18
14181.0	1.96561068925911e+18
14182.0	1.9652273651056635e+18
14183.0	1.9648455626457088e+18
14184.0	1.964458171695104e+18
14185.0	1.9640801776631803e+18
14186.0	1.9636143146401795e+18
14187.0	1.96329107137495e+18
14188.0	1.9629302723117048e+18
14189.0	1.9625514545184763e+18
14190.0	1.9621697728544765e+18
14191.0	1.9617878999302141e+18
14192.0	1.9613987960258555e+18
14193.0	1.9610146883764224e+18
14194.0	1.9606425428819965e+18
14195.0	1.9602625288732664e+18
14196.0	1.95988093445079e+18
14197.0	1.9594996638285821e+18
14198.0	1.959113732495769e+18
14199.0	1.9587354465402877e+18
14200.0	1.9583171251142653e+18
14201.0	1.957973130110566e+18
14202.0	1.9575946327621632e+18
14203.0	1.9572065824669693e+18
14204.0	1.9568302711898112e+18
14205.0	1.956449386443571e+18
14206.0	1.9559504655941627e+18
14207.0	1.9556901670879232e+18
14208.0	1.9552128603258875e+18
14209.0	1.9546974525063158e+18
14210.0	1.9543557442371581e+18
14211.0	1.9540614349586432e+18
14212.0	1.9536857058508797e+18
14213.0	1.953306431717376e+18
14214.0	1.9529255754924027e+18
14215.0	1.952535142832537e+18
14216.0	1.952166695036518e+18
14217.0	1.9517868437667837e+18
14218.0	1.9513950706073597e+18
14219.0	1.9510272150470648e+18
14220.0	1.9506477446201341e+18
14221.0	1.9502677423554552e+18
14222.0	1.949878591474892e+18
14223.0	1.9495090682593277e+18
14224.0	1.9491297421164544e+18
14225.0	1.948632545964851e+18
14226.0	1.9482750687903741e+18
14227.0	1.9478877181050877e+18
14228.0	1.9472186662191101e+18
14229.0	1.9470774070935547e+18
14230.0	1.9467503654666235e+18
14231.0	1.9463691250434043e+18
14232.0	1.9459925704966141e+18
14233.0	1.945610281497395e+18
14234.0	1.9452349214883835e+18
14235.0	1.9448537817284603e+18
14236.0	1.9444773966315517e+18
14237.0	1.944097456442572e+18
14238.0	1.94371931644887e+18
14239.0	1.943333539466444e+18
14240.0	1.9414778300596227e+18
14241.0	1.9425771185504256e+18
14242.0	1.9422036526891005e+18
14243.0	1.941678977135411e+18
14244.0	1.941450461387161e+18
14245.0	1.9410520931041277e+18
14246.0	1.940503842206515e+18
14247.0	1.9401358121631741e+18
14248.0	1.9397477383798781e+18
14249.0	1.9393828020551675e+18
14250.0	1.9390048533217277e+18
14251.0	1.9386295168008187e+18
14252.0	1.9382517408727037e+18
14253.0	1.9378733341212672e+18
14254.0	1.9374941975609341e+18
14255.0	1.937087190689382e+18
14256.0	1.9366146553675779e+18
14257.0	1.9363512815976445e+18
14258.0	1.935987078437273e+18
14259.0	1.93559054558167e+18
14260.0	1.9352260135878653e+18
14261.0	1.934835525563187e+18
14262.0	1.934503428961075e+18
14263.0	1.933938766590771e+18
14264.0	1.9336992030457853e+18
14265.0	1.9333689049612283e+18
14266.0	1.932997995947622e+18
14267.0	1.9326218071441403e+18
14268.0	1.932225405150822e+18
14269.0	1.9317541616746493e+18
14270.0	1.931386606426521e+18
14271.0	1.9310093589807104e+18
14272.0	1.930633091324313e+18
14273.0	1.9302533692391421e+18
14274.0	1.9295861242593277e+18
14275.0	1.9294722052849661e+18
14276.0	1.9291130436780027e+18
14277.0	1.9287401700524032e+18
14278.0	1.9283762235834363e+18
14279.0	1.9279994509328381e+18
14280.0	1.9276179018088443e+18
14281.0	1.927249157056102e+18
14282.0	1.9268738238906365e+18
14283.0	1.926498237389209e+18
14284.0	1.9261226911531005e+18
14285.0	1.9257471063293947e+18
14286.0	1.925371341989478e+18
14287.0	1.9249959685586944e+18
14288.0	1.9246175483854843e+18
14289.0	1.9232916399718382e+18
14290.0	1.923866761258598e+18
14291.0	1.9234944865796096e+18
14292.0	1.9231208294580224e+18
14293.0	1.9227433739747325e+18
14294.0	1.9221326480801787e+18
14295.0	1.9218734837137403e+18
14296.0	1.9207455263162368e+18
14297.0	1.9211321287376893e+18
14298.0	1.920615986076057e+18
14299.0	1.920377289913139e+18
14300.0	1.9200081039196155e+18
14301.0	1.9196370657214461e+18
14302.0	1.9192647339999227e+18
14303.0	1.9188569671204861e+18
14304.0	1.91850102170583e+18
14305.0	1.9181418701651965e+18
14306.0	1.917757530990182e+18
14307.0	1.9173884137832445e+18
14308.0	1.917019346907955e+18
14309.0	1.916642458494566e+18
14310.0	1.9162166930178045e+18
14311.0	1.9158698156883965e+18
14312.0	1.9154946133852155e+18
14313.0	1.915062685637017e+18
14314.0	1.9147750889226235e+18
14315.0	1.9144023981686781e+18
14316.0	1.913979721377382e+18
14317.0	1.913650866133401e+18
14318.0	1.9132837672255483e+18
14319.0	1.9129112375328765e+18
14320.0	1.912537563634073e+18
14321.0	1.912138041078579e+18
14322.0	1.9116487973273592e+18
14323.0	1.9112951151591421e+18
14324.0	1.9109412333420541e+18
14325.0	1.9105580299845627e+18
14326.0	1.9101949794189312e+18
14327.0	1.9098150744621053e+18
14328.0	1.909442420618035e+18
14329.0	1.9090757730172925e+18
14330.0	1.908702855770931e+18
14331.0	1.9083296918994941e+18
14332.0	1.907957116908339e+18
14333.0	1.907584419443507e+18
14334.0	1.9072117286895616e+18
14335.0	1.906827641172787e+18
14336.0	1.906451942264012e+18
14337.0	1.9060909418741755e+18
14338.0	1.9057186101526525e+18
14339.0	1.9053375760891904e+18
14340.0	1.9049768860778493e+18
14341.0	1.9046040946606077e+18
14342.0	1.9042302496342016e+18
14343.0	1.9038575723020283e+18
14344.0	1.9034835527925752e+18
14345.0	1.9031166870880253e+18
14346.0	1.9027422884134912e+18
14347.0	1.9023626133045243e+18
14348.0	1.9020008076083197e+18
14349.0	1.9016297593438208e+18
14350.0	1.9012481967980544e+18
14351.0	1.9008704946896896e+18
14352.0	1.9005060935581693e+18
14353.0	1.90012296569815e+18
14354.0	1.8996684675612664e+18
14355.0	1.8992951476617208e+18
14356.0	1.8989244802400253e+18
14357.0	1.8985559888232443e+18
14358.0	1.8981845446164477e+18
14359.0	1.8977973818359803e+18
14360.0	1.8974406546030587e+18
14361.0	1.8970702505836541e+18
14362.0	1.8966994640437243e+18
14363.0	1.8963279409840125e+18
14364.0	1.8959251821035517e+18
14365.0	1.8955786688397307e+18
14366.0	1.895209737859891e+18
14367.0	1.8948445783982075e+18
14368.0	1.8944733120299005e+18
14369.0	1.8941031177256955e+18
14370.0	1.8937324754698237e+18
14371.0	1.8933619238109181e+18
14372.0	1.8929860168646653e+18
14373.0	1.8926205436690427e+18
14374.0	1.8922500540858365e+18
14375.0	1.8918783951306747e+18
14376.0	1.8915095815913472e+18
14377.0	1.8911386356678656e+18
14378.0	1.890766350922547e+18
14379.0	1.8903987419873275e+18
14380.0	1.8900276803010555e+18
14381.0	1.889646312370995e+18
14382.0	1.8892868454187005e+18
14383.0	1.8889146093273088e+18
14384.0	1.888529444713267e+18
14385.0	1.8881786717143037e+18
14386.0	1.8877904100261883e+18
14387.0	1.887438764611993e+18
14388.0	1.8870674042912765e+18
14389.0	1.8866992232529915e+18
14390.0	1.8862788516511741e+18
14391.0	1.885860010131456e+18
14392.0	1.8854890474307581e+18
14393.0	1.8851205778243584e+18
14394.0	1.8847123076284413e+18
14395.0	1.8843705523830784e+18
14396.0	1.8840114461409277e+18
14397.0	1.8836418457501693e+18
14398.0	1.8832717051330552e+18
14399.0	1.882902366466867e+18
14400.0	1.8825144671666173e+18
14401.0	1.8821557434449915e+18
14402.0	1.8817874919423997e+18
14403.0	1.8805528952045553e+18
14404.0	1.8771291435696105e+18
14405.0	1.8791252010991572e+18
14406.0	1.8803063120723963e+18
14407.0	1.8787387328954368e+18
14408.0	1.8795600984145915e+18
14409.0	1.8791902245552128e+18
14410.0	1.8788387251027965e+18
14411.0	1.8784723811696637e+18
14412.0	1.878101363104153e+18
14413.0	1.8777364536229888e+18
14414.0	1.8773652996620283e+18
14415.0	1.876997865209856e+18
14416.0	1.8766301505781755e+18
14417.0	1.876258536921497e+18
14418.0	1.875885203600179e+18
14419.0	1.875522886198886e+18
14420.0	1.8751505276338173e+18
14421.0	1.8747859889291261e+18
14422.0	1.8744109913079803e+18
14423.0	1.87401833063383e+18
14424.0	1.8687661778665444e+18
14425.0	1.8732795861925883e+18
14426.0	1.8729429513535483e+18
14427.0	1.8725785284116475e+18
14428.0	1.8721881863487483e+18
14429.0	1.8718398527569915e+18
14430.0	1.8714760119844856e+18
14431.0	1.8709958765838333e+18
14432.0	1.8706338796273656e+18
14433.0	1.8693538686435318e+18
14434.0	1.8698862969487355e+18
14435.0	1.869522779976499e+18
14436.0	1.8691709550460925e+18
14437.0	1.8688032823574525e+18
14438.0	1.868410197219737e+18
14439.0	1.8680591725625344e+18
14440.0	1.867699435497062e+18
14441.0	1.8673250619883517e+18
14442.0	1.8669519853584381e+18
14443.0	1.86654438457344e+18
14444.0	1.8662238558617597e+18
14445.0	1.8658580924203003e+18
14446.0	1.863906756237722e+18
14447.0	1.865103617661337e+18
14448.0	1.8647593827434493e+18
14449.0	1.8643932535586816e+18
14450.0	1.8640201635069947e+18
14451.0	1.8636546483683325e+18
14452.0	1.8632893664329725e+18
14453.0	1.8629098356080637e+18
14454.0	1.8625566534008827e+18
14455.0	1.8621807984639997e+18
14456.0	1.8618190967865344e+18
14457.0	1.861450618791526e+18
14458.0	1.8610868669382653e+18
14459.0	1.8607177564422141e+18
14460.0	1.8603505216389117e+18
14461.0	1.8599647849218045e+18
14462.0	1.8595973185929216e+18
14463.0	1.8592455406387192e+18
14464.0	1.8588849059921915e+18
14465.0	1.858496624171417e+18
14466.0	1.858149676377702e+18
14467.0	1.8577569553055741e+18
14468.0	1.8574140222996477e+18
14469.0	1.8570312467611643e+18
14470.0	1.8566563095379963e+18
14471.0	1.8563099724349437e+18
14472.0	1.8559474352521216e+18
14473.0	1.8555859013468155e+18
14474.0	1.8552217367740408e+18
14475.0	1.854852589368115e+18
14476.0	1.8544316976726016e+18
14477.0	1.8541231965470715e+18
14478.0	1.8537150958010368e+18
14479.0	1.8532905080848381e+18
14480.0	1.8528920122949627e+18
14481.0	1.852462846076518e+18
14482.0	1.8520922625409021e+18
14483.0	1.8517188956651517e+18
14484.0	1.8513507246931965e+18
14485.0	1.8509547991728128e+18
14486.0	1.8503208401895424e+18
14487.0	1.8502624789659645e+18
14488.0	1.8498947945332733e+18
14489.0	1.8495268651532288e+18
14490.0	1.8491624371781627e+18
14491.0	1.8487978078765053e+18
14492.0	1.8484334788870141e+18
14493.0	1.8480599022960635e+18
14494.0	1.8476791685447677e+18
14495.0	1.847332906939187e+18
14496.0	1.8468291492184061e+18
14497.0	1.8466009522372605e+18
14498.0	1.8462367172001787e+18
14499.0	1.8458708581285883e+18
14500.0	1.8455042021392381e+18
14501.0	1.8451046510624765e+18
14502.0	1.8445454630977536e+18
14503.0	1.8443874854764541e+18
14504.0	1.844033875450265e+18
14505.0	1.843646246263193e+18
14506.0	1.8432527047852027e+18
14507.0	1.8426879719505912e+18
14508.0	1.842576195426713e+18
14509.0	1.8422116802101245e+18
14510.0	1.841842762652057e+18
14511.0	1.841479666787942e+18
14512.0	1.8410980186783741e+18
14513.0	1.8407474738495483e+18
14514.0	1.8403477231239165e+18
14515.0	1.8400107460296704e+18
14516.0	1.8372200054652943e+18
14517.0	1.8392692232814587e+18
14518.0	1.8389185559789563e+18
14519.0	1.8385543427522555e+18
14520.0	1.8381890356510715e+18
14521.0	1.8378229869969403e+18
14522.0	1.8374569920299003e+18
14523.0	1.837029523665715e+18
14524.0	1.836662639506227e+18
14525.0	1.8363542860201981e+18
14526.0	1.835992032372326e+18
14527.0	1.8356066194554875e+18
14528.0	1.8351287070359547e+18
14529.0	1.834885700806246e+18
14530.0	1.8345127634272253e+18
14531.0	1.8341634164916221e+18
14532.0	1.833719773213491e+18
14533.0	1.8334334146576381e+18
14534.0	1.8329956585046013e+18
14535.0	1.832598491470233e+18
14536.0	1.8322402307997693e+18
14537.0	1.8317780386316285e+18
14538.0	1.8314203416756221e+18
14539.0	1.8310545983668221e+18
14540.0	1.830688598366617e+18
14541.0	1.8302979023044605e+18
14542.0	1.8299534543159293e+18
14543.0	1.8295397231362045e+18
14544.0	1.829220803359539e+18
14545.0	1.8288422674235387e+18
14546.0	1.82251093869199e+18
14547.0	1.8226158734671828e+18
14548.0	1.8277347882958845e+18
14549.0	1.827265960738816e+18
14550.0	1.8270173928620032e+18
14551.0	1.826662980884889e+18
14552.0	1.82629646246871e+18
14553.0	1.825924130747187e+18
14554.0	1.8255660797919227e+18
14555.0	1.8251997392142333e+18
14556.0	1.8248323215392765e+18
14557.0	1.8244669808836603e+18
14558.0	1.8240951273127933e+18
14559.0	1.8219446136995807e+18
14560.0	1.8233613573160955e+18
14561.0	1.8229956156850176e+18
14562.0	1.8226122948870144e+18
14563.0	1.8222707258687485e+18
14564.0	1.8219014878658555e+18
14565.0	1.8215396217716733e+18
14566.0	1.8211735060086781e+18
14567.0	1.8208068080762877e+18
14568.0	1.8204332314853376e+18
14569.0	1.8200720180248576e+18
14570.0	1.8192102177374203e+18
14571.0	1.8193371004665853e+18
14572.0	1.818936883334348e+18
14573.0	1.8185591845814272e+18
14574.0	1.818234282049536e+18
14575.0	1.8178748838838272e+18
14576.0	1.8175087899312125e+18
14577.0	1.817136927971737e+18
14578.0	1.8167760383115261e+18
14579.0	1.8164119341367293e+18
14580.0	1.8160457210658808e+18
14581.0	1.8156760032346112e+18
14582.0	1.815312620480102e+18
14583.0	1.814946320167731e+18
14584.0	1.81456914654167e+18
14585.0	1.8142131642171387e+18
14586.0	1.8138432500924413e+18
14587.0	1.813479082164224e+18
14588.0	1.8131135905136635e+18
14589.0	1.8127519676891133e+18
14590.0	1.8123903297650685e+18
14591.0	1.8120279603544061e+18
14592.0	1.8116594337054715e+18
14593.0	1.8111815867170813e+18
14594.0	1.8109410903588861e+18
14595.0	1.8105711275802624e+18
14596.0	1.8101859294117885e+18
14597.0	1.8098209159118843e+18
14598.0	1.809488993792819e+18
14599.0	1.809131290125926e+18
14600.0	1.8087686891896827e+18
14601.0	1.80839852843991e+18
14602.0	1.8079542811820027e+18
14603.0	1.807592302680473e+18
14604.0	1.8071865910099963e+18
14605.0	1.8068611717398525e+18
14606.0	1.8064326447333376e+18
14607.0	1.806133272091033e+18
14608.0	1.8057752630788093e+18
14609.0	1.8054103519199227e+18
14610.0	1.8050458786463736e+18
14611.0	1.804684072950169e+18
14612.0	1.8043254264037376e+18
14613.0	1.8039628556664827e+18
14614.0	1.8035958020571133e+18
14615.0	1.8032357864898555e+18
14616.0	1.8028726218391547e+18
14617.0	1.8025085881286653e+18
14618.0	1.8021445829394427e+18
14619.0	1.8017568564445174e+18
14620.0	1.8013395986939904e+18
14621.0	1.801053154574336e+18
14622.0	1.8006860640550907e+18
14623.0	1.800324892537651e+18
14624.0	1.7998996639318016e+18
14625.0	1.7995922600361981e+18
14626.0	1.7992305935908867e+18
14627.0	1.798862716220211e+18
14628.0	1.798503581456793e+18
14629.0	1.79813905114071e+18
14630.0	1.7977736047886333e+18
14631.0	1.7974083765403643e+18
14632.0	1.796643031823155e+18
14633.0	1.7966244275683323e+18
14634.0	1.7963120156737533e+18
14635.0	1.7959387628830717e+18
14636.0	1.7955535496151035e+18
14637.0	1.7952189364305917e+18
14638.0	1.794851543921459e+18
14639.0	1.7944763751727104e+18
14640.0	1.7941107073613821e+18
14641.0	1.792202913087487e+18
14642.0	1.7933770799710205e+18
14643.0	1.7930227418136568e+18
14644.0	1.792645564832153e+18
14645.0	1.7922676664303613e+18
14646.0	1.791917628273459e+18
14647.0	1.791549079814144e+18
14648.0	1.7911904248791037e+18
