# Flux units: erg / (cm m2 s)
# Wavelength units: Angstrom
wave	flux
14000.0	2.3594702733311995e+18
14001.0	2.3588899376857083e+18
14002.0	2.358387453355622e+18
14003.0	2.357826136362188e+18
14004.0	2.3572522213572603e+18
14005.0	2.3566940182151163e+18
14006.0	2.356115856896819e+18
14007.0	2.355541604669849e+18
14008.0	2.354815376031744e+18
14009.0	2.3544257973321723e+18
14010.0	2.353833479399014e+18
14011.0	2.352379485329818e+18
14012.0	2.3527214570012667e+18
14013.0	2.352162141529702e+18
14014.0	2.3515835070939126e+18
14015.0	2.3510268591996923e+18
14016.0	2.3504534676439035e+18
14017.0	2.3498580761247744e+18
14018.0	2.3492922997473275e+18
14019.0	2.3487303603191803e+18
14020.0	2.348162053937561e+18
14021.0	2.3475978814619643e+18
14022.0	2.3469988425760763e+18
14023.0	2.346243002151731e+18
14024.0	2.345802041550438e+18
14025.0	2.3453334354526203e+18
14026.0	2.3447754084712443e+18
14027.0	2.344211294715904e+18
14028.0	2.343639164806758e+18
14029.0	2.3430773679849467e+18
14030.0	2.3325117836689495e+18
14031.0	2.341869572849663e+18
14032.0	2.3413765324144635e+18
14033.0	2.3406416182116347e+18
14034.0	2.3402253603831803e+18
14035.0	2.3396602517389307e+18
14036.0	2.339072824364237e+18
14037.0	2.338521838780415e+18
14038.0	2.3379802803142656e+18
14039.0	2.3374158696022016e+18
14040.0	2.3368417230716923e+18
14041.0	2.3362943227789307e+18
14042.0	2.3357180925181947e+18
14043.0	2.3351086937014267e+18
14044.0	2.334595767232102e+18
14045.0	2.3340441088819195e+18
14046.0	2.3334772805730304e+18
14047.0	2.3328705459781627e+18
14048.0	2.3323488131481595e+18
14049.0	2.3318076338470907e+18
14050.0	2.3312485582897147e+18
14051.0	2.330664041761997e+18
14052.0	2.33011470705623e+18
14053.0	2.3295672631427067e+18
14054.0	2.328978751959859e+18
14055.0	2.328405763057254e+18
14056.0	2.327853279268045e+18
14057.0	2.327291042883174e+18
14058.0	2.3267350778216443e+18
14059.0	2.3261614178304e+18
14060.0	2.325617725302374e+18
14061.0	2.3250490481442806e+18
14062.0	2.3245018575667195e+18
14063.0	2.3239150224277494e+18
14064.0	2.3220912182525957e+18
14065.0	2.322815217198694e+18
14066.0	2.322265117451878e+18
14067.0	2.321377859416883e+18
14068.0	2.3211527276331e+18
14069.0	2.320563739977318e+18
14070.0	2.3200348936077307e+18
14071.0	2.319479608023449e+18
14072.0	2.318924711670579e+18
14073.0	2.318365104275455e+18
14074.0	2.3178154776461307e+18
14075.0	2.3172141570588667e+18
14076.0	2.316339715139174e+18
14077.0	2.313562909730407e+18
14078.0	2.3153511562739707e+18
14079.0	2.314977676990873e+18
14080.0	2.314443302528614e+18
14081.0	2.313888156195225e+18
14082.0	2.313292321757593e+18
14083.0	2.3127718539296763e+18
14084.0	2.312221779348685e+18
14085.0	2.30952019291013e+18
14086.0	2.310907687128268e+18
14087.0	2.3105596504932347e+18
14088.0	2.3099509982625787e+18
14089.0	2.3091498090233856e+18
14090.0	2.3088491596349435e+18
14091.0	2.308343657083699e+18
14092.0	2.3077881097748475e+18
14093.0	2.307237604019405e+18
14094.0	2.3066840146116603e+18
14095.0	2.3061289639084027e+18
14096.0	2.3050331348795392e+18
14097.0	2.304778617801932e+18
14098.0	2.3042010050985976e+18
14099.0	2.3039185388568573e+18
14100.0	2.3033171880706045e+18
14101.0	2.3028035838017533e+18
14102.0	2.3022244410163195e+18
14103.0	2.301657005372211e+18
14104.0	2.3011198928683005e+18
14105.0	2.3005650585911296e+18
14106.0	2.300021040585113e+18
14107.0	2.2994474812571643e+18
14108.0	2.2988647515029501e+18
14109.0	2.298356430379417e+18
14110.0	2.2977647382364155e+18
14111.0	2.297170425492275e+18
14112.0	2.2966808042536955e+18
14113.0	2.295956602303283e+18
14114.0	2.2955636262174715e+18
14115.0	2.2950236146106365e+18
14116.0	2.2937623454547958e+18
14117.0	2.2786131066093627e+18
14118.0	2.293390644556595e+18
14119.0	2.2925413684609014e+18
14120.0	2.2920174596259832e+18
14121.0	2.291671221508505e+18
14122.0	2.2909484590432248e+18
14123.0	2.290109963986534e+18
14124.0	2.2894848247857152e+18
14125.0	2.2887700096876536e+18
14126.0	2.2888661666234365e+18
14127.0	2.2884642717695995e+18
14128.0	2.2879233843920893e+18
14129.0	2.2873205437890557e+18
14130.0	2.2867529521168376e+18
14131.0	2.2862180760158205e+18
14132.0	2.285686125861273e+18
14133.0	2.284236604597859e+18
14134.0	2.2846060489605112e+18
14135.0	2.2839299909091318e+18
14136.0	2.2822841510526984e+18
14137.0	2.2829292501073915e+18
14138.0	2.282161494504243e+18
14139.0	2.281871983509504e+18
14140.0	2.281251951293235e+18
14141.0	2.2806885086265336e+18
14142.0	2.2786109691920392e+18
14143.0	2.279590253612236e+18
14144.0	2.2791459744776187e+18
14145.0	2.2786008961515517e+18
14146.0	2.2780272311271421e+18
14147.0	2.2774890297819133e+18
14148.0	2.2768635382595581e+18
14149.0	2.2762644456865787e+18
14150.0	2.275876143733145e+18
14151.0	2.2751104215285755e+18
14152.0	2.2747876446699515e+18
14153.0	2.2742469737185277e+18
14154.0	2.2736550617939965e+18
14155.0	2.2710612169588746e+18
14156.0	2.272498551252581e+18
14157.0	2.2720637009133565e+18
14158.0	2.271491124730265e+18
14159.0	2.2709848202280957e+18
14160.0	2.2704244427587584e+18
14161.0	2.269746849592115e+18
14162.0	2.269134409066086e+18
14163.0	2.2687683822223352e+18
14164.0	2.267604004844338e+18
14165.0	2.2669426620891136e+18
14166.0	2.2671334291013627e+18
14167.0	2.266579437040435e+18
14168.0	2.265939149691289e+18
14169.0	2.2655093828485117e+18
14170.0	2.2649065120464893e+18
14171.0	2.2644089082085373e+18
14172.0	2.26390167257088e+18
14173.0	2.2630218652975104e+18
14174.0	2.2627836841951224e+18
14175.0	2.2622698064576504e+18
14176.0	2.261691678693785e+18
14177.0	2.261185048713625e+18
14178.0	2.2606484781137917e+18
14179.0	2.260045843870515e+18
14180.0	2.2595774525210621e+18
14181.0	2.259035736349081e+18
14182.0	2.2584964428070912e+18
14183.0	2.257957858941337e+18
14184.0	2.257408926888755e+18
14185.0	2.2568716399017984e+18
14186.0	2.253052773086005e+18
14187.0	2.255749532719513e+18
14188.0	2.2552520798765056e+18
14189.0	2.2546824480948221e+18
14190.0	2.254156916903116e+18
14191.0	2.2536030926143483e+18
14192.0	2.253088271997337e+18
14193.0	2.2519972781621248e+18
14194.0	2.251997184209715e+18
14195.0	2.251493738545152e+18
14196.0	2.2509487608823805e+18
14197.0	2.250380785011916e+18
14198.0	2.2498378105487357e+18
14199.0	2.2492873500917757e+18
14200.0	2.2468610207252493e+18
14201.0	2.2481993073688568e+18
14202.0	2.2476923636547576e+18
14203.0	2.2470802116968443e+18
14204.0	2.2465894345080827e+18
14205.0	2.2460821049180155e+18
14206.0	2.2453364751073277e+18
14207.0	2.2450152081981432e+18
14208.0	2.2444796777857021e+18
14209.0	2.243699699980697e+18
14210.0	2.2432649318498294e+18
14211.0	2.2428600221302776e+18
14212.0	2.2423357760733176e+18
14213.0	2.2417327895085053e+18
14214.0	2.241266129567744e+18
14215.0	2.2407014755860475e+18
14216.0	2.2401949194256381e+18
14217.0	2.239663601772134e+18
14218.0	2.2391065193480187e+18
14219.0	2.2385908263157755e+18
14220.0	2.2380470733897723e+18
14221.0	2.2374548359872502e+18
14222.0	2.2364640038092795e+18
14223.0	2.2364384336543736e+18
14224.0	2.2359233949335547e+18
14225.0	2.2303820197396524e+18
14226.0	2.2348476012560384e+18
14227.0	2.2343220465762301e+18
14228.0	2.2234309255495724e+18
14229.0	2.2319233106968486e+18
14230.0	2.232725056939622e+18
14231.0	2.2316797944397824e+18
14232.0	2.2316623025143805e+18
14233.0	2.231114962619596e+18
14234.0	2.2305978720452603e+18
14235.0	2.2300617124872187e+18
14236.0	2.2295303193362427e+18
14237.0	2.2289605785026555e+18
14238.0	2.228425640325939e+18
14239.0	2.2278450094014461e+18
14240.0	2.2252134258966543e+18
14241.0	2.2267908751097853e+18
14242.0	2.226294261127577e+18
14243.0	2.2255158285041661e+18
14244.0	2.2252501428338683e+18
14245.0	2.2246842892812283e+18
14246.0	2.2241246030331901e+18
14247.0	2.223647942193971e+18
14248.0	2.2231056287531003e+18
14249.0	2.2225890347843581e+18
14250.0	2.222064226690662e+18
14251.0	2.22153391734784e+18
14252.0	2.22100899013591e+18
14253.0	2.2204718927314944e+18
14254.0	2.219945244177203e+18
14255.0	2.2193699886727165e+18
14256.0	2.2140658919669798e+18
14257.0	2.218279088789913e+18
14258.0	2.2178322058313723e+18
14259.0	2.2172314405699581e+18
14260.0	2.2166335660228608e+18
14261.0	2.2162034602803195e+18
14262.0	2.2157212210167805e+18
14263.0	2.2081948729999414e+18
14264.0	2.2136110163427323e+18
14265.0	2.2140628787789821e+18
14266.0	2.213611600189849e+18
14267.0	2.213085884448768e+18
14268.0	2.212550312093286e+18
14269.0	2.2120159695077368e+18
14270.0	2.2115046033195003e+18
14271.0	2.210963276378931e+18
14272.0	2.2104426021912573e+18
14273.0	2.2099137373667323e+18
14274.0	2.1993770299949133e+18
14275.0	2.207901622363751e+18
14276.0	2.20825922872279e+18
14277.0	2.2077712281632765e+18
14278.0	2.2072941143392248e+18
14279.0	2.2067676184576e+18
14280.0	2.206229546296934e+18
14281.0	2.205717527474995e+18
14282.0	2.205192543220531e+18
14283.0	2.2046670489387005e+18
14284.0	2.2041412560224253e+18
14285.0	2.2036094920949757e+18
14286.0	2.203038310098534e+18
14287.0	2.2025287977926653e+18
14288.0	2.2020055499800573e+18
14289.0	2.2000980425965524e+18
14290.0	2.2009407504121853e+18
14291.0	2.2004323974119421e+18
14292.0	2.199906292439449e+18
14293.0	2.1993828298784765e+18
14294.0	2.1986132036157437e+18
14295.0	2.1983012564500475e+18
14296.0	2.1966850787115016e+18
14297.0	2.1972903889207293e+18
14298.0	2.194740899689266e+18
14299.0	2.1961392168894461e+18
14300.0	2.1957058043576315e+18
14301.0	2.1951811808133115e+18
14302.0	2.1946672711991293e+18
14303.0	2.1940694050406395e+18
14304.0	2.193590920518041e+18
14305.0	2.193076123389132e+18
14306.0	2.1922784187777021e+18
14307.0	2.1918920294268923e+18
14308.0	2.1914222640234493e+18
14309.0	2.1907933096837117e+18
14310.0	2.1891140160585718e+18
14311.0	2.187969388819251e+18
14312.0	2.1886544361029627e+18
14313.0	2.1886130232229885e+18
14314.0	2.1882216527167483e+18
14315.0	2.1878060290670592e+18
14316.0	2.1872435494125568e+18
14317.0	2.1864322032467968e+18
14318.0	2.186310296639897e+18
14319.0	2.185798668727091e+18
14320.0	2.1852821838102523e+18
14321.0	2.1847570351390715e+18
14322.0	2.1841664838467581e+18
14323.0	2.183704716142182e+18
14324.0	2.1831854059421693e+18
14325.0	2.1826731438505976e+18
14326.0	2.1821748622131195e+18
14327.0	2.181641563170406e+18
14328.0	2.181122670723072e+18
14329.0	2.180619204925849e+18
14330.0	2.180098911580979e+18
14331.0	2.1795155644252157e+18
14332.0	2.179061299491635e+18
14333.0	2.1785448766504952e+18
14334.0	2.1780274773753853e+18
14335.0	2.1774770706055165e+18
14336.0	2.1763901771218947e+18
14337.0	2.1764658826313728e+18
14338.0	2.1759475270549501e+18
14339.0	2.1753840458006525e+18
14340.0	2.1749169127423995e+18
14341.0	2.1743268295344125e+18
14342.0	2.1738441356083192e+18
14343.0	2.1733022751522808e+18
14344.0	2.1727901892214781e+18
14345.0	2.1722985396174843e+18
14346.0	2.1717573284397053e+18
14347.0	2.1710239577407483e+18
14348.0	2.1707311668002816e+18
14349.0	2.1702363966341115e+18
14350.0	2.169280308392754e+18
14351.0	2.168729086250188e+18
14352.0	2.1686739831619581e+18
14353.0	2.1681751109664765e+18
14354.0	2.1676083128565763e+18
14355.0	2.1669919867273208e+18
14356.0	2.16652703638487e+18
14357.0	2.1661167512453115e+18
14358.0	2.165601784666521e+18
14359.0	2.1650559580766205e+18
14360.0	2.1645330827182077e+18
14361.0	2.164045744858726e+18
14362.0	2.163540948628275e+18
14363.0	2.1630269551280125e+18
14364.0	2.1608984616108037e+18
14365.0	2.1617875047415793e+18
14366.0	2.1612492564201467e+18
14367.0	2.1609712596287483e+18
14368.0	2.1604568836079616e+18
14369.0	2.1599464317779965e+18
14370.0	2.1594311078445053e+18
14371.0	2.1589231793078267e+18
14372.0	2.1583916771049462e+18
14373.0	2.1578913067040765e+18
14374.0	2.1573800378236928e+18
14375.0	2.156865722200883e+18
14376.0	2.1563550287790077e+18
14377.0	2.1558427264221181e+18
14378.0	2.1553264310878205e+18
14379.0	2.1548182022389752e+18
14380.0	2.15430500230103e+18
14381.0	2.1537694836326395e+18
14382.0	2.1532768257179643e+18
14383.0	2.1527135961219064e+18
14384.0	2.1522117476483067e+18
14385.0	2.151744119662182e+18
14386.0	2.1511975750074365e+18
14387.0	2.1507170470199293e+18
14388.0	2.150200055431168e+18
14389.0	2.1496963564306427e+18
14390.0	2.149181975376691e+18
14391.0	2.1486484330643453e+18
14392.0	2.1481462087811072e+18
14393.0	2.1476514587475968e+18
14394.0	2.147066266098073e+18
14395.0	2.1461526896443384e+18
14396.0	2.1460930902622203e+18
14397.0	2.1456080257155067e+18
14398.0	2.1450805819211773e+18
14399.0	2.144552218735411e+18
14400.0	2.1438040958304256e+18
14401.0	2.1435414250258427e+18
14402.0	2.1430463763578875e+18
14403.0	2.132711592846934e+18
14404.0	2.116921580113096e+18
14405.0	2.1394634827628462e+18
14406.0	2.1409817553797117e+18
14407.0	2.125135294024916e+18
14408.0	2.1396040993210365e+18
14409.0	2.139428710304972e+18
14410.0	2.138831778637414e+18
14411.0	2.1384117962670075e+18
14412.0	2.137914271281971e+18
14413.0	2.1374111359959035e+18
14414.0	2.1368996322344957e+18
14415.0	2.1363939585556477e+18
14416.0	2.135788789275033e+18
14417.0	2.135001310376755e+18
14418.0	2.1345795009675264e+18
14419.0	2.134356771681075e+18
14420.0	2.133841555121766e+18
14421.0	2.1333416595161083e+18
14422.0	2.132819020716441e+18
14423.0	2.1322291623231483e+18
14424.0	2.0781556415069906e+18
14425.0	2.1312762231652347e+18
14426.0	2.130802211448422e+18
14427.0	2.1302996600094717e+18
14428.0	2.129740467011584e+18
14429.0	2.1292830831935483e+18
14430.0	2.128780176077619e+18
14431.0	2.1258895959785487e+18
14432.0	2.1277077009334272e+18
14433.0	2.115731674523231e+18
14434.0	2.126719928919654e+18
14435.0	2.1258586671808502e+18
14436.0	2.1257372404023293e+18
14437.0	2.1252341051162621e+18
14438.0	2.12416365330432e+18
14439.0	2.124119396686233e+18
14440.0	2.123717013615411e+18
14441.0	2.1232045468418045e+18
14442.0	2.1226922058973181e+18
14443.0	2.1221202689261563e+18
14444.0	2.1216861131636733e+18
14445.0	2.1211882358571003e+18
14446.0	2.1084359058522166e+18
14447.0	2.120150679132569e+18
14448.0	2.1196720620699645e+18
14449.0	2.119165151910297e+18
14450.0	2.118651091301171e+18
14451.0	2.118149242827571e+18
14452.0	2.1176366200258555e+18
14453.0	2.116882638517043e+18
14454.0	2.1166247408304125e+18
14455.0	2.1161129266905083e+18
14456.0	2.1155437176946683e+18
14457.0	2.1150029544685565e+18
14458.0	2.1143883345821693e+18
14459.0	2.114001666729574e+18
14460.0	2.113452045133414e+18
14461.0	2.1124852815495163e+18
14462.0	2.1106479029288957e+18
14463.0	2.1117641565405181e+18
14464.0	2.1114829771112445e+18
14465.0	2.111011544052531e+18
14466.0	2.1105517610926077e+18
14467.0	2.1098729901654016e+18
14468.0	2.1095482403061755e+18
14469.0	2.1088675500654587e+18
14470.0	2.1085173323923453e+18
14471.0	2.1080453121310712e+18
14472.0	2.1075524126244861e+18
14473.0	2.107067567859302e+18
14474.0	2.106574012363571e+18
14475.0	2.1060573730963448e+18
14476.0	2.1047856735453187e+18
14477.0	2.1050569258958845e+18
14478.0	2.1045587969310715e+18
14479.0	2.1040370926223355e+18
14480.0	2.1035290617446397e+18
14481.0	2.10306327421911e+18
14482.0	2.1025548054560763e+18
14483.0	2.102008762440089e+18
14484.0	2.1015214531018747e+18
14485.0	2.100952851441254e+18
14486.0	2.1000172532137987e+18
14487.0	2.0999987127123963e+18
14488.0	2.098778884957799e+18
14489.0	2.0987544841748475e+18
14490.0	2.0984701506289656e+18
14491.0	2.0980200179236856e+18
14492.0	2.0975093496676352e+18
14493.0	2.0969550992375805e+18
14494.0	2.0964604599336955e+18
14495.0	2.0960158536433661e+18
14496.0	2.095284564996915e+18
14497.0	2.0950070396452861e+18
14498.0	2.0945042466144256e+18
14499.0	2.094009075472793e+18
14500.0	2.093508325906841e+18
14501.0	2.0926147881598973e+18
14502.0	2.0914668105105408e+18
14503.0	2.0918134277931e+18
14504.0	2.091494716053913e+18
14505.0	2.0906350783496182e+18
14506.0	2.0896645617025021e+18
14507.0	2.0895879233798144e+18
14508.0	2.0895054616854525e+18
14509.0	2.0890044571058173e+18
14510.0	2.0885025113243643e+18
14511.0	2.088006818411315e+18
14512.0	2.0874747122286587e+18
14513.0	2.0870056900558845e+18
14514.0	2.086403503764275e+18
14515.0	2.086000389206835e+18
14516.0	2.0821892046782492e+18
14517.0	2.0850069028732925e+18
14518.0	2.084507594470195e+18
14519.0	2.0840055782244347e+18
14520.0	2.0835080515616765e+18
14521.0	2.0830053541609472e+18
14522.0	2.0824527864856573e+18
14523.0	2.080797808079666e+18
14524.0	2.080585396781055e+18
14525.0	2.0810007855497216e+18
14526.0	2.08049897734144e+18
14527.0	2.07995232363479e+18
14528.0	2.079129538763161e+18
14529.0	2.0789958830718973e+18
14530.0	2.0784800239452152e+18
14531.0	2.078011434624614e+18
14532.0	2.0762588564422648e+18
14533.0	2.077015372988416e+18
14534.0	2.0765197656391677e+18
14535.0	2.0759985193484283e+18
14536.0	2.075513167911321e+18
14537.0	2.0749947636809725e+18
14538.0	2.0745216294125565e+18
14539.0	2.0740228931125243e+18
14540.0	2.0735252607533053e+18
14541.0	2.0729820312764408e+18
14542.0	2.0725222617382907e+18
14543.0	2.0714605961543675e+18
14544.0	2.0715263930400765e+18
14545.0	2.0710056232222717e+18
14546.0	2.0251867158150956e+18
14547.0	2.0290993672683256e+18
14548.0	2.069510266604748e+18
14549.0	2.0688284422242296e+18
14550.0	2.0685217211613184e+18
14551.0	2.068040819041894e+18
14552.0	2.067529280048332e+18
14553.0	2.0670205512384507e+18
14554.0	2.0665428787331067e+18
14555.0	2.0660416728268797e+18
14556.0	2.0655209885728765e+18
14557.0	2.0650421131411453e+18
14558.0	2.0645274904952827e+18
14559.0	2.0608564930281395e+18
14560.0	2.0628547517284344e+18
14561.0	2.0630251176460283e+18
14562.0	2.0624429935493115e+18
14563.0	2.0620367399747576e+18
14564.0	2.0612719153512443e+18
14565.0	2.0610616431476733e+18
14566.0	2.060563373254246e+18
14567.0	2.0600371743293437e+18
14568.0	2.0588893225091077e+18
14569.0	2.0590316704759805e+18
14570.0	2.0574175227805696e+18
14571.0	2.0580569964347387e+18
14572.0	2.0571913625534461e+18
14573.0	2.05687770578944e+18
14574.0	2.0558089233104896e+18
14575.0	2.0559286203580416e+18
14576.0	2.055455096858214e+18
14577.0	2.055035067511603e+18
14578.0	2.0545464227069947e+18
14579.0	2.0540522263216125e+18
14580.0	2.053549602740633e+18
14581.0	2.0530036335443965e+18
14582.0	2.0525213892476925e+18
14583.0	2.0520590628618237e+18
14584.0	2.0514606464106496e+18
14585.0	2.051061140632371e+18
14586.0	2.0505565759275005e+18
14587.0	2.050045328857497e+18
14588.0	2.0495568920903677e+18
14589.0	2.0490822529056763e+18
14590.0	2.0486024043954173e+18
14591.0	2.0480776466333693e+18
14592.0	2.047614722978611e+18
14593.0	2.04694503859159e+18
14594.0	2.0466678924050424e+18
14595.0	2.046174716074393e+18
14596.0	2.044503794280036e+18
14597.0	2.0438471223017446e+18
14598.0	2.0446321970249718e+18
14599.0	2.044252275290931e+18
14600.0	2.0437180216246267e+18
14601.0	2.0432500077625336e+18
14602.0	2.042657340863283e+18
14603.0	2.0422482167070717e+18
14604.0	2.0416160176537597e+18
14605.0	2.040998856019148e+18
14606.0	2.0406073580060672e+18
14607.0	2.040363423996313e+18
14608.0	2.0398665399009275e+18
14609.0	2.0392536883331072e+18
14610.0	2.038412846143897e+18
14611.0	2.0382988046958587e+18
14612.0	2.0379345847582715e+18
14613.0	2.0374780079243261e+18
14614.0	2.0369952770883581e+18
14615.0	2.036428886664806e+18
14616.0	2.0360402877546496e+18
14617.0	2.0355550252367864e+18
14618.0	2.0347236302979072e+18
14619.0	2.0338226988318684e+18
14620.0	2.0304781692108805e+18
14621.0	2.0336166259654648e+18
14622.0	2.0331266154954744e+18
14623.0	2.0326468642930683e+18
14624.0	2.0320568062509053e+18
14625.0	2.0316654105788408e+18
14626.0	2.0311591832518648e+18
14627.0	2.0306475570167803e+18
14628.0	2.0302025128411133e+18
14629.0	2.02971399889879e+18
14630.0	2.0291881271295992e+18
14631.0	2.0287143955922944e+18
14632.0	2.0231286312402972e+18
14633.0	2.0269632115965932e+18
14634.0	2.0271855315189755e+18
14635.0	2.0248796508192643e+18
14636.0	2.0197334663036913e+18
14637.0	2.025774274052096e+18
14638.0	2.025184616985395e+18
14639.0	2.024715831371366e+18
14640.0	2.0242944464257021e+18
14641.0	2.0052136716926838e+18
14642.0	2.023310398953881e+18
14643.0	2.022814877168435e+18
14644.0	2.0222851818717181e+18
14645.0	2.021784695708057e+18
14646.0	2.0209533796220925e+18
14647.0	2.020471853390233e+18
14648.0	2.0202886143148027e+18
14649.0	2.0198588374056955e+18
