# Flux units: erg / (cm m2 s)
# Wavelength units: Angstrom
wave	flux
14000.0	2.440187979445042e+18
14001.0	2.439626105448038e+18
14002.0	2.439073175384883e+18
14003.0	2.4385054276845563e+18
14004.0	2.437937604486758e+18
14005.0	2.437369682303385e+18
14006.0	2.4367996881338363e+18
14007.0	2.4362324689158134e+18
14008.0	2.435631852971622e+18
14009.0	2.435099179719065e+18
14010.0	2.434527162217267e+18
14011.0	2.4337806683799547e+18
14012.0	2.4333984833994747e+18
14013.0	2.4328320610992123e+18
14014.0	2.43226555491287e+18
14015.0	2.431664202448896e+18
14016.0	2.4309841514201083e+18
14017.0	2.43041784823808e+18
14018.0	2.4298513957388283e+18
14019.0	2.4292855841292283e+18
14020.0	2.4287193849659387e+18
14021.0	2.428153308276326e+18
14022.0	2.4275835137556475e+18
14023.0	2.427001762113126e+18
14024.0	2.4264434364973056e+18
14025.0	2.4258912848969723e+18
14026.0	2.425326741644902e+18
14027.0	2.4247627050647547e+18
14028.0	2.4241979336425467e+18
14029.0	2.423632517975244e+18
14030.0	2.4217707436048394e+18
14031.0	2.4224789954559995e+18
14032.0	2.4219387523235835e+18
14033.0	2.4212930107015163e+18
14034.0	2.4206792279982075e+18
14035.0	2.4201189830688763e+18
14036.0	2.419551191747789e+18
14037.0	2.4189915440873467e+18
14038.0	2.4184292858920955e+18
14039.0	2.4178660965613563e+18
14040.0	2.4172994477686784e+18
14041.0	2.416738657579827e+18
14042.0	2.4161735489355776e+18
14043.0	2.415602158901657e+18
14044.0	2.41504902751191e+18
14045.0	2.414488730573209e+18
14046.0	2.413925281195622e+18
14047.0	2.413357771731763e+18
14048.0	2.412801898944921e+18
14049.0	2.41224177984471e+18
14050.0	2.411680087041638e+18
14051.0	2.411115629353369e+18
14052.0	2.410557451377049e+18
14053.0	2.4098879767052283e+18
14054.0	2.40930773836759e+18
14055.0	2.408746619345305e+18
14056.0	2.408185651317965e+18
14057.0	2.407624849385062e+18
14058.0	2.4070641816698875e+18
14059.0	2.406503675015987e+18
14060.0	2.4059433092907003e+18
14061.0	2.4053811014270966e+18
14062.0	2.4048230090145787e+18
14063.0	2.4042572443811835e+18
14064.0	2.4035359666995195e+18
14065.0	2.4031410679447547e+18
14066.0	2.4025842002690043e+18
14067.0	2.4019943519420416e+18
14068.0	2.4014657538752507e+18
14069.0	2.400903690295705e+18
14070.0	2.4003467890655227e+18
14071.0	2.3997883493646336e+18
14072.0	2.3992306646384635e+18
14073.0	2.3986722467479547e+18
14074.0	2.3981138825445376e+18
14075.0	2.3975092216135675e+18
14076.0	2.396838429930291e+18
14077.0	2.396005981382246e+18
14078.0	2.395732801329561e+18
14079.0	2.395195502598553e+18
14080.0	2.39464067670999e+18
14081.0	2.394083238608896e+18
14082.0	2.3935216045260795e+18
14083.0	2.3929680704831483e+18
14084.0	2.392410988059033e+18
14085.0	2.3915806081417216e+18
14086.0	2.391271865424281e+18
14087.0	2.3907409688788987e+18
14088.0	2.3901763954278395e+18
14089.0	2.3896001970438144e+18
14090.0	2.389067230189977e+18
14091.0	2.3885159090618363e+18
14092.0	2.387960271156019e+18
14093.0	2.38740449567703e+18
14094.0	2.386848683288166e+18
14095.0	2.3862922736304123e+18
14096.0	2.385675558269747e+18
14097.0	2.385153110730342e+18
14098.0	2.3845979207761915e+18
14099.0	2.3840722318786555e+18
14100.0	2.383461769386393e+18
14101.0	2.382840545987788e+18
14102.0	2.382285736876441e+18
14103.0	2.3817272720097275e+18
14104.0	2.381176892083404e+18
14105.0	2.3806219521097723e+18
14106.0	2.380068397934182e+18
14107.0	2.3795126593650683e+18
14108.0	2.3789558554427387e+18
14109.0	2.378404588001689e+18
14110.0	2.3778470576259067e+18
14111.0	2.3772895272501243e+18
14112.0	2.37674559480791e+18
14113.0	2.376176981403238e+18
14114.0	2.3756333341736955e+18
14115.0	2.3750817647427584e+18
14116.0	2.3744610312388603e+18
14117.0	2.37186578382848e+18
14118.0	2.373424442559693e+18
14119.0	2.372836003518873e+18
14120.0	2.372288828040806e+18
14121.0	2.371757587562495e+18
14122.0	2.3711965725589504e+18
14123.0	2.3706114772172795e+18
14124.0	2.370058233420185e+18
14125.0	2.3694026838376443e+18
14126.0	2.368999138105753e+18
14127.0	2.3684576131940347e+18
14128.0	2.367792208674816e+18
14129.0	2.3672372720566267e+18
14130.0	2.3666824545566715e+18
14131.0	2.3661370641743867e+18
14132.0	2.3655882478845947e+18
14133.0	2.3648511861981174e+18
14134.0	2.364487254828646e+18
14135.0	2.36391546046382e+18
14136.0	2.3632813521633275e+18
14137.0	2.3628294662389755e+18
14138.0	2.362259428448665e+18
14139.0	2.361736881923686e+18
14140.0	2.361178316393677e+18
14141.0	2.3606132413038587e+18
14142.0	2.3599047696711675e+18
14143.0	2.359529456638361e+18
14144.0	2.358991075776921e+18
14145.0	2.358442828234752e+18
14146.0	2.3578911849840635e+18
14147.0	2.357342845167206e+18
14148.0	2.3567866083147776e+18
14149.0	2.356234475169382e+18
14150.0	2.3557010133876736e+18
14151.0	2.3551314050940923e+18
14152.0	2.354605209524633e+18
14153.0	2.354057396512358e+18
14154.0	2.3535000104206326e+18
14155.0	2.352858770125619e+18
14156.0	2.3524028677357563e+18
14157.0	2.3518672920248315e+18
14158.0	2.3513178885324795e+18
14159.0	2.3507207454719995e+18
14160.0	2.3501072228155387e+18
14161.0	2.3495403458527227e+18
14162.0	2.348977359526297e+18
14163.0	2.3484653507706875e+18
14164.0	2.3478456238997494e+18
14165.0	2.3472879442067456e+18
14166.0	2.3468264818475003e+18
14167.0	2.346276905549824e+18
14168.0	2.3457263444295675e+18
14169.0	2.3451910841303035e+18
14170.0	2.3446386053742587e+18
14171.0	2.344098298488422e+18
14172.0	2.3435548408414203e+18
14173.0	2.3429685778055163e+18
14174.0	2.342460439553638e+18
14175.0	2.341919486744985e+18
14176.0	2.3413725528588283e+18
14177.0	2.340829174064742e+18
14178.0	2.340284077283737e+18
14179.0	2.339732517919129e+18
14180.0	2.3391965462659067e+18
14181.0	2.338652333644185e+18
14182.0	2.3381079901601787e+18
14183.0	2.3375642288455675e+18
14184.0	2.3370183955447803e+18
14185.0	2.3364751643901947e+18
14186.0	2.335509845324595e+18
14187.0	2.3353773690716155e+18
14188.0	2.334845851769241e+18
14189.0	2.334298743400038e+18
14190.0	2.333757013806285e+18
14191.0	2.3332122542473206e+18
14192.0	2.33267121923031e+18
14193.0	2.332059902777753e+18
14194.0	2.331585683023462e+18
14195.0	2.3310006933782523e+18
14196.0	2.33031842440151e+18
14197.0	2.3297761529036795e+18
14198.0	2.329232371456409e+18
14199.0	2.328690224109977e+18
14200.0	2.327908704478822e+18
14201.0	2.3275989349957627e+18
14202.0	2.327066498301952e+18
14203.0	2.326515650291302e+18
14204.0	2.325982599551385e+18
14205.0	2.325441430316646e+18
14206.0	2.324857418783129e+18
14207.0	2.324360123645952e+18
14208.0	2.323819445983641e+18
14209.0	2.3232328541143035e+18
14210.0	2.3227066367344635e+18
14211.0	2.322197386153165e+18
14212.0	2.321656923239219e+18
14213.0	2.3211113080422395e+18
14214.0	2.320576599713382e+18
14215.0	2.320033219241574e+18
14216.0	2.319497232488857e+18
14217.0	2.3189575178387456e+18
14218.0	2.318413303539302e+18
14219.0	2.3178784391823355e+18
14220.0	2.3173391691284475e+18
14221.0	2.3167925623980027e+18
14222.0	2.3162092756402176e+18
14223.0	2.315720350656102e+18
14224.0	2.3151824093577216e+18
14225.0	2.313986841457459e+18
14226.0	2.314102191528345e+18
14227.0	2.313566897674649e+18
14228.0	2.3116476143632384e+18
14229.0	2.3122628164190193e+18
14230.0	2.3119528254767104e+18
14231.0	2.311365981949133e+18
14232.0	2.3108773237227515e+18
14233.0	2.310337384257945e+18
14234.0	2.309802192745267e+18
14235.0	2.309263977978265e+18
14236.0	2.308627022584217e+18
14237.0	2.3080794746519547e+18
14238.0	2.3075424275791867e+18
14239.0	2.307000003408691e+18
14240.0	2.306018212472422e+18
14241.0	2.305923833921536e+18
14242.0	2.3053914844692475e+18
14243.0	2.3048039144882168e+18
14244.0	2.3043213564575736e+18
14245.0	2.3037797006835704e+18
14246.0	2.303239105229619e+18
14247.0	2.302712391244185e+18
14248.0	2.3021720709365755e+18
14249.0	2.301639672830361e+18
14250.0	2.301103743120179e+18
14251.0	2.3005689072844795e+18
14252.0	2.3000332510429176e+18
14253.0	2.299497427029196e+18
14254.0	2.298961245660774e+18
14255.0	2.2984156975726587e+18
14256.0	2.2971795439091715e+18
14257.0	2.2973269015527421e+18
14258.0	2.2968210701680637e+18
14259.0	2.2962790889160696e+18
14260.0	2.2957324352094205e+18
14261.0	2.2952090800226301e+18
14262.0	2.294694126865612e+18
14263.0	2.293120895444583e+18
14264.0	2.293436573863116e+18
14265.0	2.2930870994206715e+18
14266.0	2.2925597931995133e+18
14267.0	2.2920262089441275e+18
14268.0	2.2914926917976061e+18
14269.0	2.2909583173353467e+18
14270.0	2.2904255685853181e+18
14271.0	2.2898906069204987e+18
14272.0	2.2893575377256445e+18
14273.0	2.288770197592473e+18
14274.0	2.2866849574158344e+18
14275.0	2.287531651497984e+18
14276.0	2.287137405376921e+18
14277.0	2.2866096763699195e+18
14278.0	2.2860853816590333e+18
14279.0	2.285552894633574e+18
14280.0	2.285018394342195e+18
14281.0	2.284488870173081e+18
14282.0	2.2839569200185336e+18
14283.0	2.283424948053606e+18
14284.0	2.2828791332077565e+18
14285.0	2.2822540040732672e+18
14286.0	2.281721107683737e+18
14287.0	2.281190605402931e+18
14288.0	2.2806589454942205e+18
14289.0	2.2798388718206966e+18
14290.0	2.279594234845593e+18
14291.0	2.279064437207859e+18
14292.0	2.278533554084249e+18
14293.0	2.2780016139960317e+18
14294.0	2.277422739646054e+18
14295.0	2.2769345948024824e+18
14296.0	2.2761745667850237e+18
14297.0	2.275877809710694e+18
14298.0	2.2750838933946365e+18
14299.0	2.274805002377625e+18
14300.0	2.27428403291095e+18
14301.0	2.2737561076105208e+18
14302.0	2.27322514898944e+18
14303.0	2.272681797038899e+18
14304.0	2.2721598662377467e+18
14305.0	2.271631055100313e+18
14306.0	2.271069328742809e+18
14307.0	2.2705519261122555e+18
14308.0	2.2700304986275832e+18
14309.0	2.2694868329431037e+18
14310.0	2.268835945748889e+18
14311.0	2.2683139411279867e+18
14312.0	2.2678381157941245e+18
14313.0	2.267355633260953e+18
14314.0	2.266847350725017e+18
14315.0	2.2663353621020667e+18
14316.0	2.265792191345459e+18
14317.0	2.2652428012748795e+18
14318.0	2.2647572501889021e+18
14319.0	2.2642311854817277e+18
14320.0	2.263703870871961e+18
14321.0	2.2631767475224573e+18
14322.0	2.2626345280339965e+18
14323.0	2.262115697662361e+18
14324.0	2.261593565534617e+18
14325.0	2.2610632612249595e+18
14326.0	2.2605401392414717e+18
14327.0	2.2600102812057595e+18
14328.0	2.2594836477509627e+18
14329.0	2.258958708794982e+18
14330.0	2.2584316995305467e+18
14331.0	2.2578985749708792e+18
14332.0	2.2573779527925757e+18
14333.0	2.2568512438403067e+18
14334.0	2.2563245734756352e+18
14335.0	2.255793124959846e+18
14336.0	2.255194537381069e+18
14337.0	2.2547448442388475e+18
14338.0	2.2542180765663227e+18
14339.0	2.2536849117413368e+18
14340.0	2.253094694315622e+18
14341.0	2.2525319613251576e+18
14342.0	2.252011444843315e+18
14343.0	2.2514818686648317e+18
14344.0	2.2509566663065595e+18
14345.0	2.2504327625048061e+18
14346.0	2.249903404430131e+18
14347.0	2.249356005815091e+18
14348.0	2.248852798386995e+18
14349.0	2.2483303743356923e+18
14350.0	2.247746802365235e+18
14351.0	2.2472160937246712e+18
14352.0	2.2467534083063798e+18
14353.0	2.2462308181606395e+18
14354.0	2.2456982925475832e+18
14355.0	2.2451591852326912e+18
14356.0	2.2446400126058493e+18
14357.0	2.2441315555868672e+18
14358.0	2.2436070394167293e+18
14359.0	2.243076218368819e+18
14360.0	2.2425529068027901e+18
14361.0	2.2420316823224312e+18
14362.0	2.2415095820713981e+18
14363.0	2.2409850424131581e+18
14364.0	2.2402599579811832e+18
14365.0	2.2399005698818045e+18
14366.0	2.2393833702555643e+18
14367.0	2.2388902174130176e+18
14368.0	2.2383664159522813e+18
14369.0	2.2378430456659965e+18
14370.0	2.2373197626212347e+18
14371.0	2.236796689291673e+18
14372.0	2.236273005271449e+18
14373.0	2.2357500628041728e+18
14374.0	2.2352270465171453e+18
14375.0	2.2347040050642944e+18
14376.0	2.2341810659524605e+18
14377.0	2.2336579993337848e+18
14378.0	2.2331345283842043e+18
14379.0	2.232612758644326e+18
14380.0	2.232089893352243e+18
14381.0	2.231563046826803e+18
14382.0	2.2310445939425275e+18
14383.0	2.2305171484704765e+18
14384.0	2.2299925786132477e+18
14385.0	2.2294785851129853e+18
14386.0	2.228950674912051e+18
14387.0	2.2284344919851e+18
14388.0	2.227911903517081e+18
14389.0	2.227390783055462e+18
14390.0	2.22686851670999e+18
14391.0	2.2263474751012861e+18
14392.0	2.2258246936952827e+18
14393.0	2.2253044657815547e+18
14394.0	2.2247681569062904e+18
14395.0	2.224235894695526e+18
14396.0	2.2237387488755712e+18
14397.0	2.223181059116236e+18
14398.0	2.222612068224204e+18
14399.0	2.222090176010649e+18
14400.0	2.2215570078302205e+18
14401.0	2.2210466080096253e+18
14402.0	2.220527596444057e+18
14403.0	2.218713484466583e+18
14404.0	2.2159513658327027e+18
14405.0	2.2184104745238513e+18
14406.0	2.2183469928939517e+18
14407.0	2.2159695103918088e+18
14408.0	2.217267310257766e+18
14409.0	2.2167807072403456e+18
14410.0	2.2162521376948221e+18
14411.0	2.215744870180454e+18
14412.0	2.215224744607743e+18
14413.0	2.2147055115829245e+18
14414.0	2.214184245159526e+18
14415.0	2.2136643343351803e+18
14416.0	2.213134159210086e+18
14417.0	2.212587208546713e+18
14418.0	2.2120716816089085e+18
14419.0	2.2115827968901115e+18
14420.0	2.2110620404940792e+18
14421.0	2.2105430842933245e+18
14422.0	2.2100210964496381e+18
14423.0	2.209479447386521e+18
14424.0	2.2013876837023695e+18
14425.0	2.2084511198085115e+18
14426.0	2.2079440250994685e+18
14427.0	2.2074263590666237e+18
14428.0	2.2068983230365693e+18
14429.0	2.2063869199384573e+18
14430.0	2.2058686918688765e+18
14431.0	2.2050389276753915e+18
14432.0	2.2048231693221883e+18
14433.0	2.2029279697043443e+18
14434.0	2.2037855136120827e+18
14435.0	2.2032274497208315e+18
14436.0	2.202753478269337e+18
14437.0	2.202236129325875e+18
14438.0	2.201649324385894e+18
14439.0	2.20118557696983e+18
14440.0	2.200680310977331e+18
14441.0	2.2001605813469176e+18
14442.0	2.1996408231952376e+18
14443.0	2.199109718612377e+18
14444.0	2.198605308257894e+18
14445.0	2.198087783153664e+18
14446.0	2.196004801190298e+18
14447.0	2.1970438678642683e+18
14448.0	2.1965333237596155e+18
14449.0	2.1960151007232e+18
14450.0	2.1954943728484347e+18
14451.0	2.194977601041203e+18
14452.0	2.194456935242137e+18
14453.0	2.1939129222692861e+18
14454.0	2.1934219051663355e+18
14455.0	2.1929014994141181e+18
14456.0	2.192374949845401e+18
14457.0	2.1918536716779517e+18
14458.0	2.1913331602292733e+18
14459.0	2.1908153348128763e+18
14460.0	2.190288317159833e+18
14461.0	2.1897231883829243e+18
14462.0	2.189124021990195e+18
14463.0	2.1887134449270784e+18
14464.0	2.188223897508249e+18
14465.0	2.1877091087679485e+18
14466.0	2.1872021163999224e+18
14467.0	2.1866622490771456e+18
14468.0	2.186167331271475e+18
14469.0	2.1856247795941373e+18
14470.0	2.1851252816084987e+18
14471.0	2.1846158515109883e+18
14472.0	2.1841002960519165e+18
14473.0	2.1835866196410365e+18
14474.0	2.1830701699563517e+18
14475.0	2.1825510627606523e+18
14476.0	2.181945910257254e+18
14477.0	2.1815169470431227e+18
14478.0	2.181001057717452e+18
14479.0	2.1804819941425147e+18
14480.0	2.1799600683745275e+18
14481.0	2.1794400568868861e+18
14482.0	2.1788397764870136e+18
14483.0	2.1783198807621627e+18
14484.0	2.1778034713427965e+18
14485.0	2.1772749504511995e+18
14486.0	2.1766671119155195e+18
14487.0	2.1762505554526205e+18
14488.0	2.175667956560691e+18
14489.0	2.1751880912732155e+18
14490.0	2.1746965205221373e+18
14491.0	2.174185864010137e+18
14492.0	2.17366863586263e+18
14493.0	2.1731469667860477e+18
14494.0	2.1726255476899832e+18
14495.0	2.172116986652262e+18
14496.0	2.1715518578753533e+18
14497.0	2.1710824145944568e+18
14498.0	2.1705651596034045e+18
14499.0	2.1700480992280568e+18
14500.0	2.169530470105088e+18
14501.0	2.1689669150310395e+18
14502.0	2.1683577276071933e+18
14503.0	2.1679553462140925e+18
14504.0	2.1674585158057981e+18
14505.0	2.166897910166323e+18
14506.0	2.1663311170895864e+18
14507.0	2.1658218480533501e+18
14508.0	2.165390896739123e+18
14509.0	2.16487355786199e+18
14510.0	2.1643560864448512e+18
14511.0	2.163794183926579e+18
14512.0	2.1632120128536573e+18
14513.0	2.1627004117843963e+18
14514.0	2.16216815796224e+18
14515.0	2.1616649840885755e+18
14516.0	2.1604409871958019e+18
14517.0	2.1606294070755325e+18
14518.0	2.160112502728294e+18
14519.0	2.1595949876903933e+18
14520.0	2.1590773183021053e+18
14521.0	2.1585592076730365e+18
14522.0	2.158035545463193e+18
14523.0	2.1573868074303483e+18
14524.0	2.1568986709753853e+18
14525.0	2.1564863943802877e+18
14526.0	2.155971033536921e+18
14527.0	2.1554445091340285e+18
14528.0	2.1548855241736187e+18
14529.0	2.154413705238937e+18
14530.0	2.1538942037786624e+18
14531.0	2.1533810793381883e+18
14532.0	2.1527264273367032e+18
14533.0	2.1523449436438525e+18
14534.0	2.1518280728510456e+18
14535.0	2.151305574979993e+18
14536.0	2.1507916284559355e+18
14537.0	2.1502688889929725e+18
14538.0	2.14975506326487e+18
14539.0	2.1492368972709885e+18
14540.0	2.1487184645193725e+18
14541.0	2.1481916817473533e+18
14542.0	2.1476813507133432e+18
14543.0	2.1470955339513848e+18
14544.0	2.146643726879948e+18
14545.0	2.1461239888609275e+18
14546.0	2.1380606357143508e+18
14547.0	2.1383210650828744e+18
14548.0	2.1445631943901176e+18
14549.0	2.1440077729103867e+18
14550.0	2.14352899646423e+18
14551.0	2.1430126004666365e+18
14552.0	2.1424925185146877e+18
14553.0	2.1419716497113083e+18
14554.0	2.14145483931648e+18
14555.0	2.14093494526935e+18
14556.0	2.1404130111127542e+18
14557.0	2.1398955094966267e+18
14558.0	2.1393735317192701e+18
14559.0	2.138303123528088e+18
14560.0	2.138301861881446e+18
14561.0	2.137812004084121e+18
14562.0	2.137279847569817e+18
14563.0	2.1367716724080635e+18
14564.0	2.13622545490903e+18
14565.0	2.1357355400691712e+18
14566.0	2.1351993738002427e+18
14567.0	2.1345972562952187e+18
14568.0	2.1340282670809083e+18
14569.0	2.1335565018333176e+18
14570.0	2.1328565647704061e+18
14571.0	2.1325156517412861e+18
14572.0	2.1318980622876667e+18
14573.0	2.1313625637519357e+18
14574.0	2.1307953713774587e+18
14575.0	2.1303304931770365e+18
14576.0	2.1298120503590904e+18
14577.0	2.1293023467929595e+18
14578.0	2.1287827631243261e+18
14579.0	2.1282613490614267e+18
14580.0	2.127739173312921e+18
14581.0	2.1272105551134717e+18
14582.0	2.1266883307110395e+18
14583.0	2.1261709482131453e+18
14584.0	2.1256334263451643e+18
14585.0	2.125125246150246e+18
14586.0	2.1246012483960827e+18
14587.0	2.1240774167363581e+18
14588.0	2.1235564170706936e+18
14589.0	2.1230467957129216e+18
14590.0	2.122538254807859e+18
14591.0	2.122025868564889e+18
14592.0	2.121518446700134e+18
14593.0	2.1209689945538557e+18
14594.0	2.1205015326621696e+18
14595.0	2.1199897168445437e+18
14596.0	2.119326031989964e+18
14597.0	2.1187900402040824e+18
14598.0	2.1184457952198653e+18
14599.0	2.1179498422599675e+18
14600.0	2.1174340049436667e+18
14601.0	2.1169240195203064e+18
14602.0	2.1164056555552765e+18
14603.0	2.115896784139059e+18
14604.0	2.115363550527488e+18
14605.0	2.114844184962662e+18
14606.0	2.1143342230274043e+18
14607.0	2.113848314586726e+18
14608.0	2.1133352136343547e+18
14609.0	2.112808768084377e+18
14610.0	2.1122759086047227e+18
14611.0	2.111783047685734e+18
14612.0	2.1112819256655867e+18
14613.0	2.1107714285371387e+18
14614.0	2.1102573796720637e+18
14615.0	2.1097402387660797e+18
14616.0	2.1092302868971515e+18
14617.0	2.1087152548872187e+18
14618.0	2.1081670056673277e+18
14619.0	2.1075627574558715e+18
14620.0	2.1067086730100736e+18
14621.0	2.1066517529493501e+18
14622.0	2.106135845168742e+18
14623.0	2.1056191304040445e+18
14624.0	2.1050808804048893e+18
14625.0	2.1045844660715515e+18
14626.0	2.1040640083099643e+18
14627.0	2.1035424415743997e+18
14628.0	2.1030298540048381e+18
14629.0	2.1025106729893888e+18
14630.0	2.1019878831947773e+18
14631.0	2.1014714620313597e+18
14632.0	2.1003642463059965e+18
14633.0	2.10033865434071e+18
14634.0	2.0999049045868544e+18
14635.0	2.0992730209452022e+18
14636.0	2.0985349257822203e+18
14637.0	2.0983492405886973e+18
14638.0	2.0978160438870016e+18
14639.0	2.0972921837060093e+18
14640.0	2.0967781868503035e+18
14641.0	2.0939659932598252e+18
14642.0	2.0957302651617277e+18
14643.0	2.0952078461435896e+18
14644.0	2.0946769965744125e+18
14645.0	2.0941495074815997e+18
14646.0	2.093596278784e+18
14647.0	2.0930646725623803e+18
14648.0	2.0925694091460605e+18
14649.0	2.0920532664844288e+18
14650.0	2.091523490657075e+18
14651.0	2.0909916176777216e+18
