# Flux units: erg / (cm m2 s)
# Wavelength units: Angstrom
wave	flux
14000.0	2.0268300843876347e+18
14001.0	2.0264274362367997e+18
14002.0	2.026040362375577e+18
14003.0	2.025644780788121e+18
14004.0	2.025249237788262e+18
14005.0	2.0248537602195453e+18
14006.0	2.024457685381939e+18
14007.0	2.0240626121441277e+18
14008.0	2.0236586738253821e+18
14009.0	2.0232724354695163e+18
14010.0	2.022877615567667e+18
14011.0	2.0224243304235003e+18
14012.0	2.022087759337881e+18
14013.0	2.0216933102125053e+18
14014.0	2.0212986899595261e+18
14015.0	2.0209039455551483e+18
14016.0	2.0205097145335805e+18
14017.0	2.0201153862041597e+18
14018.0	2.0197211216281597e+18
14019.0	2.0193269325496317e+18
14020.0	2.0189327636037624e+18
14021.0	2.0185387288756221e+18
14022.0	2.0181448585641981e+18
14023.0	2.0177509161107453e+18
14024.0	2.017356535771955e+18
14025.0	2.0169637928894461e+18
14026.0	2.0165701138382843e+18
14027.0	2.016176852539801e+18
14028.0	2.01578350903296e+18
14029.0	2.0153901722370043e+18
14030.0	2.0149655409000445e+18
14031.0	2.0146029567410173e+18
14032.0	2.0142109772218365e+18
14033.0	2.0138140366798845e+18
14034.0	2.013425315296051e+18
14035.0	2.0130326965649403e+18
14036.0	2.0126401063550968e+18
14037.0	2.0122475983536125e+18
14038.0	2.0118551826268155e+18
14039.0	2.0114628524638208e+18
14040.0	2.011070607864627e+18
14041.0	2.010678455540121e+18
14042.0	2.0102528326696955e+18
14043.0	2.0098491007107072e+18
14044.0	2.0094586093305848e+18
14045.0	2.0090679233347584e+18
14046.0	2.0086762290282493e+18
14047.0	2.008284506200473e+18
14048.0	2.0078930820071421e+18
14049.0	2.007501689690521e+18
14050.0	2.0071103628050427e+18
14051.0	2.006718291011174e+18
14052.0	2.0063279539814397e+18
14053.0	2.005936920697241e+18
14054.0	2.0055459561996283e+18
14055.0	2.00515509068759e+18
14056.0	2.0047643023507453e+18
14057.0	2.0043736163549181e+18
14058.0	2.003983015922892e+18
14059.0	2.0035925060878328e+18
14060.0	2.003202088527462e+18
14061.0	2.002811127385292e+18
14062.0	2.002421506742681e+18
14063.0	2.002029852701491e+18
14064.0	2.0016358028738555e+18
14065.0	2.0012505392742397e+18
14066.0	2.000861487379251e+18
14067.0	2.000471710708531e+18
14068.0	2.0000820162461693e+18
14069.0	1.9996922966179837e+18
14070.0	1.999302885690572e+18
14071.0	1.9989132147163133e+18
14072.0	1.9985241561104381e+18
14073.0	1.9981349213437947e+18
14074.0	1.9977457754963965e+18
14075.0	1.9973566984355835e+18
14076.0	1.9969677270712315e+18
14077.0	1.9965721035407355e+18
14078.0	1.9961895175847933e+18
14079.0	1.995800760968806e+18
14080.0	1.9954127844933627e+18
14081.0	1.9950242761801725e+18
14082.0	1.994635630293811e+18
14083.0	1.9942473585393661e+18
14084.0	1.9938591270502397e+18
14085.0	1.993446712881971e+18
14086.0	1.993082167466393e+18
14087.0	1.9926950466289664e+18
14088.0	1.99230710874112e+18
14089.0	1.991919405734297e+18
14090.0	1.991531617163673e+18
14091.0	1.9911441205166075e+18
14092.0	1.990756593670553e+18
14093.0	1.9903691590991872e+18
14094.0	1.9899818117693437e+18
14095.0	1.9895945114157053e+18
14096.0	1.989206080277708e+18
14097.0	1.9888200482815997e+18
14098.0	1.9884326925631488e+18
14099.0	1.9880464156196861e+18
14100.0	1.9876585045753848e+18
14101.0	1.9872729406636027e+18
14102.0	1.9868862912659448e+18
14103.0	1.986498403709747e+18
14104.0	1.9861133347258365e+18
14105.0	1.985726965507686e+18
14106.0	1.9853406969528312e+18
14107.0	1.9849544686632955e+18
14108.0	1.9845684467335163e+18
14109.0	1.9841819734966272e+18
14110.0	1.983796196514201e+18
14111.0	1.983409951447449e+18
14112.0	1.9830247868334075e+18
14113.0	1.9826393135185912e+18
14114.0	1.982253752962252e+18
14115.0	1.981868071609958e+18
14116.0	1.9814814926766077e+18
14117.0	1.9810412904054781e+18
14118.0	1.980712104650342e+18
14119.0	1.9803263847104507e+18
14120.0	1.979941523764019e+18
14121.0	1.9795570235277307e+18
14122.0	1.9791717381177336e+18
14123.0	1.9787870248108032e+18
14124.0	1.978402038035251e+18
14125.0	1.9779735563272187e+18
14126.0	1.977633769049292e+18
14127.0	1.9772496328785915e+18
14128.0	1.976865253438259e+18
14129.0	1.976479988160921e+18
14130.0	1.9760955265122301e+18
14131.0	1.975712957333504e+18
14132.0	1.97532863996887e+18
14133.0	1.9748925581819896e+18
14134.0	1.9745609833512955e+18
14135.0	1.974176322053734e+18
14136.0	1.9737933233782781e+18
14137.0	1.9734104220106752e+18
14138.0	1.9730266264174587e+18
14139.0	1.9726437955141627e+18
14140.0	1.9722601425272827e+18
14141.0	1.9718766808006653e+18
14142.0	1.9714904441225216e+18
14143.0	1.9711110038945784e+18
14144.0	1.9707285387345915e+18
14145.0	1.9703457531297787e+18
14146.0	1.9699628786057208e+18
14147.0	1.9695803245264893e+18
14148.0	1.9691978207789053e+18
14149.0	1.968815452926771e+18
14150.0	1.9684330867523581e+18
14151.0	1.968050581327052e+18
14152.0	1.9676686345830397e+18
14153.0	1.96728652342231e+18
14154.0	1.9669045162803197e+18
14155.0	1.966521217292697e+18
14156.0	1.9661405556834301e+18
14157.0	1.9657590065594365e+18
14158.0	1.9653769440526333e+18
14159.0	1.9649957640273915e+18
14160.0	1.9646135018717181e+18
14161.0	1.9642270957436925e+18
14162.0	1.963841226486579e+18
14163.0	1.9634700205162493e+18
14164.0	1.9630875268349947e+18
14165.0	1.962703112162508e+18
14166.0	1.9623269183258621e+18
14167.0	1.9619463288586235e+18
14168.0	1.9615654139133947e+18
14169.0	1.9611848630337533e+18
14170.0	1.9608039816429563e+18
14171.0	1.960423464317747e+18
14172.0	1.9600432842145795e+18
14173.0	1.959659436611993e+18
14174.0	1.9592821354790912e+18
14175.0	1.9589025190903803e+18
14176.0	1.958522439650508e+18
14177.0	1.958142445774438e+18
14178.0	1.9577624518983675e+18
14179.0	1.9573820285255675e+18
14180.0	1.9570029674627072e+18
14181.0	1.9566233292636155e+18
14182.0	1.95624368603136e+18
14183.0	1.955864267613798e+18
14184.0	1.955484369367859e+18
14185.0	1.9551054626553856e+18
14186.0	1.9547142246891515e+18
14187.0	1.9543445555118075e+18
14188.0	1.9539680529743872e+18
14189.0	1.953589080830771e+18
14190.0	1.9532102378717181e+18
14191.0	1.9528314284670973e+18
14192.0	1.9524520016609277e+18
14193.0	1.9520725396226043e+18
14194.0	1.9516955572568061e+18
14195.0	1.9513172914339835e+18
14196.0	1.9509389081706493e+18
14197.0	1.9505606490587133e+18
14198.0	1.9501819923267584e+18
14199.0	1.9498041794887675e+18
14200.0	1.94942009868288e+18
14201.0	1.9490480723066877e+18
14202.0	1.9486706201788416e+18
14203.0	1.9482921580625915e+18
14204.0	1.9479148938395643e+18
14205.0	1.9475372991053821e+18
14206.0	1.9471484384706555e+18
14207.0	1.9467825676550136e+18
14208.0	1.9463784347205632e+18
14209.0	1.9459155211321341e+18
14210.0	1.9455415469211643e+18
14211.0	1.9451732786413563e+18
14212.0	1.9447959875747837e+18
14213.0	1.9444188525363192e+18
14214.0	1.9440416671662075e+18
14215.0	1.94366356408238e+18
14216.0	1.9432877577994237e+18
14217.0	1.942910886163251e+18
14218.0	1.9425340799582203e+18
14219.0	1.9421573526061048e+18
14220.0	1.941780742694502e+18
14221.0	1.9414041512378365e+18
14222.0	1.941027697354342e+18
14223.0	1.940651312257433e+18
14224.0	1.9402749942693883e+18
14225.0	1.939879942841958e+18
14226.0	1.9394972377677821e+18
14227.0	1.9390456320229373e+18
14228.0	1.9386228143030272e+18
14229.0	1.9382848356089848e+18
14230.0	1.9379170219917307e+18
14231.0	1.9375410009604093e+18
14232.0	1.9371650436825083e+18
14233.0	1.9367891551911933e+18
14234.0	1.936413345552793e+18
14235.0	1.936037376530841e+18
14236.0	1.9356619695456253e+18
14237.0	1.935286268959129e+18
14238.0	1.93491082674176e+18
14239.0	1.9345346614263805e+18
14240.0	1.9340093030399997e+18
14241.0	1.9337841729339387e+18
14242.0	1.933409485691289e+18
14243.0	1.9330196318453755e+18
14244.0	1.932659730363187e+18
14245.0	1.932284122051379e+18
14246.0	1.9318692600872955e+18
14247.0	1.9314340456824827e+18
14248.0	1.9310575163015165e+18
14249.0	1.9306839128670203e+18
14250.0	1.930309059529932e+18
14251.0	1.9299345501257725e+18
14252.0	1.9295598528167933e+18
14253.0	1.929185133697433e+18
14254.0	1.9288104061894653e+18
14255.0	1.9284329137963003e+18
14256.0	1.9280415248351232e+18
14257.0	1.927685683439206e+18
14258.0	1.9273132359548925e+18
14259.0	1.9269391476588544e+18
14260.0	1.9265644671270907e+18
14261.0	1.9261921001734141e+18
14262.0	1.9258424864800765e+18
14263.0	1.9254388434403325e+18
14264.0	1.9250872919785464e+18
14265.0	1.9247212819120125e+18
14266.0	1.9243478126952445e+18
14267.0	1.9239743317344253e+18
14268.0	1.9236009078161403e+18
14269.0	1.9231728472162304e+18
14270.0	1.9227512441667581e+18
14271.0	1.9223776021446653e+18
14272.0	1.922004109439795e+18
14273.0	1.92163022414807e+18
14274.0	1.9212111813017597e+18
14275.0	1.920879012557619e+18
14276.0	1.9205105261740027e+18
14277.0	1.9201374663213053e+18
14278.0	1.9197648829415421e+18
14279.0	1.919391861676441e+18
14280.0	1.9190184226586621e+18
14281.0	1.918646335884492e+18
14282.0	1.9182736585523192e+18
14283.0	1.9179010198077435e+18
14284.0	1.9175284565606397e+18
14285.0	1.9171559570669563e+18
14286.0	1.9167834995163133e+18
14287.0	1.9164111745056765e+18
14288.0	1.9160385844150264e+18
14289.0	1.9155698407440381e+18
14290.0	1.915294251483136e+18
14291.0	1.9149225153527805e+18
14292.0	1.9145408571768832e+18
14293.0	1.914103023848652e+18
14294.0	1.9136863549784061e+18
14295.0	1.9132570646085632e+18
14296.0	1.9128073244901373e+18
14297.0	1.9125126377242621e+18
14298.0	1.9121254246121472e+18
14299.0	1.911769495974707e+18
14300.0	1.9113982363172861e+18
14301.0	1.9110265907838968e+18
14302.0	1.9106547674120187e+18
14303.0	1.9102799258189816e+18
14304.0	1.909910790157107e+18
14305.0	1.909540542165811e+18
14306.0	1.9091681634680832e+18
14307.0	1.9087974574587904e+18
14308.0	1.9084268672122877e+18
14309.0	1.908055423005491e+18
14310.0	1.9076790228090877e+18
14311.0	1.9073104558948347e+18
14312.0	1.9069405300260861e+18
14313.0	1.9065634016985088e+18
14314.0	1.906201547348377e+18
14315.0	1.9058311399735293e+18
14316.0	1.9054556440690683e+18
14317.0	1.9050894729412605e+18
14318.0	1.9047198876499965e+18
14319.0	1.9043496446918653e+18
14320.0	1.903979321203097e+18
14321.0	1.903609141998387e+18
14322.0	1.9031779792912381e+18
14323.0	1.9027665264574461e+18
14324.0	1.9023981222821883e+18
14325.0	1.9020278289924093e+18
14326.0	1.901657582678835e+18
14327.0	1.9012873833414653e+18
14328.0	1.9009166135787515e+18
14329.0	1.9005471910264827e+18
14330.0	1.9001771980488704e+18
14331.0	1.8998072503697405e+18
14332.0	1.8994374050316288e+18
14333.0	1.899067621769216e+18
14334.0	1.8986979039379453e+18
14335.0	1.8983271576633336e+18
14336.0	1.89795664962519e+18
14337.0	1.8975890775998461e+18
14338.0	1.8972194923085821e+18
14339.0	1.8968501083439104e+18
14340.0	1.8964809659711483e+18
14341.0	1.8961115903950843e+18
14342.0	1.8957425285529597e+18
14343.0	1.8953732687396861e+18
14344.0	1.8950042521960445e+18
14345.0	1.8946354000691192e+18
14346.0	1.8942662325305344e+18
14347.0	1.8938963838369787e+18
14348.0	1.8935287832903675e+18
14349.0	1.8931601693999096e+18
14350.0	1.8927899398635515e+18
14351.0	1.8924213192622075e+18
14352.0	1.8920544787234816e+18
14353.0	1.8916860477046781e+18
14354.0	1.8912650654121981e+18
14355.0	1.8908497806622715e+18
14356.0	1.8904813278330875e+18
14357.0	1.890113279334809e+18
14358.0	1.8897448248279037e+18
14359.0	1.8893763703209984e+18
14360.0	1.8890079074254845e+18
14361.0	1.888639754908467e+18
14362.0	1.8882716023914493e+18
14363.0	1.887903394509619e+18
14364.0	1.887530225605017e+18
14365.0	1.88716608955351e+18
14366.0	1.886798433642086e+18
14367.0	1.8864314270089216e+18
14368.0	1.8860635211169787e+18
14369.0	1.8856957880303613e+18
14370.0	1.8853280683655165e+18
14371.0	1.8849604074209275e+18
14372.0	1.8845927850639355e+18
14373.0	1.8842252231049213e+18
14374.0	1.8838577668423677e+18
14375.0	1.8834903424565243e+18
14376.0	1.88312299021271e+18
14377.0	1.8827556295802877e+18
14378.0	1.8823881917726715e+18
14379.0	1.8820212790919165e+18
14380.0	1.8816541382410235e+18
14381.0	1.8812868380065787e+18
14382.0	1.8809199756574715e+18
14383.0	1.8805528348065787e+18
14384.0	1.8801862694141947e+18
14385.0	1.8798194926288893e+18
14386.0	1.8794526906777592e+18
14387.0	1.8790859138924541e+18
14388.0	1.8787190532210688e+18
14389.0	1.8783525599707133e+18
14390.0	1.8779857831854075e+18
14391.0	1.8775387492319227e+18
14392.0	1.8771552875053053e+18
14393.0	1.8767886264827904e+18
14394.0	1.8764193163378688e+18
14395.0	1.8760551282769917e+18
14396.0	1.8756885763063803e+18
14397.0	1.8753220109139965e+18
14398.0	1.8749554354552824e+18
14399.0	1.8745889925365755e+18
14400.0	1.87422071586816e+18
14401.0	1.873855450710016e+18
14402.0	1.8734892628049915e+18
14403.0	1.8730371235446781e+18
14404.0	1.8723597149274107e+18
14405.0	1.8722318909964278e+18
14406.0	1.872024195773235e+18
14407.0	1.8715395389128696e+18
14408.0	1.8712914105991168e+18
14409.0	1.8709253787222013e+18
14410.0	1.8705611252301816e+18
14411.0	1.870195688944435e+18
14412.0	1.86982968894423e+18
14413.0	1.869464328155955e+18
14414.0	1.8690983935868925e+18
14415.0	1.8687328868368381e+18
14416.0	1.8683674455179261e+18
14417.0	1.8680016938205181e+18
14418.0	1.8676354253848568e+18
14419.0	1.867270791050035e+18
14420.0	1.8669050494189565e+18
14421.0	1.8665401080610813e+18
14422.0	1.8661745459462136e+18
14423.0	1.8658064924147707e+18
14424.0	1.864951248663347e+18
14425.0	1.8650759386103803e+18
14426.0	1.8647140624498683e+18
14427.0	1.8643494230818813e+18
14428.0	1.863982196667187e+18
14429.0	1.8636192870301693e+18
14430.0	1.8632547969794043e+18
14431.0	1.8628813093076987e+18
14432.0	1.8624381106257915e+18
14433.0	1.8619746819768317e+18
14434.0	1.861698565911347e+18
14435.0	1.8613336094539776e+18
14436.0	1.8609706243194877e+18
14437.0	1.8606057953689597e+18
14438.0	1.8602382115995645e+18
14439.0	1.8598754076590077e+18
14440.0	1.8595114846781437e+18
14441.0	1.8591461121458176e+18
14442.0	1.858780914096537e+18
14443.0	1.8584122683293693e+18
14444.0	1.8580524758990843e+18
14445.0	1.8576881469095933e+18
14446.0	1.8571658503651323e+18
14447.0	1.8569572927930363e+18
14448.0	1.856595267315302e+18
14449.0	1.856231072543539e+18
14450.0	1.8558668022743035e+18
14451.0	1.85550257562583e+18
14452.0	1.8551381946269693e+18
14453.0	1.8547728657154045e+18
14454.0	1.8544101590827003e+18
14455.0	1.8540456069562365e+18
14456.0	1.853681774572339e+18
14457.0	1.8533176267767805e+18
14458.0	1.8529539537764347e+18
14459.0	1.8525897808150525e+18
14460.0	1.8522257521377277e+18
14461.0	1.8518595608772603e+18
14462.0	1.8514948040687613e+18
14463.0	1.8511335352434683e+18
14464.0	1.850770578630246e+18
14465.0	1.8504046876819453e+18
14466.0	1.8500433534255096e+18
14467.0	1.849677814798745e+18
14468.0	1.8493157557665787e+18
14469.0	1.8489499084390397e+18
14470.0	1.8485856784351227e+18
14471.0	1.8482242049277947e+18
14472.0	1.8478617952518141e+18
14473.0	1.8474983873314813e+18
14474.0	1.8471349475344381e+18
14475.0	1.8467713433206781e+18
14476.0	1.8464023871750141e+18
14477.0	1.8460447539724288e+18
14478.0	1.845681503757926e+18
14479.0	1.8453182216667133e+18
14480.0	1.844954174534451e+18
14481.0	1.8445462180724733e+18
14482.0	1.8441349145559037e+18
14483.0	1.8437707868930043e+18
14484.0	1.843407196101017e+18
14485.0	1.8430408202911744e+18
14486.0	1.842650375887257e+18
14487.0	1.842318163522355e+18
14488.0	1.8419549787389947e+18
14489.0	1.841590871208755e+18
14490.0	1.8412280521687037e+18
14491.0	1.8408649361719293e+18
14492.0	1.840501873862246e+18
14493.0	1.8401386236477437e+18
14494.0	1.839775442219827e+18
14495.0	1.8394120913420283e+18
14496.0	1.8390350301233147e+18
14497.0	1.8386858358603776e+18
14498.0	1.8383229295788027e+18
14499.0	1.837959887401779e+18
14500.0	1.8375967965708283e+18
14501.0	1.8372312042569725e+18
14502.0	1.836847922046566e+18
14503.0	1.836467460086169e+18
14504.0	1.8360394431070203e+18
14505.0	1.8356744212185088e+18
14506.0	1.835308827226931e+18
14507.0	1.8349257429876733e+18
14508.0	1.834588547789619e+18
14509.0	1.834225862967296e+18
14510.0	1.8338630791593981e+18
14511.0	1.8335002617970688e+18
14512.0	1.833135892542259e+18
14513.0	1.8327746824372221e+18
14514.0	1.8324085482192893e+18
14515.0	1.832048720556851e+18
14516.0	1.8314389912289277e+18
14517.0	1.83132232917975e+18
14518.0	1.830961221415731e+18
14519.0	1.8305987244982272e+18
14520.0	1.8302361487278077e+18
14521.0	1.8298735343697915e+18
14522.0	1.8295108847796221e+18
14523.0	1.8291420192309245e+18
14524.0	1.8287795827113981e+18
14525.0	1.8284227246161915e+18
14526.0	1.8280608618774523e+18
14527.0	1.827696121846169e+18
14528.0	1.8273222331990013e+18
14529.0	1.826972084312473e+18
14530.0	1.8266091293769725e+18
14531.0	1.8262479779921917e+18
14532.0	1.8258776394039293e+18
14533.0	1.8255228465840128e+18
14534.0	1.8251605442822141e+18
14535.0	1.8247979215355904e+18
14536.0	1.8244354061631485e+18
14537.0	1.8240473911001085e+18
14538.0	1.8236204445073403e+18
14539.0	1.8232576321781755e+18
14540.0	1.8228947745505275e+18
14541.0	1.8225314270281723e+18
14542.0	1.8221690022526979e+18
14543.0	1.8218025610117117e+18
14544.0	1.821443028628275e+18
14545.0	1.8210794344808445e+18
14546.0	1.8201055036702712e+18
14547.0	1.81978982860718e+18
14548.0	1.8199899354955776e+18
14549.0	1.8196169310076925e+18
14550.0	1.8192662519611387e+18
14551.0	1.8189036124372987e+18
14552.0	1.8185406608572413e+18
14553.0	1.8181770985865213e+18
14554.0	1.8178149758009336e+18
14555.0	1.8174520242208763e+18
14556.0	1.8170889568780285e+18
14557.0	1.8167260925394944e+18
14558.0	1.8163625621454843e+18
14559.0	1.8158174049665016e+18
14560.0	1.8156364543033341e+18
14561.0	1.8152735144673277e+18
14562.0	1.814908673772748e+18
14563.0	1.8145481263677437e+18
14564.0	1.8141845775187965e+18
14565.0	1.8138221812645888e+18
14566.0	1.813459103855411e+18
14567.0	1.8130959408824315e+18
14568.0	1.812732548061593e+18
14569.0	1.8123694924627963e+18
14570.0	1.811956006230425e+18
14571.0	1.8116430155218941e+18
14572.0	1.8112762974568443e+18
14573.0	1.8109134616395776e+18
14574.0	1.8105523404537853e+18
14575.0	1.8101901404930043e+18
14576.0	1.8098270010081275e+18
14577.0	1.8094639118548987e+18
14578.0	1.8091003932049405e+18
14579.0	1.8087372855967741e+18
14580.0	1.8083739414298621e+18
14581.0	1.8080101929320443e+18
14582.0	1.807647123911475e+18
14583.0	1.8072837394792443e+18
14584.0	1.8069190749454333e+18
14585.0	1.806556759221862e+18
14586.0	1.8061929050275837e+18
14587.0	1.80576492495831e+18
14588.0	1.805370101701017e+18
14589.0	1.8050107739996163e+18
14590.0	1.8046520938987517e+18
14591.0	1.804293289646489e+18
14592.0	1.8039343612428288e+18
14593.0	1.8035634119639037e+18
14594.0	1.8032168567570427e+18
14595.0	1.8028574602690555e+18
14596.0	1.8024943006515192e+18
14597.0	1.8021346273394685e+18
14598.0	1.8017804754092027e+18
14599.0	1.8014219312037885e+18
14600.0	1.8010625917583355e+18
14601.0	1.8007033177440253e+18
14602.0	1.8003087058796544e+18
14603.0	1.7998987730616315e+18
14604.0	1.7995346655313915e+18
14605.0	1.799178463425331e+18
14606.0	1.798812169823846e+18
14607.0	1.7984587242143741e+18
14608.0	1.7980993847689216e+18
14609.0	1.7977388541411323e+18
14610.0	1.7973782832480253e+18
14611.0	1.7970184656519165e+18
14612.0	1.7966588107948032e+18
14613.0	1.796298659332096e+18
14614.0	1.795937991131136e+18
14615.0	1.7955779923410941e+18
14616.0	1.7952176059973627e+18
14617.0	1.794857083758182e+18
14618.0	1.7944963719364603e+18
14619.0	1.794131767800627e+18
14620.0	1.7937624308121597e+18
14621.0	1.7934138673725437e+18
14622.0	1.7930528971816955e+18
14623.0	1.7926917726404603e+18
14624.0	1.7923244774391803e+18
14625.0	1.791969330620006e+18
14626.0	1.7916079762309117e+18
14627.0	1.791246286297497e+18
14628.0	1.7908853865709565e+18
14629.0	1.790523869442867e+18
14630.0	1.7901621224669181e+18
14631.0	1.7898004140785661e+18
14632.0	1.7893990560956413e+18
14633.0	1.7890714708869115e+18
14634.0	1.788714705066393e+18
14635.0	1.78835134915543e+18
14636.0	1.7879861125185533e+18
14637.0	1.787628781305856e+18
14638.0	1.7872661501706237e+18
14639.0	1.7869027372171261e+18
14640.0	1.7865403527069693e+18
14641.0	1.786024797247897e+18
14642.0	1.7858148857544704e+18
14643.0	1.7854532427972603e+18
14644.0	1.7850904053022717e+18
14645.0	1.7847251451772928e+18
14646.0	1.7843637723332605e+18
14647.0	1.7840004113891328e+18
