# Flux units: erg / (cm m2 s)
# Wavelength units: Angstrom
wave	flux
14000.0	1.944799639974707e+18
14001.0	1.9443822463287293e+18
14002.0	1.9441299656540155e+18
14003.0	1.9437641602695165e+18
14004.0	1.9433975797776381e+18
14005.0	1.9430307392389115e+18
14006.0	1.942655909389926e+18
14007.0	1.9422871478599675e+18
14008.0	1.9418281383297024e+18
14009.0	1.9415592398225405e+18
14010.0	1.9411807089197053e+18
14011.0	1.9401671436140544e+18
14012.0	1.9404603925725181e+18
14013.0	1.9400981305360381e+18
14014.0	1.9397261914013693e+18
14015.0	1.9393639864074235e+18
14016.0	1.9390004207812603e+18
14017.0	1.9386346724392955e+18
14018.0	1.9382687848464381e+18
14019.0	1.9379031019356155e+18
14020.0	1.9375365969412096e+18
14021.0	1.9371701976432637e+18
14022.0	1.9368029594845181e+18
14023.0	1.9364259519528955e+18
14024.0	1.9360587490263035e+18
14025.0	1.9357091504324605e+18
14026.0	1.9353427897221117e+18
14027.0	1.934979522730393e+18
14028.0	1.9346073302597627e+18
14029.0	1.9342285846085632e+18
14030.0	1.932995125365965e+18
14031.0	1.9334508851494907e+18
14032.0	1.9331345054433277e+18
14033.0	1.9327247202648064e+18
14034.0	1.9324064833208315e+18
14035.0	1.9320442447724541e+18
14036.0	1.9316803519905787e+18
14037.0	1.9313162796924928e+18
14038.0	1.930952207394406e+18
14039.0	1.9305836203474944e+18
14040.0	1.930218920581529e+18
14041.0	1.9298581819162621e+18
14042.0	1.929485177428377e+18
14043.0	1.9290904581898237e+18
14044.0	1.928756303023308e+18
14045.0	1.9284014061846525e+18
14046.0	1.9280367953379325e+18
14047.0	1.927668708252057e+18
14048.0	1.9273136889397243e+18
14049.0	1.926951973840486e+18
14050.0	1.9265888880427005e+18
14051.0	1.9262166972497915e+18
14052.0	1.9258582067314683e+18
14053.0	1.9254998168764408e+18
14054.0	1.9251371807080445e+18
14055.0	1.924774447231795e+18
14056.0	1.924411757376307e+18
14057.0	1.924049208449433e+18
14058.0	1.9236867014655992e+18
14059.0	1.923324278367846e+18
14060.0	1.9229619139903483e+18
14061.0	1.9225924478173181e+18
14062.0	1.9222372070457344e+18
14063.0	1.9218581073952763e+18
14064.0	1.9213549653983227e+18
14065.0	1.9211420692381693e+18
14066.0	1.920789563152793e+18
14067.0	1.920422873609011e+18
14068.0	1.920066164831027e+18
14069.0	1.919702418010931e+18
14070.0	1.9193424125100027e+18
14071.0	1.918978563348889e+18
14072.0	1.918620277512601e+18
14073.0	1.9182590170759165e+18
14074.0	1.9178977901936637e+18
14075.0	1.9175174423183355e+18
14076.0	1.91716886881239e+18
14077.0	1.916621426576589e+18
14078.0	1.9164380717383677e+18
14079.0	1.916081784068505e+18
14080.0	1.9157322509058043e+18
14081.0	1.91537177732055e+18
14082.0	1.9150094246871035e+18
14083.0	1.9146488806375421e+18
14084.0	1.914287747707699e+18
14085.0	1.91360069051351e+18
14086.0	1.9135495736918008e+18
14087.0	1.9132089609748477e+18
14088.0	1.912835880989491e+18
14089.0	1.9124851063128061e+18
14090.0	1.9121274294894587e+18
14091.0	1.911770229139046e+18
14092.0	1.9114107336654845e+18
14093.0	1.911051077130649e+18
14094.0	1.9106913249656832e+18
14095.0	1.91033089500119e+18
14096.0	1.9099363133358075e+18
14097.0	1.9095883790417915e+18
14098.0	1.909237151380275e+18
14099.0	1.9088941378437117e+18
14100.0	1.9085229704609787e+18
14101.0	1.9081771568070653e+18
14102.0	1.9078180891525115e+18
14103.0	1.9074435898146816e+18
14104.0	1.9070977040187387e+18
14105.0	1.9067420673048573e+18
14106.0	1.9063835650424827e+18
14107.0	1.9060245745631227e+18
14108.0	1.9056541353115643e+18
14109.0	1.90530309891031e+18
14110.0	1.9049470511546365e+18
14111.0	1.9045810796756987e+18
14112.0	1.9042246376554493e+18
14113.0	1.9038751799902205e+18
14114.0	1.9035024238051325e+18
14115.0	1.9031551907987453e+18
14116.0	1.9027642816659453e+18
14117.0	1.9009101644169219e+18
14118.0	1.9020756004372475e+18
14119.0	1.9016975342632955e+18
14120.0	1.9013501032857597e+18
14121.0	1.9009966107000827e+18
14122.0	1.90063602302976e+18
14123.0	1.9002826260742144e+18
14124.0	1.8999206207291387e+18
14125.0	1.8990884976590843e+18
14126.0	1.8992219117584381e+18
14127.0	1.8988711773470715e+18
14128.0	1.8985136901062656e+18
14129.0	1.8981458865553403e+18
14130.0	1.8977787826143232e+18
14131.0	1.8974450435227645e+18
14132.0	1.8970781727850493e+18
14133.0	1.8961526979297267e+18
14134.0	1.89637082522583e+18
14135.0	1.8960022968991741e+18
14136.0	1.8956469437202427e+18
14137.0	1.895302641693491e+18
14138.0	1.89493667692544e+18
14139.0	1.8945949216800765e+18
14140.0	1.8942352097804283e+18
14141.0	1.8938634434510845e+18
14142.0	1.8934269288120315e+18
14143.0	1.8931678969855992e+18
14144.0	1.892817793397555e+18
14145.0	1.892461373187686e+18
14146.0	1.8921038238711803e+18
14147.0	1.8917507289055224e+18
14148.0	1.891394610685542e+18
14149.0	1.8910403664805883e+18
14150.0	1.8906878788501504e+18
14151.0	1.8903268834934781e+18
14152.0	1.8899782646890493e+18
14153.0	1.889623356106342e+18
14154.0	1.889241110727884e+18
14155.0	1.888876969643212e+18
14156.0	1.8885547514658808e+18
14157.0	1.8882049951662077e+18
14158.0	1.887846390562816e+18
14159.0	1.88749626516439e+18
14160.0	1.8871334343802875e+18
14161.0	1.8867240719876093e+18
14162.0	1.8863198652334075e+18
14163.0	1.8860745135489021e+18
14164.0	1.8856724123353083e+18
14165.0	1.8853267882639355e+18
14166.0	1.8850156212387835e+18
14167.0	1.8846489702825981e+18
14168.0	1.8843089598676987e+18
14169.0	1.8839579956084728e+18
14170.0	1.8836009563193336e+18
14171.0	1.8832481968979968e+18
14172.0	1.8828979423150075e+18
14173.0	1.8825114824998907e+18
14174.0	1.8821857025196027e+18
14175.0	1.8818388520337405e+18
14176.0	1.881486099323289e+18
14177.0	1.8811332979589115e+18
14178.0	1.8807797869182973e+18
14179.0	1.8804213165326333e+18
14180.0	1.8800752109551608e+18
14181.0	1.8797226595713016e+18
14182.0	1.8793692693266432e+18
14183.0	1.8790175568035837e+18
14184.0	1.8786593598865405e+18
14185.0	1.8783097294159872e+18
14186.0	1.8776716767920125e+18
14187.0	1.8775741961338875e+18
14188.0	1.8772515836919803e+18
14189.0	1.8769020320743421e+18
14190.0	1.876550552754585e+18
14191.0	1.876197778233753e+18
14192.0	1.875839505819238e+18
14193.0	1.8754520829919232e+18
14194.0	1.8751432547106808e+18
14195.0	1.8747951945875453e+18
14196.0	1.874430239807897e+18
14197.0	1.8740611142123515e+18
14198.0	1.8737043970457597e+18
14199.0	1.8733563402780664e+18
14200.0	1.8728363824775165e+18
14201.0	1.8726449745756152e+18
14202.0	1.872303788077875e+18
14203.0	1.87194756080599e+18
14204.0	1.8716011767267325e+18
14205.0	1.8712500379844603e+18
14206.0	1.8707679799148541e+18
14207.0	1.8705505975271421e+18
14208.0	1.8702015576145915e+18
14209.0	1.8697066045767672e+18
14210.0	1.869399838215372e+18
14211.0	1.8691454922653693e+18
14212.0	1.8688005644484605e+18
14213.0	1.8684509037789181e+18
14214.0	1.8681007649587197e+18
14215.0	1.8677384643346432e+18
14216.0	1.8674024787738621e+18
14217.0	1.8670528147488763e+18
14218.0	1.8666426101399547e+18
14219.0	1.8662802692505592e+18
14220.0	1.8659306958225405e+18
14221.0	1.8655792064364541e+18
14222.0	1.8652140922732541e+18
14223.0	1.8648811584880637e+18
14224.0	1.8645304156880893e+18
14225.0	1.863658099441664e+18
14226.0	1.8638238818238461e+18
14227.0	1.8634816450723835e+18
14228.0	1.8617889028308997e+18
14229.0	1.862553489217944e+18
14230.0	1.8624359430094843e+18
14231.0	1.8620800680591355e+18
14232.0	1.8617397673984e+18
14233.0	1.861387902202675e+18
14234.0	1.8610425163677693e+18
14235.0	1.8606912148865021e+18
14236.0	1.8602999081336827e+18
14237.0	1.8599206222561275e+18
14238.0	1.8595721578020861e+18
14239.0	1.859213736070348e+18
14240.0	1.857155431713997e+18
14241.0	1.858511356244787e+18
14242.0	1.8581730285846523e+18
14243.0	1.8576646319636475e+18
14244.0	1.8574824448196608e+18
14245.0	1.8571230818861053e+18
14246.0	1.856773194724147e+18
14247.0	1.8564342496624637e+18
14248.0	1.8560741065883643e+18
14249.0	1.8557387602395136e+18
14250.0	1.8553937921572861e+18
14251.0	1.8550487703879675e+18
14252.0	1.854700963600793e+18
14253.0	1.8543522994978813e+18
14254.0	1.8540022764404733e+18
14255.0	1.8536179490095104e+18
14256.0	1.8526717391929347e+18
14257.0	1.852790781929062e+18
14258.0	1.8524995076489216e+18
14259.0	1.8521322560684032e+18
14260.0	1.851785320018739e+18
14261.0	1.8514359663722493e+18
14262.0	1.851131666261606e+18
14263.0	1.8499762126848e+18
14264.0	1.85023532671959e+18
14265.0	1.8500875429347325e+18
14266.0	1.8497500809789437e+18
14267.0	1.8494044283863037e+18
14268.0	1.8490580644397056e+18
14269.0	1.8487014529695741e+18
14270.0	1.8483646470029312e+18
14271.0	1.8480170180542461e+18
14272.0	1.847668894177689e+18
14273.0	1.8473090765815803e+18
14274.0	1.8457098522198019e+18
14275.0	1.8464857934266365e+18
14276.0	1.846267008463667e+18
14277.0	1.845927714435891e+18
14278.0	1.8455945407365115e+18
14279.0	1.8451835090108413e+18
14280.0	1.8448216143953915e+18
14281.0	1.8444834830286843e+18
14282.0	1.8441379310993403e+18
14283.0	1.8437920369147904e+18
14284.0	1.8434461041426427e+18
14285.0	1.8430998928687104e+18
14286.0	1.8427530910367741e+18
14287.0	1.842407955182387e+18
14288.0	1.8420578515943421e+18
14289.0	1.8406114626371558e+18
14290.0	1.8413666034515965e+18
14291.0	1.841024920348262e+18
14292.0	1.8406785513684984e+18
14293.0	1.8403326924161021e+18
14294.0	1.8398415075409915e+18
14295.0	1.83962570892247e+18
14296.0	1.8384091913125893e+18
14297.0	1.8389422789623803e+18
14298.0	1.8383358463574013e+18
14299.0	1.83824478633984e+18
14300.0	1.8379117938343933e+18
14301.0	1.8375713421787139e+18
14302.0	1.8372285937221627e+18
14303.0	1.8368471821713405e+18
14304.0	1.836475615490867e+18
14305.0	1.8361201247387645e+18
14306.0	1.835760728250777e+18
14307.0	1.8354191541993464e+18
14308.0	1.8350810530316288e+18
14309.0	1.8347278171373563e+18
14310.0	1.8343200368361464e+18
14311.0	1.8339442456526845e+18
14312.0	1.8336476295069693e+18
14313.0	1.8332410319994875e+18
14314.0	1.8330112495714304e+18
14315.0	1.8326746684194816e+18
14316.0	1.8322777765314552e+18
14317.0	1.8319723741577216e+18
14318.0	1.8316481796243453e+18
14319.0	1.8313065351086075e+18
14320.0	1.8309629125591037e+18
14321.0	1.830616867379609e+18
14322.0	1.830233689187942e+18
14323.0	1.8299123014828027e+18
14324.0	1.829590727550566e+18
14325.0	1.8292369346527232e+18
14326.0	1.8289047742971904e+18
14327.0	1.8285543099990013e+18
14328.0	1.82821153973207e+18
14329.0	1.8278758041518077e+18
14330.0	1.8275329281884155e+18
14331.0	1.8271897754009597e+18
14332.0	1.8267836426223613e+18
14333.0	1.826431186868633e+18
14334.0	1.8260881632657403e+18
14335.0	1.8257316608475133e+18
14336.0	1.825345773135462e+18
14337.0	1.8250560088047608e+18
14338.0	1.8247135875039232e+18
14339.0	1.8243614354178043e+18
14340.0	1.824030912518553e+18
14341.0	1.8236859276591096e+18
14342.0	1.823343870423859e+18
14343.0	1.8230016001179643e+18
14344.0	1.822656271325593e+18
14345.0	1.8223188982890493e+18
14346.0	1.82197206122496e+18
14347.0	1.8216109668827133e+18
14348.0	1.821289768760115e+18
14349.0	1.820949981482188e+18
14350.0	1.8205639578746875e+18
14351.0	1.8202146142945277e+18
14352.0	1.819914186365337e+18
14353.0	1.8195812743905277e+18
14354.0	1.819235004396339e+18
14355.0	1.81888312410112e+18
14356.0	1.8185451722506237e+18
14357.0	1.8182168203231227e+18
14358.0	1.8178754895413243e+18
14359.0	1.8175169973452792e+18
14360.0	1.8171884491243515e+18
14361.0	1.8168493715226621e+18
14362.0	1.816509856035635e+18
14363.0	1.816167592440627e+18
14364.0	1.8156290823946235e+18
14365.0	1.8153798652395517e+18
14366.0	1.8150471696908288e+18
14367.0	1.8147314795282427e+18
14368.0	1.8143899390312443e+18
14369.0	1.814049460532019e+18
14370.0	1.8137085374365693e+18
14371.0	1.8133677401702392e+18
14372.0	1.8130208292863997e+18
14373.0	1.812685556757299e+18
14374.0	1.8123446672162813e+18
14375.0	1.812002093242777e+18
14376.0	1.8116635491565563e+18
14377.0	1.8113221613322235e+18
14378.0	1.8109792920797181e+18
14379.0	1.810641633830502e+18
14380.0	1.810300272849715e+18
14381.0	1.8099472382820347e+18
14382.0	1.8096185659097085e+18
14383.0	1.8092765606838264e+18
14384.0	1.8088985649741821e+18
14385.0	1.808559366576537e+18
14386.0	1.808199069152051e+18
14387.0	1.8078787350560765e+18
14388.0	1.8075369043132413e+18
14389.0	1.8071985145774077e+18
14390.0	1.8068566502801405e+18
14391.0	1.8065192084570102e+18
14392.0	1.8061782400630781e+18
14393.0	1.8058397614079997e+18
14394.0	1.8054571150540797e+18
14395.0	1.8051478438543355e+18
14396.0	1.804820532114227e+18
14397.0	1.8044810585702397e+18
14398.0	1.8041409911128061e+18
14399.0	1.8038014487822339e+18
14400.0	1.8034355477676027e+18
14401.0	1.803042442497228e+18
14402.0	1.8027039957188605e+18
14403.0	1.8016310055141366e+18
14404.0	1.798014617885079e+18
14405.0	1.7998870743089106e+18
14406.0	1.8013396238598141e+18
14407.0	1.7999808706904067e+18
14408.0	1.8006509845741568e+18
14409.0	1.800312682079846e+18
14410.0	1.7999859004997624e+18
14411.0	1.799656848962355e+18
14412.0	1.7993154410053624e+18
14413.0	1.798980811043635e+18
14414.0	1.798639045731942e+18
14415.0	1.798301332117913e+18
14416.0	1.7979620414455803e+18
14417.0	1.7976156623994877e+18
14418.0	1.7972674496036861e+18
14419.0	1.796944197949849e+18
14420.0	1.7966013102424061e+18
14421.0	1.7962667322900475e+18
14422.0	1.795919866704691e+18
14423.0	1.7955470266335227e+18
14424.0	1.7910447432794086e+18
14425.0	1.7948746813800448e+18
14426.0	1.7945714382340096e+18
14427.0	1.79423625126871e+18
14428.0	1.793873920445645e+18
14429.0	1.7935579601698813e+18
14430.0	1.7932214629040125e+18
14431.0	1.7926449960845312e+18
14432.0	1.7925384708292605e+18
14433.0	1.7914192963043318e+18
14434.0	1.7918483232718848e+18
14435.0	1.7914966828908541e+18
14436.0	1.7911948104433661e+18
14437.0	1.790858376930918e+18
14438.0	1.7904799685017595e+18
14439.0	1.7901745308958717e+18
14440.0	1.789844593521459e+18
14441.0	1.7894880273498107e+18
14442.0	1.789083763553075e+18
14443.0	1.788700395778867e+18
14444.0	1.788417146041139e+18
14445.0	1.7880812477218813e+18
14446.0	1.7861809562189832e+18
14447.0	1.78738363933655e+18
14448.0	1.7870721199898621e+18
14449.0	1.7867358810931197e+18
14450.0	1.7863917904592893e+18
14451.0	1.7860563619020797e+18
14452.0	1.7857212839886848e+18
14453.0	1.7853736315518976e+18
14454.0	1.7850472274591744e+18
14455.0	1.7846997176287232e+18
14456.0	1.7843668157202427e+18
14457.0	1.7840296742092797e+18
14458.0	1.7836931500998653e+18
14459.0	1.7833513160015872e+18
14460.0	1.783007713584742e+18
14461.0	1.782627882447667e+18
14462.0	1.782241343779635e+18
14463.0	1.7819812633772024e+18
14464.0	1.781664237748224e+18
14465.0	1.7813060173430781e+18
14466.0	1.780994897294131e+18
14467.0	1.7806328600723453e+18
14468.0	1.780320436433715e+18
14469.0	1.77995233928151e+18
14470.0	1.7796167261749248e+18
14471.0	1.7793057185333243e+18
14472.0	1.7789742242332664e+18
14473.0	1.7786423725785085e+18
14474.0	1.7783089958748152e+18
14475.0	1.7779698830409723e+18
14476.0	1.7775866981384187e+18
14477.0	1.777298779301478e+18
14478.0	1.7769604180869115e+18
14479.0	1.7766233269075963e+18
14480.0	1.7762698561323003e+18
14481.0	1.7759547615608824e+18
14482.0	1.7756137596125181e+18
14483.0	1.7752697629310976e+18
14484.0	1.7749314084274168e+18
14485.0	1.774561781193113e+18
14486.0	1.7739249835048952e+18
14487.0	1.7739342227177464e+18
14488.0	1.773588665755238e+18
14489.0	1.7732422196002816e+18
14490.0	1.7729207043883005e+18
14491.0	1.772545520540057e+18
14492.0	1.7721888620937213e+18
14493.0	1.771844429204684e+18
14494.0	1.771491074192179e+18
14495.0	1.7711770181304317e+18
14496.0	1.770687239186022e+18
14497.0	1.7705054077190141e+18
14498.0	1.7701715243433981e+18
14499.0	1.7698355874365435e+18
14500.0	1.7694988250906624e+18
14501.0	1.7691322093666304e+18
14502.0	1.7685660236251133e+18
14503.0	1.7684675044573184e+18
14504.0	1.7681475092611064e+18
14505.0	1.7677952598671355e+18
14506.0	1.7674354020057088e+18
14507.0	1.766860433391616e+18
14508.0	1.766809893706137e+18
14509.0	1.766475857657856e+18
14510.0	1.7661363455262715e+18
14511.0	1.7658037623848957e+18
14512.0	1.7654504677703675e+18
14513.0	1.7651312309043195e+18
14514.0	1.764758075421491e+18
14515.0	1.7644520808120315e+18
14516.0	1.761288065646594e+18
14517.0	1.7637657903366141e+18
14518.0	1.7634520094212093e+18
14519.0	1.7631184481681405e+18
14520.0	1.762782273024819e+18
14521.0	1.7624474652246013e+18
14522.0	1.7621103270690813e+18
14523.0	1.761709529445171e+18
14524.0	1.7613868582830077e+18
14525.0	1.761098813616947e+18
14526.0	1.760767169999667e+18
14527.0	1.7604099277062141e+18
14528.0	1.7599415061577725e+18
14529.0	1.7597503750799352e+18
14530.0	1.7594067340754941e+18
14531.0	1.7590897369677821e+18
14532.0	1.758689994630758e+18
14533.0	1.7584203277271035e+18
14534.0	1.7580873603874816e+18
14535.0	1.7577389529759741e+18
14536.0	1.7574116026482688e+18
14537.0	1.7570641397940221e+18
14538.0	1.7567455421399037e+18
14539.0	1.7564102662553597e+18
14540.0	1.7560747219353595e+18
14541.0	1.7557121159659515e+18
14542.0	1.7554002979848187e+18
14543.0	1.755022097593139e+18
14544.0	1.7547285416116221e+18
14545.0	1.7543776880820221e+18
14546.0	1.7487062642982879e+18
14547.0	1.7487172265312212e+18
14548.0	1.753271057881497e+18
14549.0	1.7528200292728824e+18
14550.0	1.7526167582015488e+18
14551.0	1.752294310176358e+18
14552.0	1.7519125261713403e+18
14553.0	1.7515502993670141e+18
14554.0	1.7512245680406528e+18
14555.0	1.7508888207163384e+18
14556.0	1.7505521070243837e+18
14557.0	1.750216703632998e+18
14558.0	1.749872623065497e+18
14559.0	1.7474496927629268e+18
14560.0	1.7491978501488637e+18
14561.0	1.7488661578776576e+18
14562.0	1.7485083686469632e+18
14563.0	1.7482009311969275e+18
14564.0	1.7478516043939837e+18
14565.0	1.747534261675622e+18
14566.0	1.7471992240275453e+18
14567.0	1.7468619566874621e+18
14568.0	1.7465139133415421e+18
14569.0	1.7461879219683323e+18
14570.0	1.745271379302809e+18
14571.0	1.74551488046039e+18
14572.0	1.7451386597801981e+18
14573.0	1.7447900996960253e+18
14574.0	1.7444770485895163e+18
14575.0	1.7441694265901053e+18
14576.0	1.7438323689652221e+18
14577.0	1.7435006045519872e+18
14578.0	1.7431700782972925e+18
14579.0	1.7428384028033021e+18
14580.0	1.742503068198502e+18
14581.0	1.7421619873972221e+18
14582.0	1.7418272316063736e+18
14583.0	1.7414957977042941e+18
14584.0	1.741141006562099e+18
14585.0	1.740824039653376e+18
14586.0	1.740485284174233e+18
14587.0	1.7401525215166461e+18
14588.0	1.739817821090611e+18
14589.0	1.739485962724966e+18
14590.0	1.739154038928179e+18
14591.0	1.7388196874682365e+18
14592.0	1.7384782811889661e+18
14593.0	1.738019531705548e+18
14594.0	1.7378237332062205e+18
14595.0	1.7374828033998848e+18
14596.0	1.7370296977719293e+18
14597.0	1.736671081424486e+18
14598.0	1.7364796148023293e+18
14599.0	1.73616346997719e+18
14600.0	1.7358288232382461e+18
14601.0	1.7354970017824765e+18
14602.0	1.7351575752146936e+18
14603.0	1.734830632573337e+18
14604.0	1.734444702918246e+18
14605.0	1.7341436005449725e+18
14606.0	1.7337456080715776e+18
14607.0	1.7334934884581376e+18
14608.0	1.7331651231088637e+18
14609.0	1.7328285889331197e+18
14610.0	1.7324766046191619e+18
14611.0	1.7321588240154621e+18
14612.0	1.731805022729011e+18
14613.0	1.7314435626434557e+18
14614.0	1.7311070452449275e+18
14615.0	1.7307778074804221e+18
14616.0	1.730445922271232e+18
14617.0	1.7301122704211965e+18
14618.0	1.7297705218867197e+18
14619.0	1.729336908028313e+18
14620.0	1.7287722204921853e+18
14621.0	1.728777699930931e+18
14622.0	1.7284425364537341e+18
14623.0	1.7281126712213504e+18
14624.0	1.7277112360632315e+18
14625.0	1.7274410641653757e+18
14626.0	1.727108850122752e+18
14627.0	1.726773852739993e+18
14628.0	1.7264450813820925e+18
14629.0	1.7261109480259581e+18
14630.0	1.725774301442867e+18
14631.0	1.7254420706230272e+18
14632.0	1.7247626168631293e+18
14633.0	1.7247247708192763e+18
14634.0	1.7244352212369405e+18
14635.0	1.7240629901787128e+18
14636.0	1.7236408368365565e+18
14637.0	1.7234384499245053e+18
14638.0	1.723095872595558e+18
14639.0	1.7227503156330493e+18
14640.0	1.7224223881691133e+18
14641.0	1.7207691613044726e+18
14642.0	1.7217506368290816e+18
14643.0	1.7214276401889275e+18
14644.0	1.7210791941898237e+18
14645.0	1.7207319477616637e+18
14646.0	1.7204098839347197e+18
14647.0	1.7200613943148541e+18
14648.0	1.7197445129699325e+18
