# Flux units: erg / (cm m2 s)
# Wavelength units: Angstrom
wave	flux
14000.0	1.8883134632230907e+18
14001.0	1.8879095567810555e+18
14002.0	1.8876216815648763e+18
14003.0	1.887247697287577e+18
14004.0	1.8868710856982525e+18
14005.0	1.886494368412467e+18
14006.0	1.886110945273446e+18
14007.0	1.885733353894707e+18
14008.0	1.8852767451840512e+18
14009.0	1.884986497669529e+18
14010.0	1.8845999741009915e+18
14011.0	1.883677785902284e+18
14012.0	1.883859085531545e+18
14013.0	1.8834834268880893e+18
14014.0	1.883102392824627e+18
14015.0	1.8827294940332027e+18
14016.0	1.8823557798690813e+18
14017.0	1.8819801463914493e+18
14018.0	1.881604351852544e+18
14019.0	1.8812289884880893e+18
14020.0	1.8808528818929661e+18
14021.0	1.8803935116525565e+18
14022.0	1.8798261498281981e+18
14023.0	1.8794320983228413e+18
14024.0	1.8790603387043835e+18
14025.0	1.8787074685534203e+18
14026.0	1.878332625282662e+18
14027.0	1.877959679515033e+18
14028.0	1.8775849771728893e+18
14029.0	1.8772096221970427e+18
14030.0	1.874909036386715e+18
14031.0	1.876391588632985e+18
14032.0	1.876083730074828e+18
14033.0	1.8756586725965821e+18
14034.0	1.8753348991713275e+18
14035.0	1.8749648592175104e+18
14036.0	1.8745858736521216e+18
14037.0	1.8742175684624384e+18
14038.0	1.8738439331512317e+18
14039.0	1.873466616918835e+18
14040.0	1.8730895758327803e+18
14041.0	1.8727198261247997e+18
14042.0	1.87233876354007e+18
14043.0	1.8719410361466875e+18
14044.0	1.8715928300617725e+18
14045.0	1.8712266874552317e+18
14046.0	1.870853414531891e+18
14047.0	1.870471925805875e+18
14048.0	1.8701072327507963e+18
14049.0	1.8697386289266683e+18
14050.0	1.8693660572909565e+18
14051.0	1.8689856825720827e+18
14052.0	1.8686208502661123e+18
14053.0	1.8682484866678781e+18
14054.0	1.8678761985671165e+18
14055.0	1.8675039607980027e+18
14056.0	1.8671317817491453e+18
14057.0	1.8667597436289021e+18
14058.0	1.866387755840307e+18
14059.0	1.8660158737481728e+18
14060.0	1.865644062120345e+18
14061.0	1.8652662929031163e+18
14062.0	1.8649006670348288e+18
14063.0	1.8645148967632893e+18
14064.0	1.8638130521309184e+18
14065.0	1.8637785799852027e+18
14066.0	1.8634149942263803e+18
14067.0	1.8630216104542205e+18
14068.0	1.8626727014039547e+18
14069.0	1.8622969420972027e+18
14070.0	1.8619293868490747e+18
14071.0	1.8615572933640187e+18
14072.0	1.861189090515353e+18
14073.0	1.8608184029609981e+18
14074.0	1.860447806003609e+18
14075.0	1.8600604167307261e+18
14076.0	1.859680174551859e+18
14077.0	1.8588923567538176e+18
14078.0	1.8589328284319741e+18
14079.0	1.8585869678018555e+18
14080.0	1.85822611505152e+18
14081.0	1.8578561606615037e+18
14082.0	1.8574821210193915e+18
14083.0	1.8571151009644541e+18
14084.0	1.8567462656147456e+18
14085.0	1.8559473379442683e+18
14086.0	1.8559711716573184e+18
14087.0	1.8556378972946424e+18
14088.0	1.8552528450879488e+18
14089.0	1.8548795386101755e+18
14090.0	1.8545226821926907e+18
14091.0	1.8541609553494013e+18
14092.0	1.8537920679903227e+18
14093.0	1.8534230933897213e+18
14094.0	1.853054138921779e+18
14095.0	1.852684998226739e+18
14096.0	1.8522258712559616e+18
14097.0	1.8519205997445117e+18
14098.0	1.851538345977446e+18
14099.0	1.851210871498342e+18
14100.0	1.850832005051187e+18
14101.0	1.8504747073929216e+18
14102.0	1.85010635187159e+18
14103.0	1.849725119836979e+18
14104.0	1.8493704847228925e+18
14105.0	1.849002114102067e+18
14106.0	1.8486346024747005e+18
14107.0	1.848265584253337e+18
14108.0	1.8478890162847741e+18
14109.0	1.8475268029022203e+18
14110.0	1.8471575061790715e+18
14111.0	1.8467847919370237e+18
14112.0	1.8464223671615483e+18
14113.0	1.8460502971645947e+18
14114.0	1.8456821614247933e+18
14115.0	1.8453232699310077e+18
14116.0	1.844892291773235e+18
14117.0	1.8412696764416e+18
14118.0	1.8442236341518328e+18
14119.0	1.8438016972357627e+18
14120.0	1.8434468373069821e+18
14121.0	1.843108016396697e+18
14122.0	1.84269040296919e+18
14123.0	1.842342310969344e+18
14124.0	1.8419675750727677e+18
14125.0	1.8412442539261947e+18
14126.0	1.841283990762291e+18
14127.0	1.8409293355155453e+18
14128.0	1.8405624312233981e+18
14129.0	1.8401870275936253e+18
14130.0	1.8398137999687675e+18
14131.0	1.839466521663897e+18
14132.0	1.8390958844411904e+18
14133.0	1.8382487306633206e+18
14134.0	1.8383692145623037e+18
14135.0	1.837979783502233e+18
14136.0	1.837546776979046e+18
14137.0	1.8372658542411776e+18
14138.0	1.83686909657088e+18
14139.0	1.8365431353966587e+18
14140.0	1.8361701292310525e+18
14141.0	1.8357927408566264e+18
14142.0	1.8351862478536704e+18
14143.0	1.835077086897766e+18
14144.0	1.8347198764810237e+18
14145.0	1.8343544804605947e+18
14146.0	1.8339851703156733e+18
14147.0	1.8336229384781821e+18
14148.0	1.833251885180518e+18
14149.0	1.8328885879898107e+18
14150.0	1.8325347414048765e+18
14151.0	1.8321532140912637e+18
14152.0	1.8318069172535296e+18
14153.0	1.831442948974182e+18
14154.0	1.8310568800681981e+18
14155.0	1.8304869983059965e+18
14156.0	1.8303096899764216e+18
14157.0	1.8299880908783616e+18
14158.0	1.8296204601327613e+18
14159.0	1.8292614897860603e+18
14160.0	1.8288908022317056e+18
14161.0	1.82848367624192e+18
14162.0	1.8280768153321464e+18
14163.0	1.8278067424198653e+18
14164.0	1.8273346886041597e+18
14165.0	1.8269945859145725e+18
14166.0	1.8267180755845115e+18
14167.0	1.8263451382054912e+18
14168.0	1.8259852769886205e+18
14169.0	1.825430994681856e+18
14170.0	1.824832868476518e+18
14171.0	1.8244759902486525e+18
14172.0	1.8241163035148285e+18
14173.0	1.823704421184307e+18
14174.0	1.823385534962073e+18
14175.0	1.8230300844752893e+18
14176.0	1.8226667335974907e+18
14177.0	1.8223057181081592e+18
14178.0	1.8219187818201085e+18
14179.0	1.8215229066313728e+18
14180.0	1.8211711622316032e+18
14181.0	1.8208094722981885e+18
14182.0	1.8204471230201853e+18
14183.0	1.8200862853693437e+18
14184.0	1.8197201545068541e+18
14185.0	1.8193625565364221e+18
14186.0	1.818394591703859e+18
14187.0	1.8186171699953661e+18
14188.0	1.8182786829516797e+18
14189.0	1.817912694695526e+18
14190.0	1.8175529072984061e+18
14191.0	1.817189499378073e+18
14192.0	1.8168283765145592e+18
14193.0	1.8163733415067645e+18
14194.0	1.8161086557585403e+18
14195.0	1.815754431686246e+18
14196.0	1.8153694734319613e+18
14197.0	1.814983656184217e+18
14198.0	1.814618936285593e+18
14199.0	1.8142602092085243e+18
14200.0	1.8135351918854141e+18
14201.0	1.813516606085529e+18
14202.0	1.8131813503336445e+18
14203.0	1.812811249981849e+18
14204.0	1.8124596616101888e+18
14205.0	1.8120999480328187e+18
14206.0	1.8116297262891008e+18
14207.0	1.8113825760870397e+18
14208.0	1.811023290328678e+18
14209.0	1.8105461614051325e+18
14210.0	1.8102183933247485e+18
14211.0	1.809940560950067e+18
14212.0	1.8095848319614968e+18
14213.0	1.8092214743728125e+18
14214.0	1.8088664550604797e+18
14215.0	1.808497292555059e+18
14216.0	1.80811659739136e+18
14217.0	1.8077412524818427e+18
14218.0	1.807371905427046e+18
14219.0	1.8070233050775547e+18
14220.0	1.806661064851456e+18
14221.0	1.806299064539545e+18
14222.0	1.8059023806889981e+18
14223.0	1.8055871116345347e+18
14224.0	1.8052294834651133e+18
14225.0	1.803737619863962e+18
14226.0	1.8045054257987581e+18
14227.0	1.8041542736347133e+18
14228.0	1.8010684302295048e+18
14229.0	1.8027957150810086e+18
14230.0	1.8030802264653821e+18
14231.0	1.8026829990330368e+18
14232.0	1.8023645204971517e+18
14233.0	1.8020024362991616e+18
14234.0	1.8016492138266624e+18
14235.0	1.8012892838232061e+18
14236.0	1.800933845080473e+18
14237.0	1.8005752421548032e+18
14238.0	1.8002186004856827e+18
14239.0	1.799809387410227e+18
14240.0	1.798031973915033e+18
14241.0	1.799088950267084e+18
14242.0	1.7987366689964027e+18
14243.0	1.7982446553268224e+18
14244.0	1.798026965916057e+18
14245.0	1.7976544026689533e+18
14246.0	1.7972935113310203e+18
14247.0	1.7969519909666808e+18
14248.0	1.796584798106419e+18
14249.0	1.7962407913586685e+18
14250.0	1.795883919841689e+18
14251.0	1.7954753761771515e+18
14252.0	1.7950181349654525e+18
14253.0	1.7946609564254203e+18
14254.0	1.7943031319625725e+18
14255.0	1.7939183800680443e+18
14256.0	1.792436626417255e+18
14257.0	1.7931677925900285e+18
14258.0	1.7928804961878016e+18
14259.0	1.7925076292730875e+18
14260.0	1.7921308700442621e+18
14261.0	1.7917957703204861e+18
14262.0	1.7914752617414653e+18
14263.0	1.7894455122067466e+18
14264.0	1.790375607507353e+18
14265.0	1.790357154247475e+18
14266.0	1.7900074432462843e+18
14267.0	1.7896536386043904e+18
14268.0	1.789298389444198e+18
14269.0	1.788937877271347e+18
14270.0	1.7885878072377344e+18
14271.0	1.788231215900262e+18
14272.0	1.7878767569469437e+18
14273.0	1.7875177664675837e+18
14274.0	1.7845842920603656e+18
14275.0	1.7865736890351616e+18
14276.0	1.7864404628406272e+18
14277.0	1.7860878527365117e+18
14278.0	1.7857483842256893e+18
14279.0	1.7853928733409272e+18
14280.0	1.7850334768529405e+18
14281.0	1.7846853747867643e+18
14282.0	1.7843313268752384e+18
14283.0	1.783977064215347e+18
14284.0	1.7836228032331776e+18
14285.0	1.783268047323136e+18
14286.0	1.782910237959782e+18
14287.0	1.7825604883709947e+18
14288.0	1.782206420326809e+18
14289.0	1.7809395576471537e+18
14290.0	1.7814971970748416e+18
14291.0	1.7811442161942525e+18
14292.0	1.7807466884497403e+18
14293.0	1.7803908973854717e+18
14294.0	1.7799146811424765e+18
14295.0	1.7796737217331197e+18
14296.0	1.7785946682425347e+18
14297.0	1.778976034494873e+18
14298.0	1.7782047120556027e+18
14299.0	1.7782546007851003e+18
14300.0	1.777912880771891e+18
14301.0	1.777562033953177e+18
14302.0	1.777210754282291e+18
14303.0	1.7768279384784893e+18
14304.0	1.776489978239385e+18
14305.0	1.7761502513594363e+18
14306.0	1.7757621356331003e+18
14307.0	1.7754223517106168e+18
14308.0	1.775084834390016e+18
14309.0	1.7747183428173824e+18
14310.0	1.7742185059319803e+18
14311.0	1.77360656704471e+18
14312.0	1.773572252604825e+18
14313.0	1.7732233183887352e+18
14314.0	1.7729569180090365e+18
14315.0	1.7726242778251256e+18
14316.0	1.772227590619136e+18
14317.0	1.7718754838315003e+18
14318.0	1.7715730778685437e+18
14319.0	1.771222679001497e+18
14320.0	1.7708707936731133e+18
14321.0	1.7705175712006141e+18
14322.0	1.7701334903947256e+18
14323.0	1.769796915953664e+18
14324.0	1.7694218763894784e+18
14325.0	1.7690618574667776e+18
14326.0	1.7687191425646587e+18
14327.0	1.768361933825638e+18
14328.0	1.7680105820127224e+18
14329.0	1.767665404215296e+18
14330.0	1.7673142033973243e+18
14331.0	1.7669587361333243e+18
14332.0	1.7666121440165885e+18
14333.0	1.7662612233781243e+18
14334.0	1.7659103446827005e+18
14335.0	1.7655466783932413e+18
14336.0	1.765086793092301e+18
14337.0	1.7648574988812288e+18
14338.0	1.7645055263113213e+18
14339.0	1.7641467858124797e+18
14340.0	1.7638053661114368e+18
14341.0	1.7634473772318715e+18
14342.0	1.7631038821892093e+18
14343.0	1.7623122341527557e+18
14344.0	1.7618580933705723e+18
14345.0	1.7615131319992315e+18
14346.0	1.7611567973531643e+18
14347.0	1.760756013151027e+18
14348.0	1.76045997246382e+18
14349.0	1.7601130330587139e+18
14350.0	1.7596711832649725e+18
14351.0	1.7593103741353981e+18
14352.0	1.759056294943129e+18
14353.0	1.7587128888197115e+18
14354.0	1.7583524705992704e+18
14355.0	1.7579809827717117e+18
14356.0	1.757639526160793e+18
14357.0	1.7573167459467261e+18
14358.0	1.7569671037321213e+18
14359.0	1.7566049658470397e+18
14360.0	1.756241953869005e+18
14361.0	1.7558708905050112e+18
14362.0	1.755525284888576e+18
14363.0	1.75517563092992e+18
14364.0	1.7545398616850427e+18
14365.0	1.7544122927677435e+18
14366.0	1.7540755102892032e+18
14367.0	1.7537803084627963e+18
14368.0	1.7534309648826368e+18
14369.0	1.7530826145136637e+18
14370.0	1.7527340812730368e+18
14371.0	1.752385774524825e+18
14372.0	1.75203169641431e+18
14373.0	1.7516861629399037e+18
14374.0	1.7513394550603776e+18
14375.0	1.7509898883432443e+18
14376.0	1.7506430714118136e+18
14377.0	1.750294143906611e+18
14378.0	1.7499439564324861e+18
14379.0	1.749598152844902e+18
14380.0	1.7492486129713147e+18
14381.0	1.7488917884305403e+18
14382.0	1.7485523551518715e+18
14383.0	1.7481996276072443e+18
14384.0	1.7478409273737208e+18
14385.0	1.747510011887616e+18
14386.0	1.74714902324183e+18
14387.0	1.7468142724841472e+18
14388.0	1.7464648198520827e+18
14389.0	1.7461187847389184e+18
14390.0	1.745769746504089e+18
14391.0	1.745423843930931e+18
14392.0	1.7450747838857208e+18
14393.0	1.7447294064394237e+18
14394.0	1.7443482096369661e+18
14395.0	1.7440173662928893e+18
14396.0	1.7436871520944128e+18
14397.0	1.7433406572855293e+18
14398.0	1.742992639105433e+18
14399.0	1.7426459463254013e+18
14400.0	1.7422796527239165e+18
14401.0	1.7419194475741181e+18
14402.0	1.741560057797017e+18
14403.0	1.7395981284802537e+18
14404.0	1.735644943273163e+18
14405.0	1.738942520177456e+18
14406.0	1.7401726977966072e+18
14407.0	1.737606352496231e+18
14408.0	1.7394389663875064e+18
14409.0	1.739116516684595e+18
14410.0	1.7387657352970235e+18
14411.0	1.738440545874739e+18
14412.0	1.7380923196571643e+18
14413.0	1.7377495024140285e+18
14414.0	1.7374008299225085e+18
14415.0	1.7370556521250819e+18
14416.0	1.7367006277795837e+18
14417.0	1.7363354599292923e+18
14418.0	1.7359708356607995e+18
14419.0	1.7356702298931197e+18
14420.0	1.7353209752322043e+18
14421.0	1.7349791344230397e+18
14422.0	1.734628643281305e+18
14423.0	1.7342670439448568e+18
14424.0	1.7248557421559762e+18
14425.0	1.73358372135895e+18
14426.0	1.7332501903048696e+18
14427.0	1.7329048430575608e+18
14428.0	1.7325411834789888e+18
14429.0	1.7322094643642365e+18
14430.0	1.7318689355333627e+18
14431.0	1.7310101501116413e+18
14432.0	1.7311710301913085e+18
14433.0	1.7291548349693942e+18
14434.0	1.7304706736979965e+18
14435.0	1.7300686077165563e+18
14436.0	1.72979731342295e+18
14437.0	1.7294529375764475e+18
14438.0	1.729018322118246e+18
14439.0	1.7287460329357307e+18
14440.0	1.7284172749996027e+18
14441.0	1.7280646128861181e+18
14442.0	1.727715499153817e+18
14443.0	1.7273328980983805e+18
14444.0	1.727033569076838e+18
14445.0	1.7266931492978688e+18
14446.0	1.7240527275556872e+18
14447.0	1.7259877613174781e+18
14448.0	1.7256600939003904e+18
14449.0	1.7253157482528763e+18
14450.0	1.7249549324124157e+18
14451.0	1.7245825604255736e+18
14452.0	1.7242372685430781e+18
14453.0	1.7238663997947896e+18
14454.0	1.7235487852855293e+18
14455.0	1.7231968177487867e+18
14456.0	1.7228493834158077e+18
14457.0	1.7225054890754043e+18
14458.0	1.7221649048797181e+18
14459.0	1.7218173614948347e+18
14460.0	1.7214646289170427e+18
14461.0	1.7210441683959805e+18
14462.0	1.7203924758953984e+18
14463.0	1.7204076542427133e+18
14464.0	1.7200950561210365e+18
14465.0	1.7197363625983997e+18
14466.0	1.7194175787171837e+18
14467.0	1.7190390427811837e+18
14468.0	1.7187256410308603e+18
14469.0	1.7183288095408125e+18
14470.0	1.7180159882821627e+18
14471.0	1.7176905304244221e+18
14472.0	1.7173516793151485e+18
14473.0	1.7170121688612856e+18
14474.0	1.7166709571977208e+18
14475.0	1.7163233869692925e+18
14476.0	1.715876834521907e+18
14477.0	1.7150068586971133e+18
14478.0	1.7146297958006781e+18
14479.0	1.7142851783622653e+18
14480.0	1.7139284746174461e+18
14481.0	1.7136024966660093e+18
14482.0	1.713255292180889e+18
14483.0	1.712905883169587e+18
14484.0	1.7125613009633277e+18
14485.0	1.7121945107562493e+18
14486.0	1.711600998285312e+18
14487.0	1.7115371341348861e+18
14488.0	1.7111532395560957e+18
14489.0	1.7108063706152952e+18
14490.0	1.7105004984795133e+18
14491.0	1.7101685260287997e+18
14492.0	1.7098262540451835e+18
14493.0	1.7094735516663805e+18
14494.0	1.709118784012288e+18
14495.0	1.7087973476532221e+18
14496.0	1.708326448109977e+18
14497.0	1.7081106411028475e+18
14498.0	1.7077688304926715e+18
14499.0	1.70742632195031e+18
14500.0	1.707083135608422e+18
14501.0	1.7066889029091325e+18
14502.0	1.7061383820541952e+18
14503.0	1.7060251425570813e+18
14504.0	1.7057061154062333e+18
14505.0	1.7053217762312187e+18
14506.0	1.704923055626649e+18
14507.0	1.7044068223680507e+18
14508.0	1.704298574092697e+18
14509.0	1.7039560236072957e+18
14510.0	1.7036103794032637e+18
14511.0	1.7032702414815227e+18
14512.0	1.7029126955204603e+18
14513.0	1.7025849777717248e+18
14514.0	1.7022081145241597e+18
14515.0	1.7018986688413693e+18
14516.0	1.699241375930779e+18
14517.0	1.7012122273710077e+18
14518.0	1.7008717388054525e+18
14519.0	1.7005293158268928e+18
14520.0	1.7001860489543677e+18
14521.0	1.6998432921092093e+18
14522.0	1.6994900176273405e+18
14523.0	1.6989703081295867e+18
14524.0	1.6986687108284413e+18
14525.0	1.6984317880172536e+18
14526.0	1.6980925124444152e+18
14527.0	1.697724427036262e+18
14528.0	1.6972836342071293e+18
14529.0	1.697056443858944e+18
14530.0	1.6967086202945533e+18
14531.0	1.6963805200252925e+18
14532.0	1.6958907494694907e+18
14533.0	1.6956966823788536e+18
14534.0	1.6953566551867384e+18
14535.0	1.695004152456806e+18
14536.0	1.6946684470755325e+18
14537.0	1.694318110284185e+18
14538.0	1.6939877635457021e+18
14539.0	1.6936457499312125e+18
14540.0	1.693303630620262e+18
14541.0	1.692940182434611e+18
14542.0	1.6926172763914235e+18
14543.0	1.6922002367447037e+18
14544.0	1.6919341484212216e+18
14545.0	1.6915829845131261e+18
14546.0	1.6799752549040074e+18
14547.0	1.6805996810731456e+18
14548.0	1.6905515665719293e+18
14549.0	1.690108535662182e+18
14550.0	1.6898762467180544e+18
14551.0	1.6895401655271424e+18
14552.0	1.6891962443431933e+18
14553.0	1.6888484409114621e+18
14554.0	1.6885138377932797e+18
14555.0	1.688171198388633e+18
14556.0	1.6878267285897213e+18
14557.0	1.6874869966766075e+18
14558.0	1.68714346472407e+18
14559.0	1.6850815683657708e+18
14560.0	1.686438221027737e+18
14561.0	1.686110897543577e+18
14562.0	1.6857430856040443e+18
14563.0	1.6854292174471163e+18
14564.0	1.6850442642259965e+18
14565.0	1.684749121119846e+18
14566.0	1.684406904501043e+18
14567.0	1.6840614733676541e+18
14568.0	1.683668908323635e+18
14569.0	1.6833779343556605e+18
14570.0	1.6825297471012856e+18
14571.0	1.6823120073588733e+18
14572.0	1.6814508110512125e+18
14573.0	1.6811138356346875e+18
14574.0	1.6807119961456637e+18
14575.0	1.6804656176955387e+18
14576.0	1.6801201144201213e+18
14577.0	1.6797892140335104e+18
14578.0	1.6794487472783352e+18
14579.0	1.6791103491538941e+18
14580.0	1.6787677063938048e+18
14581.0	1.6784162321072128e+18
14582.0	1.678073528949145e+18
14583.0	1.6777378604777472e+18
14584.0	1.6773672584871933e+18
14585.0	1.6770519542005757e+18
14586.0	1.676706153968435e+18
14587.0	1.6763641135104e+18
14588.0	1.6760228347379712e+18
14589.0	1.67568772998103e+18
14590.0	1.6753528684937213e+18
14591.0	1.6750118397018107e+18
14592.0	1.674675443099238e+18
14593.0	1.674234459009843e+18
14594.0	1.6740106845028347e+18
14595.0	1.6736698704592893e+18
14596.0	1.6730649041829885e+18
14597.0	1.6726808854527995e+18
14598.0	1.6726374676955133e+18
14599.0	1.672332080421273e+18
14600.0	1.6719879662993403e+18
14601.0	1.6716564904542205e+18
14602.0	1.6713002497605632e+18
14603.0	1.6709842139873272e+18
14604.0	1.6705868355600381e+18
14605.0	1.6702494742675453e+18
14606.0	1.669907854917632e+18
14607.0	1.669629666865971e+18
14608.0	1.6693027527458813e+18
14609.0	1.6689545550495736e+18
14610.0	1.6685259290574848e+18
14611.0	1.6682763193155581e+18
14612.0	1.6679597047283707e+18
14613.0	1.667626551161651e+18
14614.0	1.667287698374656e+18
14615.0	1.6669511222558715e+18
14616.0	1.6666186146119677e+18
14617.0	1.666281622418227e+18
14618.0	1.6659215783297021e+18
14619.0	1.665393564110028e+18
14620.0	1.6645911736221693e+18
14621.0	1.664933831481753e+18
14622.0	1.6645942623076347e+18
14623.0	1.664260009833267e+18
14624.0	1.6638663861469181e+18
14625.0	1.6635821113212925e+18
14626.0	1.6632444211953661e+18
14627.0	1.662902060292505e+18
14628.0	1.6625716783218685e+18
14629.0	1.6622334580359165e+18
14630.0	1.6618884094230528e+18
14631.0	1.6615564856262656e+18
14632.0	1.6605038830944256e+18
14633.0	1.660759091393331e+18
14634.0	1.6605303575412733e+18
14635.0	1.6598402603155443e+18
14636.0	1.6590852654628856e+18
14637.0	1.6595251170902013e+18
14638.0	1.6591701028110333e+18
14639.0	1.658822180261068e+18
14640.0	1.6585017505349624e+18
14641.0	1.655335455345867e+18
14642.0	1.6578200050073597e+18
14643.0	1.657483027913113e+18
14644.0	1.6571301946720253e+18
14645.0	1.6567800071979003e+18
14646.0	1.656431262564352e+18
14647.0	1.6560599223762941e+18
14648.0	1.6557677907804157e+18
