# Flux units: erg / (cm m2 s)
# Wavelength units: Angstrom
wave	flux
14000.0	1.6305789014638592e+18
14001.0	1.630093664111821e+18
14002.0	1.629997302494003e+18
14003.0	1.6297072865050621e+18
14004.0	1.629413648315187e+18
14005.0	1.6291200134807547e+18
14006.0	1.6288162049425405e+18
14007.0	1.628522657349632e+18
14008.0	1.628120119928422e+18
14009.0	1.6279443987234813e+18
14010.0	1.6276372246757376e+18
14011.0	1.6265275192115197e+18
14012.0	1.6270654554767357e+18
14013.0	1.6267727769436157e+18
14014.0	1.626473080501043e+18
14015.0	1.6261837825769472e+18
14016.0	1.6258936659247104e+18
14017.0	1.625600822974873e+18
14018.0	1.6253078374187003e+18
14019.0	1.6250151957954557e+18
14020.0	1.6247216079372285e+18
14021.0	1.6244281425526781e+18
14022.0	1.6241361636294653e+18
14023.0	1.6238324255555581e+18
14024.0	1.6235361164328957e+18
14025.0	1.6232596128137213e+18
14026.0	1.622965112274944e+18
14027.0	1.6226751986270205e+18
14028.0	1.6223760222781437e+18
14029.0	1.6220871404290043e+18
14030.0	1.621536094447206e+18
14031.0	1.6214837394669565e+18
14032.0	1.6212121868042235e+18
14033.0	1.6208756576616443e+18
14034.0	1.6206307455401981e+18
14035.0	1.6203393605304312e+18
14036.0	1.6200476886302715e+18
14037.0	1.6197560737726461e+18
14038.0	1.6194645025357821e+18
14039.0	1.619168322597683e+18
14040.0	1.6188729714540541e+18
14041.0	1.6185862823870461e+18
14042.0	1.6182838562914304e+18
14043.0	1.6179547728773115e+18
14044.0	1.6176994488156157e+18
14045.0	1.6174198229565437e+18
14046.0	1.6171297650245632e+18
14047.0	1.6168346353401853e+18
14048.0	1.616550100467712e+18
14049.0	1.6162614132342781e+18
14050.0	1.6159706322042875e+18
14051.0	1.6156691607322621e+18
14052.0	1.6153852231286784e+18
14053.0	1.6150982404603904e+18
14054.0	1.6148080667656187e+18
14055.0	1.6145175810146304e+18
14056.0	1.6142271204294653e+18
14057.0	1.6139368058060795e+18
14058.0	1.6136465096376315e+18
14059.0	1.6133562872889341e+18
14060.0	1.6130661102387197e+18
14061.0	1.612766967444275e+18
14062.0	1.6124859423653885e+18
14063.0	1.6121773791641597e+18
14064.0	1.6118520219697147e+18
14065.0	1.611604964042342e+18
14066.0	1.6113264001810432e+18
14067.0	1.6110367096700925e+18
14068.0	1.610747040969523e+18
14069.0	1.610456124044083e+18
14070.0	1.6101677706772477e+18
14071.0	1.609874550240051e+18
14072.0	1.6095889315594237e+18
14073.0	1.6092995883368448e+18
14074.0	1.6090104044978176e+18
14075.0	1.6087014285770747e+18
14076.0	1.6084295051378685e+18
14077.0	1.608083480091033e+18
14078.0	1.6078497231405056e+18
14079.0	1.6075530650517501e+18
14080.0	1.6072760077844477e+18
14081.0	1.6069871628451837e+18
14082.0	1.6066948735434747e+18
14083.0	1.6064078153777147e+18
14084.0	1.606120795799552e+18
14085.0	1.6055267229696e+18
14086.0	1.605538931749683e+18
14087.0	1.6052553666002941e+18
14088.0	1.6049539739811837e+18
14089.0	1.6046785592033277e+18
14090.0	1.6043877798510587e+18
14091.0	1.604102176269926e+18
14092.0	1.603814032618291e+18
14093.0	1.6035259409760253e+18
14094.0	1.6032379197980672e+18
14095.0	1.6029499103641597e+18
14096.0	1.6026474792353792e+18
14097.0	1.6023591309017085e+18
14098.0	1.6020811525652475e+18
14099.0	1.601798639347302e+18
14100.0	1.6014948559749115e+18
14101.0	1.6012234526294016e+18
14102.0	1.600935644522086e+18
14103.0	1.600627426931507e+18
14104.0	1.6003577667387392e+18
14105.0	1.6000733241409533e+18
14106.0	1.5997862508756987e+18
14107.0	1.5994980585701376e+18
14108.0	1.5991989694627837e+18
14109.0	1.5989189342396413e+18
14110.0	1.598633402800537e+18
14111.0	1.5983392025739261e+18
14112.0	1.5980550183452672e+18
14113.0	1.5977768789475325e+18
14114.0	1.5974752313147392e+18
14115.0	1.597201566400512e+18
14116.0	1.5968991419826168e+18
14117.0	1.596172195279667e+18
14118.0	1.5963433799254013e+18
14119.0	1.5960450457927675e+18
14120.0	1.5957650424463357e+18
14121.0	1.5954719746818043e+18
14122.0	1.595186290570035e+18
14123.0	1.594906139584102e+18
14124.0	1.5946187727175677e+18
14125.0	1.5937670756696056e+18
14126.0	1.594053207733043e+18
14127.0	1.593767578986086e+18
14128.0	1.5934799604613115e+18
14129.0	1.5931817202810875e+18
14130.0	1.5928863859146747e+18
14131.0	1.5926242939240448e+18
14132.0	1.592332100252467e+18
14133.0	1.5913825870020598e+18
14134.0	1.5917668406132733e+18
14135.0	1.5914664680488952e+18
14136.0	1.5911874428141565e+18
14137.0	1.590910422456729e+18
14138.0	1.5906208158318592e+18
14139.0	1.5903399467810813e+18
14140.0	1.590048452719411e+18
14141.0	1.589768321866137e+18
14142.0	1.5894499389603835e+18
14143.0	1.589195104793395e+18
14144.0	1.588915101446963e+18
14145.0	1.5886281623994363e+18
14146.0	1.588343538607718e+18
14147.0	1.588059881183641e+18
14148.0	1.5877756315238397e+18
14149.0	1.5874916855316477e+18
14150.0	1.587207063417651e+18
14151.0	1.5869193912057853e+18
14152.0	1.5866381530562557e+18
14153.0	1.5863535762407421e+18
14154.0	1.5860403523289088e+18
14155.0	1.585744684095897e+18
14156.0	1.585494760620032e+18
14157.0	1.585216782283571e+18
14158.0	1.5849276739420157e+18
14159.0	1.5846482645090304e+18
14160.0	1.5843560305721341e+18
14161.0	1.5840084049788925e+18
14162.0	1.58366687119278e+18
14163.0	1.5835110091784187e+18
14164.0	1.583203816675737e+18
14165.0	1.5828671768035325e+18
14166.0	1.582660525123174e+18
14167.0	1.5823622010568696e+18
14168.0	1.5820932102750205e+18
14169.0	1.581811769121177e+18
14170.0	1.581524363667046e+18
14171.0	1.5812411491614715e+18
14172.0	1.5809618051596288e+18
14173.0	1.5806277204574205e+18
14174.0	1.5803899671740413e+18
14175.0	1.5801124887986176e+18
14176.0	1.5798295125295104e+18
14177.0	1.5795466050469888e+18
14178.0	1.579262660732518e+18
14179.0	1.5789705928900605e+18
14180.0	1.5786982013665275e+18
14181.0	1.578415506954649e+18
14182.0	1.5781318226870272e+18
14183.0	1.5778502959693821e+18
14184.0	1.5775615131058168e+18
14185.0	1.5772852376567803e+18
14186.0	1.5768994136981504e+18
14187.0	1.5766909936992253e+18
14188.0	1.576433481888563e+18
14189.0	1.5761546781130747e+18
14190.0	1.575872936647065e+18
14191.0	1.5755908680253437e+18
14192.0	1.575299536702668e+18
14193.0	1.5750146847408125e+18
14194.0	1.5747441051566075e+18
14195.0	1.5744640514785277e+18
14196.0	1.574181877160345e+18
14197.0	1.5739001256280064e+18
14198.0	1.573611998753587e+18
14199.0	1.5733340690710528e+18
14200.0	1.5730045762928635e+18
14201.0	1.5727715139190781e+18
14202.0	1.5724906834558976e+18
14203.0	1.5721990434324475e+18
14204.0	1.5719261687250941e+18
14205.0	1.5716450564046848e+18
14206.0	1.571211981094912e+18
14207.0	1.5710858231414781e+18
14208.0	1.5708050799198203e+18
14209.0	1.5703601263411197e+18
14210.0	1.5701265539399675e+18
14211.0	1.569956317206937e+18
14212.0	1.5696802917384192e+18
14213.0	1.569400430998323e+18
14214.0	1.5691187398639613e+18
14215.0	1.5688215398711293e+18
14216.0	1.568558959663513e+18
14217.0	1.5682783473041403e+18
14218.0	1.5679843567927293e+18
14219.0	1.5677173155233787e+18
14220.0	1.5671984834740221e+18
14221.0	1.5667375076540413e+18
14222.0	1.5664465269751803e+18
14223.0	1.5661772811796475e+18
14224.0	1.5658974388944893e+18
14225.0	1.565454077473587e+18
14226.0	1.565336720847667e+18
14227.0	1.5650573483245563e+18
14228.0	1.5643303580008448e+18
14229.0	1.5644056575016952e+18
14230.0	1.5642178399240195e+18
14231.0	1.563934734470348e+18
14232.0	1.563658292926873e+18
14233.0	1.563373662424268e+18
14234.0	1.5630992928669693e+18
14235.0	1.5628165061804032e+18
14236.0	1.5625402357645307e+18
14237.0	1.5622591888752637e+18
14238.0	1.5619710955552765e+18
14239.0	1.561676108477235e+18
14240.0	1.559227202011136e+18
14241.0	1.5611226180550656e+18
14242.0	1.5608447068274685e+18
14243.0	1.5603735925358595e+18
14244.0	1.5602867486326781e+18
14245.0	1.559989171152486e+18
14246.0	1.5597054248091643e+18
14247.0	1.5594446984839163e+18
14248.0	1.559148037039718e+18
14249.0	1.5588899514482685e+18
14250.0	1.5586110084218875e+18
14251.0	1.558335427549593e+18
14252.0	1.5580567210819581e+18
14253.0	1.5577772193742843e+18
14254.0	1.5574966657351683e+18
14255.0	1.5571766487285752e+18
14256.0	1.5567828002275325e+18
14257.0	1.5566506007986173e+18
14258.0	1.556374422657433e+18
14259.0	1.5560665137676285e+18
14260.0	1.5557987930210304e+18
14261.0	1.555510364156723e+18
14262.0	1.5552747952668672e+18
14263.0	1.5547596005179392e+18
14264.0	1.5546652672655357e+18
14265.0	1.5544365451575293e+18
14266.0	1.5541617914019835e+18
14267.0	1.5538858531749885e+18
14268.0	1.5536081365630976e+18
14269.0	1.553319643945369e+18
14270.0	1.5530527603818496e+18
14271.0	1.5527740656582656e+18
14272.0	1.5524975637168128e+18
14273.0	1.5522185753919485e+18
14274.0	1.5515809203879933e+18
14275.0	1.5516327217201147e+18
14276.0	1.5513703327727613e+18
14277.0	1.5510924483887101e+18
14278.0	1.550833126316441e+18
14279.0	1.550554632919449e+18
14280.0	1.5502701467009021e+18
14281.0	1.549987527786496e+18
14282.0	1.549706541295206e+18
14283.0	1.5494295662362621e+18
14284.0	1.5491525928550397e+18
14285.0	1.5488756396064763e+18
14286.0	1.5485980756672507e+18
14287.0	1.5483219528908797e+18
14288.0	1.5480447563726843e+18
14289.0	1.546372141757233e+18
14290.0	1.5474900311474176e+18
14291.0	1.547214156673843e+18
14292.0	1.5469388996018173e+18
14293.0	1.5466594918465533e+18
14294.0	1.5462135836442627e+18
14295.0	1.5460943244820477e+18
14296.0	1.544707732878132e+18
14297.0	1.5455548782673912e+18
14298.0	1.5450720585121787e+18
14299.0	1.5449894676332544e+18
14300.0	1.5447182169604093e+18
14301.0	1.5444476793192448e+18
14302.0	1.5441732225204221e+18
14303.0	1.5438590456627197e+18
14304.0	1.543601736856371e+18
14305.0	1.543346790282035e+18
14306.0	1.543045555368755e+18
14307.0	1.542771331773235e+18
14308.0	1.5425031026769915e+18
14309.0	1.5422257216094205e+18
14310.0	1.5418702610563062e+18
14311.0	1.541606313505587e+18
14312.0	1.541352321554841e+18
14313.0	1.5409349027430397e+18
14314.0	1.5408484682039293e+18
14315.0	1.5405746975932413e+18
14316.0	1.5402347660312576e+18
14317.0	1.5400169407250432e+18
14318.0	1.5397495639113725e+18
14319.0	1.5394750651695101e+18
14320.0	1.5391992427053056e+18
14321.0	1.5389216552779773e+18
14322.0	1.538601148376678e+18
14323.0	1.5383515185020928e+18
14324.0	1.53810053973934e+18
14325.0	1.5378150972194813e+18
14326.0	1.5375510825598976e+18
14327.0	1.537268782412595e+18
14328.0	1.5369931595972603e+18
14329.0	1.5367272658894848e+18
14330.0	1.5364527604367357e+18
14331.0	1.536177889240678e+18
14332.0	1.5359038032183293e+18
14333.0	1.5356295024476157e+18
14334.0	1.5351985209343995e+18
14335.0	1.534852997526323e+18
14336.0	1.5345778763497467e+18
14337.0	1.5343199971180544e+18
14338.0	1.5340451309551613e+18
14339.0	1.533761847663001e+18
14340.0	1.5335004099837947e+18
14341.0	1.5332253877927933e+18
14342.0	1.5329497398116347e+18
14343.0	1.532673660656025e+18
14344.0	1.5323989790425085e+18
14345.0	1.5321308472541184e+18
14346.0	1.5318537866313725e+18
14347.0	1.5315664046653435e+18
14348.0	1.531309272019763e+18
14349.0	1.5310359040622587e+18
14350.0	1.5307497032122368e+18
14351.0	1.5304683157454843e+18
14352.0	1.5302029488422907e+18
14353.0	1.5299384140890112e+18
14354.0	1.5296653246332923e+18
14355.0	1.5293902823096315e+18
14356.0	1.529118231363584e+18
14357.0	1.528848493995622e+18
14358.0	1.5285750304079867e+18
14359.0	1.5282854455934973e+18
14360.0	1.5280274120114176e+18
14361.0	1.5277555019939837e+18
14362.0	1.527482942698291e+18
14363.0	1.527209636816486e+18
14364.0	1.5268981912895485e+18
14365.0	1.526656441673318e+18
14366.0	1.5263711434375163e+18
14367.0	1.5261004732563456e+18
14368.0	1.525827054967193e+18
14369.0	1.5255549905993728e+18
14370.0	1.5252823776165885e+18
14371.0	1.5250098015436797e+18
14372.0	1.5247307092000765e+18
14373.0	1.5244643104980992e+18
14374.0	1.5241911052795904e+18
14375.0	1.5239158247194621e+18
14376.0	1.5236474244956152e+18
14377.0	1.5233742511538176e+18
14378.0	1.5230993061380093e+18
14379.0	1.5228305552703485e+18
14380.0	1.5225568517685248e+18
14381.0	1.5222725853315072e+18
14382.0	1.5220121224085496e+18
14383.0	1.5217361002954747e+18
14384.0	1.5214486008889341e+18
14385.0	1.5211981472530424e+18
14386.0	1.5209057472217085e+18
14387.0	1.520654043683225e+18
14388.0	1.5203799173955584e+18
14389.0	1.5201103192784893e+18
14390.0	1.5198362265452544e+18
14391.0	1.519567192142643e+18
14392.0	1.5192935926595581e+18
14393.0	1.5190244005511163e+18
14394.0	1.5187075728932856e+18
14395.0	1.5184682559733752e+18
14396.0	1.5182099438895101e+18
14397.0	1.5179386059751421e+18
14398.0	1.5176665516736507e+18
14399.0	1.5173958831702013e+18
14400.0	1.5170990354989053e+18
14401.0	1.516845100590694e+18
14402.0	1.5165803007574013e+18
14403.0	1.5148210972524524e+18
14404.0	1.509885119509297e+18
14405.0	1.5133978776305613e+18
14406.0	1.5154780024340475e+18
14407.0	1.5131235416276997e+18
14408.0	1.5149231463464957e+18
14409.0	1.514639505699635e+18
14410.0	1.5143924930707453e+18
14411.0	1.5141242270646267e+18
14412.0	1.5134941872390144e+18
14413.0	1.513097394336563e+18
14414.0	1.5128235884937213e+18
14415.0	1.5125545171812347e+18
14416.0	1.5122849425522688e+18
14417.0	1.512010572994969e+18
14418.0	1.511731374954905e+18
14419.0	1.5114718263902205e+18
14420.0	1.511196513953382e+18
14421.0	1.510932418763161e+18
14422.0	1.510657475425075e+18
14423.0	1.510380411446886e+18
14424.0	1.5017725889871826e+18
14425.0	1.509842837569536e+18
14426.0	1.509582156542771e+18
14427.0	1.5093109142585344e+18
14428.0	1.5090168415387643e+18
14429.0	1.5087663358935035e+18
14430.0	1.5085032272035835e+18
14431.0	1.5081614518255613e+18
14432.0	1.5079571321782267e+18
14433.0	1.5061146264403958e+18
14434.0	1.5074022056263675e+18
14435.0	1.5071320052072443e+18
14436.0	1.5068843265228797e+18
14437.0	1.506615013618483e+18
14438.0	1.5063039942328315e+18
14439.0	1.5060654608089085e+18
14440.0	1.5058055364345853e+18
14441.0	1.5055219696074755e+18
14442.0	1.505244096967475e+18
14443.0	1.5049196574867453e+18
14444.0	1.5047041507917821e+18
14445.0	1.5044412618833915e+18
14446.0	1.5016170675503117e+18
14447.0	1.5038876959637504e+18
14448.0	1.5036343851679741e+18
14449.0	1.5033654430400512e+18
14450.0	1.503089821902438e+18
14451.0	1.5028221565206525e+18
14452.0	1.5025566302339067e+18
14453.0	1.502264075852185e+18
14454.0	1.5020196704026627e+18
14455.0	1.5017394858622973e+18
14456.0	1.5014767630483453e+18
14457.0	1.5012054133899256e+18
14458.0	1.5009429053243392e+18
14459.0	1.5006720019398653e+18
14460.0	1.50040450433024e+18
14461.0	1.5001130991878141e+18
14462.0	1.4998109683711997e+18
14463.0	1.4995945422847997e+18
14464.0	1.499331628210585e+18
14465.0	1.4990278079283197e+18
14466.0	1.4987917457883136e+18
14467.0	1.4984865246085115e+18
14468.0	1.4982520009392123e+18
14469.0	1.4979586513174525e+18
14470.0	1.4976808709521403e+18
14471.0	1.4974371013591037e+18
14472.0	1.497176561260953e+18
14473.0	1.4969140045414397e+18
14474.0	1.4966477048250363e+18
14475.0	1.4963759776792573e+18
14476.0	1.4960114557517827e+18
14477.0	1.4958443949457405e+18
14478.0	1.4955728892592125e+18
14479.0	1.4953067657035773e+18
14480.0	1.4950172781969403e+18
14481.0	1.4947729633443837e+18
14482.0	1.4945000970256381e+18
14483.0	1.4942232628953085e+18
14484.0	1.493955168016793e+18
14485.0	1.4936511078203387e+18
14486.0	1.493029684772864e+18
14487.0	1.4931654392938493e+18
14488.0	1.4928946281840637e+18
14489.0	1.4926241693958141e+18
14490.0	1.492358876312371e+18
14491.0	1.492093316471193e+18
14492.0	1.4918278942031872e+18
14493.0	1.4915427503177725e+18
14494.0	1.491248929256243e+18
14495.0	1.4910076645015547e+18
14496.0	1.4905595131854845e+18
14497.0	1.4904710972571648e+18
14498.0	1.4902052941463547e+18
14499.0	1.4899382679764987e+18
14500.0	1.4896705136754683e+18
14501.0	1.4893548704890875e+18
14502.0	1.4887988970389504e+18
14503.0	1.488846163489587e+18
14504.0	1.4885936059908099e+18
14505.0	1.4882936763449341e+18
14506.0	1.4879817560227835e+18
14507.0	1.487467747423027e+18
14508.0	1.4875332356079613e+18
14509.0	1.4872663218454528e+18
14510.0	1.486994457126502e+18
14511.0	1.486731767866982e+18
14512.0	1.4864443875786747e+18
14513.0	1.486197921887027e+18
14514.0	1.4858850083536893e+18
14515.0	1.4856618931912701e+18
14516.0	1.4817959495073812e+18
14517.0	1.4851272737816573e+18
14518.0	1.4848629655207936e+18
14519.0	1.484596248051712e+18
14520.0	1.4843279266807805e+18
14521.0	1.4840611689463805e+18
14522.0	1.483795738289766e+18
14523.0	1.4834332430499835e+18
14524.0	1.4831638026387453e+18
14525.0	1.4829880394907648e+18
14526.0	1.4827256052449275e+18
14527.0	1.4824265731801083e+18
14528.0	1.482007649452032e+18
14529.0	1.4819134135074813e+18
14530.0	1.4816382201888765e+18
14531.0	1.4813920699088893e+18
14532.0	1.4809898378330107e+18
14533.0	1.4808606666915837e+18
14534.0	1.4805962577674235e+18
14535.0	1.4803159641751547e+18
14536.0	1.4800584892743675e+18
14537.0	1.4797804589285376e+18
14538.0	1.4795303760691195e+18
14539.0	1.479264052864614e+18
14540.0	1.4789976340299773e+18
14541.0	1.4787034589691904e+18
14542.0	1.4784625146593277e+18
14543.0	1.4781249721729021e+18
14544.0	1.4779312959913984e+18
14545.0	1.4776572737224701e+18
14546.0	1.465628339522759e+18
14547.0	1.4663688623488947e+18
14548.0	1.4763515516551163e+18
14549.0	1.4758490773913595e+18
14550.0	1.4757235217399805e+18
14551.0	1.475468459402854e+18
14552.0	1.4751999719374845e+18
14553.0	1.4749228895043581e+18
14554.0	1.4746702481195003e+18
14555.0	1.4744037437210621e+18
14556.0	1.4741355213357056e+18
14557.0	1.4738717063249912e+18
14558.0	1.4736044721176576e+18
14559.0	1.470695816246063e+18
14560.0	1.473069943305011e+18
14561.0	1.4727972078485504e+18
14562.0	1.4725109432451072e+18
14563.0	1.4722746059587581e+18
14564.0	1.4720031589924864e+18
14565.0	1.471743373869056e+18
14566.0	1.4714773560098813e+18
14567.0	1.4712110109949947e+18
14568.0	1.4709350459244544e+18
14569.0	1.4706787185852416e+18
14570.0	1.4696792041979894e+18
14571.0	1.4701424919183352e+18
14572.0	1.469828919040409e+18
14573.0	1.4695513886556157e+18
14574.0	1.4693346186362875e+18
14575.0	1.4690818883321856e+18
14576.0	1.4688145299734525e+18
14577.0	1.468542467283353e+18
14578.0	1.4682819758391293e+18
14579.0	1.468019154039603e+18
14580.0	1.467753436492595e+18
14581.0	1.4674831102443515e+18
14582.0	1.4672211675709437e+18
14583.0	1.4669554886115325e+18
14584.0	1.4666754718433277e+18
14585.0	1.4664233740402685e+18
14586.0	1.4661527189585912e+18
14587.0	1.4658890884972541e+18
14588.0	1.4656251443019773e+18
14589.0	1.4653649078714365e+18
14590.0	1.465104473469747e+18
14591.0	1.4648432018849787e+18
14592.0	1.4645762747006973e+18
14593.0	1.4641635501539325e+18
14594.0	1.4640613601312765e+18
14595.0	1.463790225221222e+18
14596.0	1.4634951391576064e+18
14597.0	1.4632324415094781e+18
14598.0	1.4630130123014141e+18
14599.0	1.4627583408734203e+18
14600.0	1.4624970525114363e+18
14601.0	1.4622370694168573e+18
14602.0	1.4619725514407936e+18
14603.0	1.4617153986625536e+18
14604.0	1.461397547594547e+18
14605.0	1.4611843276341248e+18
14606.0	1.4608321671593984e+18
14607.0	1.4606544326885373e+18
14608.0	1.4604062926307325e+18
14609.0	1.4598715809464315e+18
14610.0	1.4595805717463037e+18
14611.0	1.459330349635993e+18
14612.0	1.4590745692340221e+18
14613.0	1.458813998936883e+18
14614.0	1.458541208115609e+18
14615.0	1.4582739588087808e+18
14616.0	1.458013247583027e+18
14617.0	1.4577513736962048e+18
14618.0	1.4574873925910525e+18
14619.0	1.4572020893220864e+18
14620.0	1.4568722526109693e+18
14621.0	1.4567056766664704e+18
14622.0	1.456440182256435e+18
14623.0	1.4561823818776576e+18
14624.0	1.4558421416148987e+18
14625.0	1.4556549917704192e+18
14626.0	1.4553921414496253e+18
14627.0	1.4551273181282301e+18
14628.0	1.4548734184521725e+18
14629.0	1.4546115344990208e+18
14630.0	1.454348524794675e+18
14631.0	1.454086850556723e+18
14632.0	1.453124779560141e+18
14633.0	1.453472200471347e+18
14634.0	1.4532979254624253e+18
14635.0	1.4529777004183547e+18
14636.0	1.4524860743024637e+18
14637.0	1.4521713706401792e+18
14638.0	1.4519068526641147e+18
14639.0	1.451631578814873e+18
14640.0	1.4513781455454208e+18
14641.0	1.4484134151847916e+18
14642.0	1.450850909788569e+18
14643.0	1.4505950555668477e+18
14644.0	1.4503188908474365e+18
14645.0	1.4500373339308032e+18
14646.0	1.4497974348414976e+18
14647.0	1.4495308079693821e+18
