# Flux units: erg / (cm m2 s)
# Wavelength units: Angstrom
wave	flux
14000.0	2.0964523229839355e+18
14001.0	2.0959420875800573e+18
14002.0	2.0954453058256893e+18
14003.0	2.094941898748723e+18
14004.0	2.0944386191785981e+18
14005.0	2.0939353043763197e+18
14006.0	2.093431113803366e+18
14007.0	2.092928312383897e+18
14008.0	2.0924115942637565e+18
14009.0	2.0919233722449917e+18
14010.0	2.0914186968104957e+18
14011.0	2.090838664832614e+18
14012.0	2.0904159024775163e+18
14013.0	2.08991383757783e+18
14014.0	2.0894067277692928e+18
14015.0	2.088897205397094e+18
14016.0	2.0883958166192128e+18
14017.0	2.0878942097375227e+18
14018.0	2.0873923964960765e+18
14019.0	2.0868914523144187e+18
14020.0	2.0863901524557821e+18
14021.0	2.085889058956902e+18
14022.0	2.0853865846931453e+18
14023.0	2.0848748175294461e+18
14024.0	2.0843807268405245e+18
14025.0	2.0838862922186747e+18
14026.0	2.0833860644241405e+18
14027.0	2.0828862275387392e+18
14028.0	2.0823862514024445e+18
14029.0	2.0818860303187965e+18
14030.0	2.0808376472567808e+18
14031.0	2.080882373636915e+18
14032.0	2.080380083922534e+18
14033.0	2.079862797054771e+18
14034.0	2.0793761990705147e+18
14035.0	2.0788780667502587e+18
14036.0	2.078379275085414e+18
14037.0	2.0778788577083387e+18
14038.0	2.077382057499033e+18
14039.0	2.076883656743321e+18
14040.0	2.0763835681996792e+18
14041.0	2.0758866673270781e+18
14042.0	2.0753879092166653e+18
14043.0	2.0748859986673661e+18
14044.0	2.0743924448493565e+18
14045.0	2.0738962972737533e+18
14046.0	2.0733989098618877e+18
14047.0	2.0728959373148155e+18
14048.0	2.072395882325606e+18
14049.0	2.0719001155928061e+18
14050.0	2.0714033355161597e+18
14051.0	2.0709050488455165e+18
14052.0	2.0703980732547064e+18
14053.0	2.0699015666466816e+18
14054.0	2.0694054643695616e+18
14055.0	2.068908952728371e+18
14056.0	2.0684134108102653e+18
14057.0	2.06791756522455e+18
14058.0	2.0674219511644155e+18
14059.0	2.066926437767577e+18
14060.0	2.0664310619439101e+18
14061.0	2.0659349378564093e+18
14062.0	2.065440724693811e+18
14063.0	2.0649434631110653e+18
14064.0	2.0643781850169344e+18
14065.0	2.0639552683114493e+18
14066.0	2.0634617648250877e+18
14067.0	2.0629509170528253e+18
14068.0	2.062473303267737e+18
14069.0	2.0619776623640573e+18
14070.0	2.0614850396815355e+18
14071.0	2.060991158707814e+18
14072.0	2.0604978750029821e+18
14073.0	2.060004386616115e+18
14074.0	2.059505178876313e+18
14075.0	2.0590026173710333e+18
14076.0	2.0584941200867325e+18
14077.0	2.0578856607940605e+18
14078.0	2.0575169462403067e+18
14079.0	2.057033374865817e+18
14080.0	2.0565418578018296e+18
14081.0	2.05604948845527e+18
14082.0	2.0555536311255037e+18
14083.0	2.055064951088742e+18
14084.0	2.0545732175986688e+18
14085.0	2.0539584383287296e+18
14086.0	2.0535796037582845e+18
14087.0	2.0530982738198525e+18
14088.0	2.0526036697481216e+18
14089.0	2.0521002224058363e+18
14090.0	2.0516222210670587e+18
14091.0	2.0511336685371387e+18
14092.0	2.05064291483648e+18
14093.0	2.0501522366332925e+18
14094.0	2.0496617127804925e+18
14095.0	2.0491713617330173e+18
14096.0	2.0486530011234301e+18
14097.0	2.048180182266675e+18
14098.0	2.0476879437824e+18
14099.0	2.0472040637071355e+18
14100.0	2.046708370794086e+18
14101.0	2.0462203786231805e+18
14102.0	2.0457308714696701e+18
14103.0	2.0452399600631805e+18
14104.0	2.044752625559142e+18
14105.0	2.044262767761817e+18
14106.0	2.0437748108230656e+18
14107.0	2.043283548772761e+18
14108.0	2.0427957881274363e+18
14109.0	2.0423083848368125e+18
14110.0	2.0418165238398973e+18
14111.0	2.041324827259699e+18
14112.0	2.0408436734820347e+18
14113.0	2.0403480258674683e+18
14114.0	2.039865853712793e+18
14115.0	2.039379777499955e+18
14116.0	2.038851100580249e+18
14117.0	2.0375402849501184e+18
14118.0	2.0379195037188093e+18
14119.0	2.0374180394434555e+18
14120.0	2.0369313475067901e+18
14121.0	2.0364561630625787e+18
14122.0	2.0359548648816637e+18
14123.0	2.0354582727098363e+18
14124.0	2.0349660409364475e+18
14125.0	2.0344482373304315e+18
14126.0	2.034017203807846e+18
14127.0	2.0335305789800445e+18
14128.0	2.033044682283417e+18
14129.0	2.0325575608500221e+18
14130.0	2.0320715064475645e+18
14131.0	2.03158689153024e+18
14132.0	2.0311029997109245e+18
14133.0	2.0305417330491384e+18
14134.0	2.0301333454127101e+18
14135.0	2.0296428584697848e+18
14136.0	2.029095283693977e+18
14137.0	2.0286784051085312e+18
14138.0	2.028181888434176e+18
14139.0	2.0277109586919421e+18
14140.0	2.0272201563373565e+18
14141.0	2.0267411601096701e+18
14142.0	2.0261736573566973e+18
14143.0	2.02576518751191e+18
14144.0	2.0252922193379325e+18
14145.0	2.0248089046548477e+18
14146.0	2.0243244189220861e+18
14147.0	2.0238415219916797e+18
14148.0	2.0233544357904376e+18
14149.0	2.0228686917664763e+18
14150.0	2.02239418344407e+18
14151.0	2.0219001950961661e+18
14152.0	2.0214294197043192e+18
14153.0	2.020947160308121e+18
14154.0	2.0204612367679488e+18
14155.0	2.0197435091451901e+18
14156.0	2.0194908744712187e+18
14157.0	2.0190191377448955e+18
14158.0	2.0185277481877501e+18
14159.0	2.018045042517606e+18
14160.0	2.0175636958019581e+18
14161.0	2.017073621578547e+18
14162.0	2.0165865890643968e+18
14163.0	2.0161205901459448e+18
14164.0	2.0156075965677565e+18
14165.0	2.0150900949516288e+18
14166.0	2.014678489445171e+18
14167.0	2.0141966360575997e+18
14168.0	2.0137118852448253e+18
14169.0	2.013238601659187e+18
14170.0	2.01275441456087e+18
14171.0	2.0122768695623677e+18
14172.0	2.0117993665069053e+18
14173.0	2.0112885908766715e+18
14174.0	2.0108384330055675e+18
14175.0	2.0103613393141752e+18
14176.0	2.0098784289619965e+18
14177.0	2.0093990988677115e+18
14178.0	2.0089205455585275e+18
14179.0	2.0084359927169021e+18
14180.0	2.0079642023034877e+18
14181.0	2.0074858335436792e+18
14182.0	2.0070074396180475e+18
14183.0	2.0065294902886397e+18
14184.0	2.006050750752358e+18
14185.0	2.0055736419614715e+18
14186.0	2.0049266655363072e+18
14187.0	2.004614857621504e+18
14188.0	2.0041408677150717e+18
14189.0	2.0036614705119227e+18
14190.0	2.0031852693684221e+18
14191.0	2.002707489488896e+18
14192.0	2.0022315249041403e+18
14193.0	2.0017271799807997e+18
14194.0	2.0012687425535997e+18
14195.0	2.00078634558423e+18
14196.0	2.0003099699576832e+18
14197.0	1.9998337755250688e+18
14198.0	1.9993570073116664e+18
14199.0	1.998880599808409e+18
14200.0	1.9983061630320637e+18
14201.0	1.997928875320934e+18
14202.0	1.9974548703150077e+18
14203.0	1.9969720337825787e+18
14204.0	1.996503763229081e+18
14205.0	1.9960287130025981e+18
14206.0	1.9955371875500027e+18
14207.0	1.995079270216499e+18
14208.0	1.994604641098137e+18
14209.0	1.994110577252761e+18
14210.0	1.993643811615539e+18
14211.0	1.9931812604149755e+18
14212.0	1.9927070389829627e+18
14213.0	1.9922297640976381e+18
14214.0	1.9917591715774461e+18
14215.0	1.9912835291152381e+18
14216.0	1.9908119333175293e+18
14217.0	1.99033846014935e+18
14218.0	1.989863315970457e+18
14219.0	1.9893919080775677e+18
14220.0	1.9889181111091192e+18
14221.0	1.9884421280694264e+18
14222.0	1.987944695359078e+18
14223.0	1.987498866009702e+18
14224.0	1.9870278809026555e+18
14225.0	1.9862823618215936e+18
14226.0	1.9860830401069053e+18
14227.0	1.9856111389638653e+18
14228.0	1.9845167661973507e+18
14229.0	1.984593154539519e+18
14230.0	1.9841955932405755e+18
14231.0	1.9836967898316797e+18
14232.0	1.9832525593509883e+18
14233.0	1.9827801431474173e+18
14234.0	1.9823090674434045e+18
14235.0	1.9818276083204093e+18
14236.0	1.9813566819336187e+18
14237.0	1.9808857807126525e+18
14238.0	1.9804151814815744e+18
14239.0	1.979942161298227e+18
14240.0	1.9792840078917627e+18
14241.0	1.9790020298670077e+18
14242.0	1.9785334388686845e+18
14243.0	1.9780422774816765e+18
14244.0	1.9775943711129597e+18
14245.0	1.9771222300557307e+18
14246.0	1.976650151074201e+18
14247.0	1.9761854087692283e+18
14248.0	1.9757143380983805e+18
14249.0	1.9752466883018747e+18
14250.0	1.974777577209856e+18
14251.0	1.9743089979555837e+18
14252.0	1.973840187175731e+18
14253.0	1.9733714334384125e+18
14254.0	1.97290262265856e+18
14255.0	1.972430448046899e+18
14256.0	1.971729128541389e+18
14257.0	1.9714958279311355e+18
14258.0	1.9710301561683965e+18
14259.0	1.9705600233439232e+18
14260.0	1.9700877682016248e+18
14261.0	1.969623780871372e+18
14262.0	1.9691638787932155e+18
14263.0	1.9683463166689277e+18
14264.0	1.968180787622707e+18
14265.0	1.967756894483251e+18
14266.0	1.9672953666928637e+18
14267.0	1.966828394695884e+18
14268.0	1.966361868972851e+18
14269.0	1.9658950093832187e+18
14270.0	1.965428928256409e+18
14271.0	1.9649615032745981e+18
14272.0	1.9644959623741435e+18
14273.0	1.964030241957478e+18
14274.0	1.9630570141122563e+18
14275.0	1.963053239238656e+18
14276.0	1.962625631623577e+18
14277.0	1.9621634159673344e+18
14278.0	1.96170231096279e+18
14279.0	1.9612370368200701e+18
14280.0	1.960770856707686e+18
14281.0	1.960307008628326e+18
14282.0	1.9598422109585405e+18
14283.0	1.9593739102060541e+18
14284.0	1.9589020140961787e+18
14285.0	1.9584374412410877e+18
14286.0	1.95797203288064e+18
14287.0	1.9575089800413181e+18
14288.0	1.9570448668819453e+18
14289.0	1.956459172593663e+18
14290.0	1.956115635607961e+18
14291.0	1.9556533226438648e+18
14292.0	1.9551899124498432e+18
14293.0	1.9547261834887165e+18
14294.0	1.954242595337011e+18
14295.0	1.9537975025074173e+18
14296.0	1.953238084694835e+18
14297.0	1.9528741399035901e+18
14298.0	1.9523017868574715e+18
14299.0	1.9519428248993787e+18
14300.0	1.9514851659350016e+18
14301.0	1.9510230157099005e+18
14302.0	1.950561212773171e+18
14303.0	1.9500932391763965e+18
14304.0	1.949635687586201e+18
14305.0	1.9491744986955773e+18
14306.0	1.9486923416403965e+18
14307.0	1.948244213812428e+18
14308.0	1.947788734208409e+18
14309.0	1.947323210085171e+18
14310.0	1.9467761587585021e+18
14311.0	1.9462570096197632e+18
14312.0	1.9459133568712701e+18
14313.0	1.9454710826139643e+18
14314.0	1.9450180776493053e+18
14315.0	1.9445617877057533e+18
14316.0	1.9440957988536315e+18
14317.0	1.9436187957592061e+18
14318.0	1.9431829941518333e+18
14319.0	1.94272312730583e+18
14320.0	1.9422631866400765e+18
14321.0	1.9418034993102843e+18
14322.0	1.941337406439424e+18
14323.0	1.9408823647207421e+18
14324.0	1.940423059911475e+18
14325.0	1.939964137622732e+18
14326.0	1.9395065709330432e+18
14327.0	1.9390464088080381e+18
14328.0	1.9385877583101947e+18
14329.0	1.938129866142515e+18
14330.0	1.9376711971897341e+18
14331.0	1.937209400963891e+18
14332.0	1.9367542887809021e+18
14333.0	1.9362960241590264e+18
14334.0	1.9358378769776635e+18
14335.0	1.9353763307323387e+18
14336.0	1.9348895985303547e+18
14337.0	1.9344641115553787e+18
14338.0	1.9340062730747896e+18
14339.0	1.9335361788379133e+18
14340.0	1.9330809576030208e+18
14341.0	1.9326210437808128e+18
14342.0	1.9321666530181115e+18
14343.0	1.931706558001971e+18
14344.0	1.9312510364549117e+18
14345.0	1.9307961205653504e+18
14346.0	1.9303384213356541e+18
14347.0	1.9298680318197755e+18
14348.0	1.9294261249835003e+18
14349.0	1.9289703115128832e+18
14350.0	1.928491884032819e+18
14351.0	1.92803501024215e+18
14352.0	1.927601037351321e+18
14353.0	1.9271464268070912e+18
14354.0	1.92668838699991e+18
14355.0	1.926228006771097e+18
14356.0	1.925775194744422e+18
14357.0	1.9253247667601405e+18
14358.0	1.9248696277336061e+18
14359.0	1.9244122070056955e+18
14360.0	1.9239578179207165e+18
14361.0	1.9235044656676861e+18
14362.0	1.9230503332741115e+18
14363.0	1.922595749573427e+18
14364.0	1.9220584692973563e+18
14365.0	1.9216772322295803e+18
14366.0	1.921220631907532e+18
14367.0	1.920779107591782e+18
14368.0	1.9203251379372035e+18
14369.0	1.9198714383958016e+18
14370.0	1.91941785461719e+18
14371.0	1.9189644520325112e+18
14372.0	1.9185103297052672e+18
14373.0	1.9180574673469435e+18
14374.0	1.9176045882114043e+18
14375.0	1.91715159834624e+18
14376.0	1.9166986386800635e+18
14377.0	1.9162457796771835e+18
14378.0	1.9157928166555643e+18
14379.0	1.915340643840819e+18
14380.0	1.9148881757470712e+18
14381.0	1.9144340483866621e+18
14382.0	1.913983442563891e+18
14383.0	1.9135267751329787e+18
14384.0	1.913076372314521e+18
14385.0	1.9126279609516027e+18
14386.0	1.912173986263859e+18
14387.0	1.9117246571872253e+18
14388.0	1.9112728903811072e+18
14389.0	1.910821843317555e+18
14390.0	1.910370403667148e+18
14391.0	1.9099194857881597e+18
14392.0	1.9094664556576765e+18
14393.0	1.9090178345795581e+18
14394.0	1.908561440617267e+18
14395.0	1.908085393824153e+18
14396.0	1.9076645189058555e+18
14397.0	1.9072157166338043e+18
14398.0	1.9067637770223608e+18
14399.0	1.9063143355383805e+18
14400.0	1.9058454257729533e+18
14401.0	1.9054142563549181e+18
14402.0	1.9049655732011005e+18
14403.0	1.9034552966053865e+18
14404.0	1.901289165081804e+18
14405.0	1.9034305216905203e+18
14406.0	1.9031574540451837e+18
14407.0	1.9011177472327688e+18
14408.0	1.9022385726357504e+18
14409.0	1.9018076297101312e+18
14410.0	1.9013554015305725e+18
14411.0	1.900911374054195e+18
14412.0	1.900463979390566e+18
14413.0	1.9000159908134907e+18
14414.0	1.8995672640389115e+18
14415.0	1.8991192184193021e+18
14416.0	1.8986664533688315e+18
14417.0	1.898202759639859e+18
14418.0	1.8977571785932797e+18
14419.0	1.8973273949732861e+18
14420.0	1.8968792839225341e+18
14421.0	1.896432333855129e+18
14422.0	1.895984914025676e+18
14423.0	1.8955353785892861e+18
14424.0	1.8886124801884111e+18
14425.0	1.8946423357702141e+18
14426.0	1.8941965936623613e+18
14427.0	1.8937498784759803e+18
14428.0	1.893298479090892e+18
14429.0	1.8928562551652347e+18
14430.0	1.892410179190784e+18
14431.0	1.8918380761251837e+18
14432.0	1.8915122122588155e+18
14433.0	1.8898895232827377e+18
14434.0	1.890623826794905e+18
14435.0	1.8901594032570365e+18
14436.0	1.8897338323959803e+18
14437.0	1.8892882580602875e+18
14438.0	1.8887984740827133e+18
14439.0	1.888389081491046e+18
14440.0	1.887951867242086e+18
14441.0	1.887505947295744e+18
14442.0	1.8870602739744763e+18
14443.0	1.8866101530132475e+18
14444.0	1.886171245943193e+18
14445.0	1.8857270708273147e+18
14446.0	1.8840292954210307e+18
14447.0	1.88483599597568e+18
14448.0	1.8843936680312832e+18
14449.0	1.883949424128819e+18
14450.0	1.8835042960670715e+18
14451.0	1.8830610252431355e+18
14452.0	1.88261640217559e+18
14453.0	1.8821491667763192e+18
14454.0	1.8817293924433917e+18
14455.0	1.881285158607257e+18
14456.0	1.8808361734635517e+18
14457.0	1.8803902535172093e+18
14458.0	1.8799423219826683e+18
14459.0	1.8795072048857088e+18
14460.0	1.879066058057318e+18
14461.0	1.8786043104854013e+18
14462.0	1.8780474159661053e+18
14463.0	1.8777321771106304e+18
14464.0	1.8772963486597115e+18
14465.0	1.8768524822446077e+18
14466.0	1.8764130768912381e+18
14467.0	1.875953297286758e+18
14468.0	1.8755275200659453e+18
14469.0	1.875076323685171e+18
14470.0	1.874640896209715e+18
14471.0	1.8742005362327547e+18
14472.0	1.8737598658772987e+18
14473.0	1.8733201434345464e+18
14474.0	1.872878867421593e+18
14475.0	1.872436549543526e+18
14476.0	1.8719188617003005e+18
14477.0	1.8715544421138427e+18
14478.0	1.8711135133892603e+18
14479.0	1.8706711065919483e+18
14480.0	1.870226072482611e+18
14481.0	1.869781093738086e+18
14482.0	1.8693399334879232e+18
14483.0	1.8688982564995064e+18
14484.0	1.8684588293357563e+18
14485.0	1.8680129949532155e+18
14486.0	1.8675365740281853e+18
14487.0	1.8671360767164408e+18
14488.0	1.8666578035867645e+18
14489.0	1.866241945056051e+18
14490.0	1.8658121698246653e+18
14491.0	1.8653758967775232e+18
14492.0	1.8649352717205504e+18
14493.0	1.8644944000385021e+18
14494.0	1.8640531408027645e+18
14495.0	1.863618246842777e+18
14496.0	1.8631596550651896e+18
14497.0	1.8627399629406205e+18
14498.0	1.862300700193587e+18
14499.0	1.861862180677222e+18
14500.0	1.8614233306497021e+18
14501.0	1.8609480237318141e+18
14502.0	1.8604655378432e+18
14503.0	1.8600969524740096e+18
14504.0	1.8596684757991421e+18
14505.0	1.859196851480166e+18
14506.0	1.8587133455368187e+18
14507.0	1.8583199483428861e+18
14508.0	1.857916832107724e+18
14509.0	1.8574789400592381e+18
14510.0	1.8570411402854397e+18
14511.0	1.856603432786329e+18
14512.0	1.856163418420019e+18
14513.0	1.8557282996453376e+18
14514.0	1.8552803412672507e+18
14515.0	1.8548528125050877e+18
14516.0	1.8541189552668672e+18
14517.0	1.8539792094461947e+18
14518.0	1.8535421478699005e+18
14519.0	1.8531052708429821e+18
14520.0	1.8526684273704955e+18
14521.0	1.8522310419939325e+18
14522.0	1.851792358060851e+18
14523.0	1.8512608877346813e+18
14524.0	1.8508356339630077e+18
14525.0	1.850484778755686e+18
14526.0	1.8500492573278203e+18
14527.0	1.8496072280178683e+18
14528.0	1.849144727148953e+18
14529.0	1.8487394802073597e+18
14530.0	1.848302703843737e+18
14531.0	1.8478689943551997e+18
14532.0	1.847306910642995e+18
14533.0	1.8469977082298363e+18
14534.0	1.8465623478632445e+18
14535.0	1.846125031273267e+18
14536.0	1.8456913872158717e+18
14537.0	1.8452542551752704e+18
14538.0	1.8448207218475003e+18
14539.0	1.8443858647973888e+18
14540.0	1.8439508114538493e+18
14541.0	1.8435135821053947e+18
14542.0	1.8430809664913403e+18
14543.0	1.8425931471257592e+18
14544.0	1.8422114117746683e+18
14545.0	1.8417755011153915e+18
14546.0	1.8343480833081293e+18
14547.0	1.8347304696152e+18
14548.0	1.8404715674992637e+18
14549.0	1.8400219968307197e+18
14550.0	1.8396040075935741e+18
14551.0	1.8391708685303805e+18
14552.0	1.838735790021017e+18
14553.0	1.838300971558502e+18
14554.0	1.8378689146257405e+18
14555.0	1.837434822616678e+18
14556.0	1.8369990528860155e+18
14557.0	1.8365676469092347e+18
14558.0	1.8361337075728381e+18
14559.0	1.835430809331301e+18
14560.0	1.8352196781342715e+18
14561.0	1.834832923040153e+18
14562.0	1.834394049524531e+18
14563.0	1.833967421698867e+18
14564.0	1.833520429688422e+18
14565.0	1.8331015596474365e+18
14566.0	1.8326685531242493e+18
14567.0	1.8322350214742008e+18
14568.0	1.831761721111347e+18
14569.0	1.8313696040189947e+18
14570.0	1.83085109912535e+18
14571.0	1.830494747702067e+18
14572.0	1.8300405683322877e+18
14573.0	1.8296185441746941e+18
14574.0	1.8291570532941824e+18
14575.0	1.8287601949605885e+18
14576.0	1.8283282101698552e+18
14577.0	1.827898976842547e+18
14578.0	1.8274671849897981e+18
14579.0	1.827035478700851e+18
14580.0	1.8266034637111293e+18
14581.0	1.8261671369768955e+18
14582.0	1.8257375781715965e+18
14583.0	1.825307252647526e+18
14584.0	1.824870206170726e+18
14585.0	1.824443491103539e+18
14586.0	1.824011142247219e+18
14587.0	1.823578155856691e+18
14588.0	1.823149187609395e+18
14589.0	1.8227335320829947e+18
14590.0	1.8223198445240317e+18
14591.0	1.821903940694835e+18
14592.0	1.8214918536822781e+18
14593.0	1.821061086917427e+18
14594.0	1.820664871151206e+18
14595.0	1.8202502054805504e+18
14596.0	1.8197706052730872e+18
14597.0	1.8193505406943224e+18
14598.0	1.8190049686323192e+18
14599.0	1.818596731990835e+18
14600.0	1.8181805077168123e+18
14601.0	1.8177685666660347e+18
14602.0	1.817346133144371e+18
14603.0	1.816939398063718e+18
14604.0	1.8165148908781563e+18
14605.0	1.816094653494067e+18
14606.0	1.8156822661693435e+18
14607.0	1.8152877046366203e+18
14608.0	1.8148735422824445e+18
14609.0	1.8144512933101565e+18
14610.0	1.8140111279489021e+18
14611.0	1.813629459706675e+18
14612.0	1.8132207180709885e+18
14613.0	1.8128079012495355e+18
14614.0	1.8123941180604413e+18
14615.0	1.811973749814067e+18
14616.0	1.8115678368169981e+18
14617.0	1.811154345551462e+18
14618.0	1.8107228338782203e+18
14619.0	1.8102902367191035e+18
14620.0	1.809723326201856e+18
14621.0	1.80950038216704e+18
14622.0	1.8090868674134013e+18
14623.0	1.808673327493939e+18
14624.0	1.8082469630705661e+18
14625.0	1.8078395837448187e+18
14626.0	1.8074238023892987e+18
14627.0	1.807007516039577e+18
14628.0	1.8065986032762875e+18
14629.0	1.8061847982768125e+18
14630.0	1.805769531981824e+18
14631.0	1.8053563410284544e+18
14632.0	1.8044228802183168e+18
14633.0	1.8044649490874365e+18
14634.0	1.8041103022292987e+18
14635.0	1.8034830927200238e+18
14636.0	1.8025008974528507e+18
14637.0	1.8028715447418877e+18
14638.0	1.802452615980646e+18
14639.0	1.8020393948282877e+18
14640.0	1.8016286785142781e+18
14641.0	1.7992261845385196e+18
14642.0	1.800799956185907e+18
14643.0	1.8003856495476733e+18
14644.0	1.7999685125931005e+18
14645.0	1.7995529275310077e+18
14646.0	1.7991193136726016e+18
14647.0	1.7987027907641341e+18
14648.0	1.7983055448768512e+18
14649.0	1.79789313909719e+18
