# Flux units: erg / (cm m2 s)
# Wavelength units: Angstrom
wave	flux
14000.0	1.4651096291082237e+18
14001.0	1.4648481025097725e+18
14002.0	1.4646353237901307e+18
14003.0	1.464392163210035e+18
14004.0	1.4641486050099197e+18
14005.0	1.4639047783743485e+18
14006.0	1.4636604685549563e+18
14007.0	1.4634162241667072e+18
14008.0	1.4631649216036864e+18
14009.0	1.4629270475243515e+18
14010.0	1.4626803050086397e+18
14011.0	1.4623929347866621e+18
14012.0	1.4621900495912957e+18
14013.0	1.4619557004050424e+18
14014.0	1.461713898779443e+18
14015.0	1.4614711509188603e+18
14016.0	1.4612283393048576e+18
14017.0	1.460985480714649e+18
14018.0	1.460738181195366e+18
14019.0	1.4604997081694205e+18
14020.0	1.4602568395128832e+18
14021.0	1.4600140245434365e+18
14022.0	1.4597712817160187e+18
14023.0	1.4595284533248e+18
14024.0	1.4592856970756093e+18
14025.0	1.4590433233469435e+18
14026.0	1.4588007516471293e+18
14027.0	1.4585581833027581e+18
14028.0	1.4583154438307837e+18
14029.0	1.4580716255838203e+18
14030.0	1.457819302966067e+18
14031.0	1.457581402043187e+18
14032.0	1.4573455596847104e+18
14033.0	1.4571009008992253e+18
14034.0	1.456862602356326e+18
14035.0	1.4566207235555325e+18
14036.0	1.456378822944358e+18
14037.0	1.4561369542098941e+18
14038.0	1.4558951156744192e+18
14039.0	1.4556533174042627e+18
14040.0	1.455411544299929e+18
14041.0	1.455169702409011e+18
14042.0	1.4549270736666621e+18
14043.0	1.454683619485286e+18
14044.0	1.454441534324736e+18
14045.0	1.4542012241936381e+18
14046.0	1.453962267983872e+18
14047.0	1.453720922698547e+18
14048.0	1.4534796428443645e+18
14049.0	1.453238393189171e+18
14050.0	1.4529971502448637e+18
14051.0	1.4527557110071293e+18
14052.0	1.4525148002516987e+18
14053.0	1.4522739381501947e+18
14054.0	1.4520329971957757e+18
14055.0	1.451792086440345e+18
14056.0	1.451551220983398e+18
14057.0	1.4513104108912637e+18
14058.0	1.4510696410644477e+18
14059.0	1.4508249252364285e+18
14060.0	1.4505881987186685e+18
14061.0	1.4503470983806976e+18
14062.0	1.450106707718963e+18
14063.0	1.4498652332490747e+18
14064.0	1.449621488821862e+18
14065.0	1.44938486464512e+18
14066.0	1.449145364853555e+18
14067.0	1.448905237594112e+18
14068.0	1.4486650566475773e+18
14069.0	1.448424900866867e+18
14070.0	1.4481847970955264e+18
14071.0	1.4479445607841787e+18
14072.0	1.4477047573250045e+18
14073.0	1.447464812937216e+18
14074.0	1.4472248987484157e+18
14075.0	1.4469833286483968e+18
14076.0	1.4467448153571325e+18
14077.0	1.44650270670848e+18
14078.0	1.4462646715678715e+18
14079.0	1.4460258109882365e+18
14080.0	1.4457865108455421e+18
14081.0	1.4455470110539776e+18
14082.0	1.4453073787224064e+18
14083.0	1.445067384002969e+18
14084.0	1.4448259548315648e+18
14085.0	1.4445775899590653e+18
14086.0	1.4443443833012221e+18
14087.0	1.4441073615044603e+18
14088.0	1.4438717640933376e+18
14089.0	1.443632997466112e+18
14090.0	1.443394110042931e+18
14091.0	1.4431552209420285e+18
14092.0	1.442916358684672e+18
14093.0	1.4426775148822525e+18
14094.0	1.442438706311987e+18
14095.0	1.442199929618432e+18
14096.0	1.441961042195251e+18
14097.0	1.4417210994851837e+18
14098.0	1.4414839501815808e+18
14099.0	1.4412452892508157e+18
14100.0	1.4410061568802813e+18
14101.0	1.44076854788096e+18
14102.0	1.440530094987673e+18
14103.0	1.440290581774336e+18
14104.0	1.4400536287641597e+18
14105.0	1.4398155449696253e+18
14106.0	1.4395774074879997e+18
14107.0	1.4393358910750715e+18
14108.0	1.439101197955891e+18
14109.0	1.4388630235643901e+18
14110.0	1.4386250974756864e+18
14111.0	1.4383871663538176e+18
14112.0	1.4381491999997947e+18
14113.0	1.4379113192095741e+18
14114.0	1.4376719452471293e+18
14115.0	1.4374343043710976e+18
14116.0	1.437190917298585e+18
14117.0	1.4369376132136957e+18
14118.0	1.4367183802990587e+18
14119.0	1.4364843599462397e+18
14120.0	1.4362476770492413e+18
14121.0	1.4360104472150013e+18
14122.0	1.4357727711068157e+18
14123.0	1.4355343081471997e+18
14124.0	1.4352914009030653e+18
14125.0	1.4350381270171648e+18
14126.0	1.4348187061977085e+18
14127.0	1.4345862494814203e+18
14128.0	1.4343502527725563e+18
14129.0	1.4341124894228477e+18
14130.0	1.4338748737126397e+18
14131.0	1.4336382914789373e+18
14132.0	1.433395555362406e+18
14133.0	1.433138892478873e+18
14134.0	1.432918810637107e+18
14135.0	1.432691167304089e+18
14136.0	1.432456455729971e+18
14137.0	1.432220593238835e+18
14138.0	1.4319844119805947e+18
14139.0	1.4317481485139965e+18
14140.0	1.4315118431043581e+18
14141.0	1.4312754521309181e+18
14142.0	1.4310391785979901e+18
14143.0	1.4308032825524221e+18
14144.0	1.4305673294643197e+18
14145.0	1.4303313176559613e+18
14146.0	1.4300953276579837e+18
14147.0	1.4298594450341883e+18
14148.0	1.4296235926093821e+18
14149.0	1.4293877653503997e+18
14150.0	1.429151931380531e+18
14151.0	1.4289161175433213e+18
14152.0	1.4286805402648573e+18
14153.0	1.428444902588416e+18
14154.0	1.4282068406042621e+18
14155.0	1.4279732799471613e+18
14156.0	1.4277381841747965e+18
14157.0	1.4275026639388667e+18
14158.0	1.4272670614945792e+18
14159.0	1.4270314372399101e+18
14160.0	1.4267944406089725e+18
14161.0	1.4265574238453757e+18
14162.0	1.426320767791923e+18
14163.0	1.426086524302131e+18
14164.0	1.4258552956780541e+18
14165.0	1.4256204599525376e+18
14166.0	1.4253860537237501e+18
14167.0	1.4251499546738685e+18
14168.0	1.4249165282344957e+18
14169.0	1.4246817562623997e+18
14170.0	1.4244467745751037e+18
14171.0	1.424212071389593e+18
14172.0	1.4239775913410557e+18
14173.0	1.4237425224122365e+18
14174.0	1.4235080692072445e+18
14175.0	1.4232740589207547e+18
14176.0	1.4230397281894397e+18
14177.0	1.422805379003187e+18
14178.0	1.422571021428326e+18
14179.0	1.422336586678272e+18
14180.0	1.4221025428373501e+18
14181.0	1.4218683614232576e+18
14182.0	1.4216341649096701e+18
14183.0	1.4214000153722875e+18
14184.0	1.4211656527642621e+18
14185.0	1.4209312951894013e+18
14186.0	1.4206916041375741e+18
14187.0	1.4204605667737597e+18
14188.0	1.4202301384228864e+18
14189.0	1.4199966566187008e+18
14190.0	1.4197630087200765e+18
14191.0	1.4195292551249917e+18
14192.0	1.419295375700787e+18
14193.0	1.419061903962931e+18
14194.0	1.4188287056936957e+18
14195.0	1.418595396694835e+18
14196.0	1.4183620222648317e+18
14197.0	1.4181286444793853e+18
14198.0	1.4178950016139264e+18
14199.0	1.4176615449755648e+18
14200.0	1.4174266924728317e+18
14201.0	1.4171944622489597e+18
14202.0	1.4169622890676221e+18
14203.0	1.4167291511963645e+18
14204.0	1.4164959915147264e+18
14205.0	1.4162619577401341e+18
14206.0	1.4160246809296893e+18
14207.0	1.415795173647974e+18
14208.0	1.4155629098696704e+18
14209.0	1.4153242640383997e+18
14210.0	1.4150921562882045e+18
14211.0	1.4148655145549821e+18
14212.0	1.4146341299027963e+18
14213.0	1.4144020087308285e+18
14214.0	1.4141694681284608e+18
14215.0	1.4139364460199936e+18
14216.0	1.4137050328465403e+18
14217.0	1.413472851276595e+18
14218.0	1.4132406227304448e+18
14219.0	1.4130084193501181e+18
14220.0	1.4127762411356157e+18
14221.0	1.412544067954278e+18
14222.0	1.412311924971929e+18
14223.0	1.4120796662267901e+18
14224.0	1.4118467028385787e+18
14225.0	1.4116064984039421e+18
14226.0	1.411380267712512e+18
14227.0	1.4111480089673725e+18
14228.0	1.4108867373826048e+18
14229.0	1.4106699925291008e+18
14230.0	1.410455552865075e+18
14231.0	1.4102252151111677e+18
14232.0	1.409993973065318e+18
14233.0	1.4097625347260416e+18
14234.0	1.409530968879923e+18
14235.0	1.4092992721715197e+18
14236.0	1.4090676006289403e+18
14237.0	1.4088352697417725e+18
14238.0	1.4086012829433853e+18
14239.0	1.4083560201781245e+18
14240.0	1.4080029168238592e+18
14241.0	1.4078822466977787e+18
14242.0	1.4076724157349885e+18
14243.0	1.4074411015471101e+18
14244.0	1.4072168514060285e+18
14245.0	1.4069877769764861e+18
14246.0	1.4067575499522045e+18
14247.0	1.406526767602073e+18
14248.0	1.4062949123489787e+18
14249.0	1.4060656625975293e+18
14250.0	1.405835195659059e+18
14251.0	1.4056046951661565e+18
14252.0	1.4053740327731197e+18
14253.0	1.4051432252571648e+18
14254.0	1.404911928685363e+18
14255.0	1.4046777749536765e+18
14256.0	1.4044439878041595e+18
14257.0	1.4042165248262141e+18
14258.0	1.4039900424765437e+18
14259.0	1.4037592802590717e+18
14260.0	1.403529532224307e+18
14261.0	1.4032988329213947e+18
14262.0	1.4030837372682237e+18
14263.0	1.402845273469747e+18
14264.0	1.4026177391886333e+18
14265.0	1.4023948370968573e+18
14266.0	1.4021672063467517e+18
14267.0	1.4019382040592381e+18
14268.0	1.4017087403982845e+18
14269.0	1.4014789822971901e+18
14270.0	1.4012492250349565e+18
14271.0	1.4010191095791613e+18
14272.0	1.4007880789262333e+18
14273.0	1.4005539914645501e+18
14274.0	1.4003123106349053e+18
14275.0	1.4000912649420797e+18
14276.0	1.399869330056806e+18
14277.0	1.3996416741408765e+18
14278.0	1.3994120729067517e+18
14279.0	1.3991832090312701e+18
14280.0	1.3989542411370493e+18
14281.0	1.3987255576166397e+18
14282.0	1.3984966425706493e+18
14283.0	1.3982676537049085e+18
14284.0	1.3980386036023293e+18
14285.0	1.3978094268317693e+18
14286.0	1.3975798893510653e+18
14287.0	1.3973489996267517e+18
14288.0	1.397108206311833e+18
14289.0	1.3968048960569344e+18
14290.0	1.3966516739375101e+18
14291.0	1.396434012209152e+18
14292.0	1.3962069720170493e+18
14293.0	1.3959774873845755e+18
14294.0	1.395743352107827e+18
14295.0	1.3955113466986493e+18
14296.0	1.3952260174249981e+18
14297.0	1.3950413464141821e+18
14298.0	1.3948220547792893e+18
14299.0	1.3946044232499197e+18
14300.0	1.3943797511618557e+18
14301.0	1.3941524458897405e+18
14302.0	1.3939245123108861e+18
14303.0	1.3936930454503421e+18
14304.0	1.393468231594803e+18
14305.0	1.3932410211139581e+18
14306.0	1.3930133417099261e+18
14307.0	1.3927855196995581e+18
14308.0	1.3925578319069181e+18
14309.0	1.392330077844275e+18
14310.0	1.3921022239571965e+18
14311.0	1.3918742241083392e+18
14312.0	1.3916411072086013e+18
14313.0	1.3914003357040637e+18
14314.0	1.3911917890371581e+18
14315.0	1.3909636499374077e+18
14316.0	1.3907335168655357e+18
14317.0	1.390507902736793e+18
14318.0	1.3902812794585085e+18
14319.0	1.3900542493327357e+18
14320.0	1.389827098411008e+18
14321.0	1.3895997419683837e+18
14322.0	1.3893713478549501e+18
14323.0	1.3891445769371645e+18
14324.0	1.3889189091213312e+18
14325.0	1.3886923437244413e+18
14326.0	1.3884655979724797e+18
14327.0	1.388238739813171e+18
14328.0	1.3880117742796795e+18
14329.0	1.3877854412472317e+18
14330.0	1.3875588481679357e+18
14331.0	1.38733225508864e+18
14332.0	1.3871057207296e+18
14333.0	1.3868791653990395e+18
14334.0	1.3866526327177213e+18
14335.0	1.3864252511092733e+18
14336.0	1.386198901299609e+18
14337.0	1.3859734482321405e+18
14338.0	1.3857466655703037e+18
14339.0	1.3855189719056381e+18
14340.0	1.3852929081475072e+18
14341.0	1.3850668376784893e+18
14342.0	1.384840778114662e+18
14343.0	1.3846147512664061e+18
14344.0	1.3843867723890685e+18
14345.0	1.3841616364109821e+18
14346.0	1.3839367109869565e+18
14347.0	1.3837106052857853e+18
14348.0	1.3834850683322365e+18
14349.0	1.3832593359241213e+18
14350.0	1.3830330188300285e+18
14351.0	1.3828073996681213e+18
14352.0	1.3825816781651965e+18
14353.0	1.3823566344617981e+18
14354.0	1.3821313718157312e+18
14355.0	1.3819059044876285e+18
14356.0	1.3816796444360701e+18
14357.0	1.3814544220553213e+18
14358.0	1.3812300989333501e+18
14359.0	1.3810034882379773e+18
14360.0	1.3807795795132413e+18
14361.0	1.3805544032698365e+18
14362.0	1.3803291892776957e+18
14363.0	1.3801037378879483e+18
14364.0	1.3798752246562813e+18
14365.0	1.3796504720375805e+18
14366.0	1.3794263921852413e+18
14367.0	1.3792022242525181e+18
14368.0	1.3789775538421757e+18
14369.0	1.378752851555123e+18
14370.0	1.3785281551400957e+18
14371.0	1.3783034880851965e+18
14372.0	1.3780788529070077e+18
14373.0	1.3778542571552765e+18
14374.0	1.3776296530149373e+18
14375.0	1.3774045598187517e+18
14376.0	1.3771807668568061e+18
14377.0	1.3769562994507773e+18
14378.0	1.3767318404333565e+18
14379.0	1.376507632235315e+18
14380.0	1.3762833258905595e+18
14381.0	1.376059068199731e+18
14382.0	1.3758348943949821e+18
14383.0	1.3756108573245437e+18
14384.0	1.3753850519355392e+18
14385.0	1.375162804994048e+18
14386.0	1.3749373158555648e+18
14387.0	1.374714838227353e+18
14388.0	1.374490925308313e+18
14389.0	1.3742669947731965e+18
14390.0	1.3740431464464381e+18
14391.0	1.373819333351833e+18
14392.0	1.3735935959105536e+18
14393.0	1.3733698994175997e+18
14394.0	1.3731421176725501e+18
14395.0	1.372921506509619e+18
14396.0	1.3726988669812733e+18
14397.0	1.3724751461613565e+18
14398.0	1.3722513380999165e+18
14399.0	1.3720272649584637e+18
14400.0	1.3718017212940285e+18
14401.0	1.3715769015664637e+18
14402.0	1.3713492146126845e+18
14403.0	1.3711047202439165e+18
14404.0	1.3706801367220221e+18
14405.0	1.370468761416499e+18
14406.0	1.3704377915146237e+18
14407.0	1.3702290787532797e+18
14408.0	1.3700141299007483e+18
14409.0	1.3697932637241341e+18
14410.0	1.3695726752104445e+18
14411.0	1.369350815822643e+18
14412.0	1.369128348260761e+18
14413.0	1.3689061910773755e+18
14414.0	1.3686836513734653e+18
14415.0	1.368461170389811e+18
14416.0	1.368238728832614e+18
14417.0	1.3680162251997184e+18
14418.0	1.3677936955621373e+18
14419.0	1.367571122303795e+18
14420.0	1.3673484794200061e+18
14421.0	1.3671261855023101e+18
14422.0	1.3669031777140736e+18
14423.0	1.3666776667652093e+18
14424.0	1.3664399973679101e+18
14425.0	1.3662307099869181e+18
14426.0	1.3660124040134653e+18
14427.0	1.3657910563307517e+18
14428.0	1.3655665864081405e+18
14429.0	1.3653468778594301e+18
14430.0	1.3651242064543741e+18
14431.0	1.3648997054939133e+18
14432.0	1.3646798828601341e+18
14433.0	1.364455166312448e+18
14434.0	1.3642360583880701e+18
14435.0	1.3640152618369021e+18
14436.0	1.363794587759411e+18
14437.0	1.3635731478020093e+18
14438.0	1.363351270798131e+18
14439.0	1.3631298627174397e+18
14440.0	1.362908448764723e+18
14441.0	1.3626852019011581e+18
14442.0	1.3624628308082685e+18
14443.0	1.3622389388607485e+18
14444.0	1.3620190784782333e+18
14445.0	1.361793535652659e+18
14446.0	1.3615142319161344e+18
14447.0	1.3613398436610045e+18
14448.0	1.3611350307635197e+18
14449.0	1.3609163238146045e+18
14450.0	1.3606960356130813e+18
14451.0	1.3604753850236928e+18
14452.0	1.3602546228658173e+18
14453.0	1.3600338003099648e+18
14454.0	1.3598129173561344e+18
14455.0	1.3595919463219197e+18
14456.0	1.3593714853150717e+18
14457.0	1.3591508003323901e+18
14458.0	1.3589300398522365e+18
14459.0	1.358709312926515e+18
14460.0	1.3584885591572477e+18
14461.0	1.3582653215211517e+18
14462.0	1.3580451759259645e+18
14463.0	1.3578248508145661e+18
14464.0	1.3576039871545341e+18
14465.0	1.3573821856481275e+18
14466.0	1.357163980337971e+18
14467.0	1.3569435721793533e+18
14468.0	1.356723297399603e+18
14469.0	1.3564996654989307e+18
14470.0	1.356281098639769e+18
14471.0	1.356062367363891e+18
14472.0	1.3558433768800256e+18
14473.0	1.3556236523929597e+18
14474.0	1.3554037836218365e+18
14475.0	1.3551838401921021e+18
14476.0	1.3549638598524923e+18
14477.0	1.354744202474291e+18
14478.0	1.3545244603711485e+18
14479.0	1.354304605860659e+18
14480.0	1.3540840374796285e+18
14481.0	1.3538649832423421e+18
14482.0	1.3536448913342461e+18
14483.0	1.3534246509477885e+18
14484.0	1.3532034869755901e+18
14485.0	1.3529791093276667e+18
14486.0	1.3527506967592957e+18
14487.0	1.3525439704203261e+18
14488.0	1.3523277372719101e+18
14489.0	1.352109059683123e+18
14490.0	1.3518902873030653e+18
14491.0	1.3516712850751485e+18
14492.0	1.3514522551648253e+18
14493.0	1.3512330440605693e+18
14494.0	1.351011133502259e+18
14495.0	1.3507923133071357e+18
14496.0	1.3505693986324477e+18
14497.0	1.3503553549107197e+18
14498.0	1.350137824883507e+18
14499.0	1.349919138067251e+18
14500.0	1.3496998044893181e+18
14501.0	1.3494765945356285e+18
14502.0	1.349243255337779e+18
14503.0	1.3490393249218557e+18
14504.0	1.348822122050355e+18
14505.0	1.3486033790304253e+18
14506.0	1.3483811253780477e+18
14507.0	1.348154232825446e+18
14508.0	1.3479458757410813e+18
14509.0	1.3477298766348285e+18
14510.0	1.3475118651015165e+18
14511.0	1.347293143053107e+18
14512.0	1.3470738363187197e+18
14513.0	1.346853932315443e+18
14514.0	1.3466308104421373e+18
14515.0	1.3463924607287293e+18
14516.0	1.3459701094154237e+18
14517.0	1.345926018052915e+18
14518.0	1.3457564742189053e+18
14519.0	1.3455431821164541e+18
14520.0	1.345329852265267e+18
14521.0	1.3451129379618816e+18
14522.0	1.344895544668979e+18
14523.0	1.344677839319859e+18
14524.0	1.3444601331318781e+18
14525.0	1.344242336346931e+18
14526.0	1.3440243004866557e+18
14527.0	1.3438011207319547e+18
14528.0	1.3435800423235581e+18
14529.0	1.3433707314544637e+18
14530.0	1.3431540939751421e+18
14531.0	1.342937521926963e+18
14532.0	1.3427202838233085e+18
14533.0	1.3425031522549757e+18
14534.0	1.3422859602886653e+18
14535.0	1.3420686517207037e+18
14536.0	1.3418512844324861e+18
14537.0	1.341633856746291e+18
14538.0	1.341417007035187e+18
14539.0	1.3411999820021757e+18
14540.0	1.3409828470783995e+18
14541.0	1.3407655385104381e+18
14542.0	1.3405484564348928e+18
14543.0	1.3403298375663613e+18
14544.0	1.3401133527597053e+18
14545.0	1.3398930880462845e+18
14546.0	1.3396278520053757e+18
14547.0	1.339406253503283e+18
14548.0	1.339238447788851e+18
14549.0	1.3390221877968893e+18
14550.0	1.338811070021632e+18
14551.0	1.338596136268595e+18
14552.0	1.3383778613329917e+18
14553.0	1.3381608782430205e+18
14554.0	1.3379452020981757e+18
14555.0	1.337728238302003e+18
14556.0	1.3375104817823744e+18
14557.0	1.3372900526522365e+18
14558.0	1.337051164390195e+18
14559.0	1.3366895382102016e+18
14560.0	1.3366170983858173e+18
14561.0	1.3364244170932221e+18
14562.0	1.3362100697038845e+18
14563.0	1.3359982154088448e+18
14564.0	1.3357795118153725e+18
14565.0	1.3355670803841021e+18
14566.0	1.3353511475478523e+18
14567.0	1.335134921110323e+18
14568.0	1.3349178105135101e+18
14569.0	1.3346941593190397e+18
14570.0	1.3344414172708861e+18
14571.0	1.3342648060346365e+18
14572.0	1.3340521606938621e+18
14573.0	1.3338361817202685e+18
14574.0	1.333624657097523e+18
14575.0	1.3334096537190397e+18
14576.0	1.3331942804029435e+18
14577.0	1.3329789347692541e+18
14578.0	1.332763452401254e+18
14579.0	1.3325481621323773e+18
14580.0	1.332332822370713e+18
14581.0	1.3321173886566397e+18
14582.0	1.3319021462028285e+18
14583.0	1.3316867519152125e+18
14584.0	1.331471209149235e+18
14585.0	1.3312563148226557e+18
14586.0	1.331041213297459e+18
14587.0	1.330826141971251e+18
14588.0	1.3306111553699837e+18
14589.0	1.3303961620578301e+18
14590.0	1.3301811184140285e+18
14591.0	1.3299658239508477e+18
14592.0	1.3297492686798845e+18
14593.0	1.3295305944465408e+18
14594.0	1.3293199237840893e+18
14595.0	1.3291061275262973e+18
14596.0	1.3288892232892416e+18
14597.0	1.3286743205740541e+18
14598.0	1.328462542615347e+18
14599.0	1.328248863798067e+18
14600.0	1.3280345868730365e+18
14601.0	1.3278201690193917e+18
14602.0	1.3276056706351101e+18
14603.0	1.3273909012987901e+18
14604.0	1.3271744945061885e+18
14605.0	1.3269583116894208e+18
14606.0	1.3267364841783293e+18
14607.0	1.3265338288308221e+18
14608.0	1.3263155522174973e+18
14609.0	1.3260992939032573e+18
14610.0	1.3258850824093693e+18
14611.0	1.3256694565961725e+18
14612.0	1.3254616363827197e+18
14613.0	1.325247692485427e+18
14614.0	1.3250304292159485e+18
14615.0	1.324817528861491e+18
14616.0	1.324605796201267e+18
14617.0	1.3243847966457853e+18
14618.0	1.324172121944883e+18
14619.0	1.3239597827883008e+18
14620.0	1.323745393455923e+18
14621.0	1.3235355348107261e+18
14622.0	1.3233227779014653e+18
14623.0	1.3231089229234173e+18
14624.0	1.322893786166067e+18
14625.0	1.322681827852288e+18
14626.0	1.3224664293703677e+18
14627.0	1.3222531666280445e+18
14628.0	1.3220426813538301e+18
14629.0	1.3218293884125181e+18
14630.0	1.3216135595950077e+18
14631.0	1.3213999831187453e+18
14632.0	1.3211826560958461e+18
14633.0	1.3209741178175485e+18
14634.0	1.3207632072409085e+18
14635.0	1.3205497683378173e+18
14636.0	1.3203353286737917e+18
14637.0	1.3201240112496637e+18
14638.0	1.3199107392798717e+18
14639.0	1.3196970319413245e+18
14640.0	1.3194831744466941e+18
14641.0	1.319266131797606e+18
14642.0	1.3190574483963901e+18
14643.0	1.3188457778118653e+18
14644.0	1.3186330301300733e+18
14645.0	1.3184166778634237e+18
14646.0	1.3182042397212667e+18
