# Flux units: erg / (cm m2 s)
# Wavelength units: Angstrom
wave	flux
14000.0	1.549265595793407e+18
14001.0	1.549020453824102e+18
14002.0	1.5488655615328253e+18
14003.0	1.548580164311449e+18
14004.0	1.5482850698592253e+18
14005.0	1.5479898109902843e+18
14006.0	1.5476866852847613e+18
14007.0	1.547391535467724e+18
14008.0	1.54701112887214e+18
14009.0	1.5468059133214715e+18
14010.0	1.5465028295589885e+18
14011.0	1.5455684896227325e+18
14012.0	1.5459246447525888e+18
14013.0	1.5456301073039352e+18
14014.0	1.5453303236198397e+18
14015.0	1.5450386903072763e+18
14016.0	1.5447462214893565e+18
14017.0	1.5444518887227387e+18
14018.0	1.5441546417537021e+18
14019.0	1.5438631141375997e+18
14020.0	1.5435682277228541e+18
14021.0	1.5432732993650688e+18
14022.0	1.5429677040533501e+18
14023.0	1.5426402950053885e+18
14024.0	1.5423554564653053e+18
14025.0	1.5420957619388413e+18
14026.0	1.5417982683447293e+18
14027.0	1.541505423717171e+18
14028.0	1.5412116798308347e+18
14029.0	1.540917519869542e+18
14030.0	1.5374537008873495e+18
14031.0	1.5401549131939832e+18
14032.0	1.5400327616397312e+18
14033.0	1.539673896989491e+18
14034.0	1.5394464063291387e+18
14035.0	1.5391570933055485e+18
14036.0	1.5388568130158587e+18
14037.0	1.5385688908234747e+18
14038.0	1.5382777524387837e+18
14039.0	1.5379811497148416e+18
14040.0	1.537683177970073e+18
14041.0	1.5373941770027003e+18
14042.0	1.5370924891045885e+18
14043.0	1.536772131520512e+18
14044.0	1.5365010586861565e+18
14045.0	1.5362168643911677e+18
14046.0	1.5359268349804544e+18
14047.0	1.5356200015101947e+18
14048.0	1.5353373070983165e+18
14049.0	1.5350526413635581e+18
14050.0	1.5347603503841277e+18
14051.0	1.5344599761420285e+18
14052.0	1.5341755738095613e+18
14053.0	1.5338836938719232e+18
14054.0	1.533591689782886e+18
14055.0	1.5332996806606848e+18
14056.0	1.5330077034151933e+18
14057.0	1.532715868776038e+18
14058.0	1.5324239921938432e+18
14059.0	1.532129968128e+18
14060.0	1.5318406249054203e+18
14061.0	1.531541975361126e+18
14062.0	1.5312574153228285e+18
14063.0	1.5309480015167488e+18
14064.0	1.5299954381684739e+18
14065.0	1.530369164076646e+18
14066.0	1.5300861324427264e+18
14067.0	1.5297547337728e+18
14068.0	1.5295042130280443e+18
14069.0	1.5292060634447867e+18
14070.0	1.528919978357555e+18
14071.0	1.5286280799649792e+18
14072.0	1.528340132606771e+18
14073.0	1.5280492710461437e+18
14074.0	1.5277585453809664e+18
14075.0	1.5274498831941632e+18
14076.0	1.5271299047751675e+18
14077.0	1.5261308651831296e+18
14078.0	1.5265412325310464e+18
14079.0	1.5262963388645373e+18
14080.0	1.5260151678238715e+18
14081.0	1.525724838100992e+18
14082.0	1.5254296178196475e+18
14083.0	1.5251419774844923e+18
14084.0	1.5248540452257792e+18
14085.0	1.523973521565286e+18
14086.0	1.5242107748876285e+18
14087.0	1.5239772360409085e+18
14088.0	1.5236679111540736e+18
14089.0	1.5233671527137277e+18
14090.0	1.5230957409796093e+18
14091.0	1.522819755776409e+18
14092.0	1.5225301508292605e+18
14093.0	1.522240569370214e+18
14094.0	1.5219510399205376e+18
14095.0	1.5216615792574464e+18
14096.0	1.5212320640729085e+18
14097.0	1.521048855196467e+18
14098.0	1.5207296535625725e+18
14099.0	1.5205044043382781e+18
14100.0	1.5202028372361216e+18
14101.0	1.5199263654936576e+18
14102.0	1.519637153133363e+18
14103.0	1.5193318816219136e+18
14104.0	1.5190571597430781e+18
14105.0	1.5187701955297277e+18
14106.0	1.518481857262387e+18
14107.0	1.5181895528611837e+18
14108.0	1.517888447132467e+18
14109.0	1.5176107540086781e+18
14110.0	1.5173188388388864e+18
14111.0	1.5170204644409341e+18
14112.0	1.5167367667515392e+18
14113.0	1.516436421030707e+18
14114.0	1.516155640899174e+18
14115.0	1.5158753070415872e+18
14116.0	1.5154791147634685e+18
14117.0	1.5097314049785856e+18
14118.0	1.51501540425728e+18
14119.0	1.5146420172488704e+18
14120.0	1.5143720550662141e+18
14121.0	1.5141378887516157e+18
14122.0	1.513722978133606e+18
14123.0	1.5134953197010941e+18
14124.0	1.5131870853332992e+18
14125.0	1.5125575605682168e+18
14126.0	1.5126967745511421e+18
14127.0	1.512427337495347e+18
14128.0	1.5121387307925501e+18
14129.0	1.5118415995863037e+18
14130.0	1.5115476929609725e+18
14131.0	1.5112784387768315e+18
14132.0	1.5109867467440123e+18
14133.0	1.5101843344457725e+18
14134.0	1.5104151184736253e+18
14135.0	1.5100913786028024e+18
14136.0	1.5096728071962621e+18
14137.0	1.5095440907173883e+18
14138.0	1.5092059593506816e+18
14139.0	1.5089775409102848e+18
14140.0	1.5086814851235837e+18
14141.0	1.5083751516143613e+18
14142.0	1.5077122838102016e+18
14143.0	1.5078239814811643e+18
14144.0	1.5074951983792125e+18
14145.0	1.5071146189783037e+18
14146.0	1.5068199523450875e+18
14147.0	1.5065377696382976e+18
14148.0	1.5062395495907328e+18
14149.0	1.5059554341486592e+18
14150.0	1.505687911373209e+18
14151.0	1.5053089241300987e+18
14152.0	1.504671020823347e+18
14153.0	1.5043850917642235e+18
14154.0	1.504077209717964e+18
14155.0	1.5028761456017405e+18
14156.0	1.503286167339007e+18
14157.0	1.5032416171196413e+18
14158.0	1.5029512236433405e+18
14159.0	1.5026710055485435e+18
14160.0	1.5023754463674363e+18
14161.0	1.5020494885486592e+18
14162.0	1.501715499476582e+18
14163.0	1.5015272826011643e+18
14164.0	1.501077534094131e+18
14165.0	1.5008565429272576e+18
14166.0	1.5006718492671997e+18
14167.0	1.5003777111162875e+18
14168.0	1.5000867539255293e+18
14169.0	1.4998207159336952e+18
14170.0	1.4995173469585405e+18
14171.0	1.4992413114236925e+18
14172.0	1.4989614305509373e+18
14173.0	1.4986207809241085e+18
14174.0	1.498381631776358e+18
14175.0	1.4981067270258685e+18
14176.0	1.4978201553993728e+18
14177.0	1.4975374945419264e+18
14178.0	1.497253204616806e+18
14179.0	1.4969592208162813e+18
14180.0	1.496686718563123e+18
14181.0	1.4964026148651005e+18
14182.0	1.496117794779955e+18
14183.0	1.4958346238951421e+18
14184.0	1.4955458460647421e+18
14185.0	1.495266601048473e+18
14186.0	1.4940313449660416e+18
14187.0	1.4946752310280187e+18
14188.0	1.4944120334188541e+18
14189.0	1.4941227791155197e+18
14190.0	1.4938407339819e+18
14191.0	1.4935530986799101e+18
14192.0	1.493273544962867e+18
14193.0	1.4928366998126592e+18
14194.0	1.4927055657369597e+18
14195.0	1.4924317934485496e+18
14196.0	1.4921483977490432e+18
14197.0	1.4918652688072696e+18
14198.0	1.4915776519602173e+18
14199.0	1.4912961504083963e+18
14200.0	1.4904210894094339e+18
14201.0	1.490669779759923e+18
14202.0	1.4904484312383485e+18
14203.0	1.4901549608206336e+18
14204.0	1.489882592785203e+18
14205.0	1.4896001550647293e+18
14206.0	1.4891968962232315e+18
14207.0	1.489032155706163e+18
14208.0	1.4887500350750715e+18
14209.0	1.4883460111925248e+18
14210.0	1.4880916719534075e+18
14211.0	1.4878988279218173e+18
14212.0	1.487619957037465e+18
14213.0	1.4873290988322813e+18
14214.0	1.487055484249702e+18
14215.0	1.4867578514046976e+18
14216.0	1.4864922915635197e+18
14217.0	1.4862106289504253e+18
14218.0	1.485919009059635e+18
14219.0	1.4856471862837245e+18
14220.0	1.485359069475635e+18
14221.0	1.4850716170452992e+18
14222.0	1.4847308701106168e+18
14223.0	1.4845154187804667e+18
14224.0	1.4842391148101632e+18
14225.0	1.4819750748094474e+18
14226.0	1.4836499711262712e+18
14227.0	1.483394967509401e+18
14228.0	1.4780647570669578e+18
14229.0	1.4813315528130524e+18
14230.0	1.4825512950038525e+18
14231.0	1.4822003676545027e+18
14232.0	1.4819892666564605e+18
14233.0	1.481703616099123e+18
14234.0	1.481427890942771e+18
14235.0	1.4811445925511163e+18
14236.0	1.4808662182723584e+18
14237.0	1.480584293934694e+18
14238.0	1.480304584189542e+18
14239.0	1.4800083891519485e+18
14240.0	1.4780558013890552e+18
14241.0	1.4794502849953792e+18
14242.0	1.4791757728317435e+18
14243.0	1.478755022064845e+18
14244.0	1.4786220475285501e+18
14245.0	1.4783228678242301e+18
14246.0	1.4780364153159677e+18
14247.0	1.4777727110348795e+18
14248.0	1.4774787943432187e+18
14249.0	1.4772147578732541e+18
14250.0	1.4769346958065664e+18
14251.0	1.4766571285118973e+18
14252.0	1.476377229184204e+18
14253.0	1.4760965597822973e+18
14254.0	1.4758155128930304e+18
14255.0	1.475503453319987e+18
14256.0	1.4734520242667533e+18
14257.0	1.4748184161026038e+18
14258.0	1.4746994287312893e+18
14259.0	1.474402891438489e+18
14260.0	1.474077440291635e+18
14261.0	1.473845147992064e+18
14262.0	1.4735958855385088e+18
14263.0	1.4707217320116234e+18
14264.0	1.4723827888029688e+18
14265.0	1.4727506359746557e+18
14266.0	1.4724792896716797e+18
14267.0	1.4722023481671677e+18
14268.0	1.4719212224249853e+18
14269.0	1.471639277954662e+18
14270.0	1.4713658948976637e+18
14271.0	1.4710856902246397e+18
14272.0	1.470808218560102e+18
14273.0	1.4705276699541504e+18
14274.0	1.466115129606145e+18
14275.0	1.4696014552236032e+18
14276.0	1.469676964439654e+18
14277.0	1.469398229450752e+18
14278.0	1.469137481315123e+18
14279.0	1.468857878944153e+18
14280.0	1.4685751560110083e+18
14281.0	1.4683033449791485e+18
14282.0	1.468025574680166e+18
14283.0	1.467747572855603e+18
14284.0	1.4674696012300285e+18
14285.0	1.467191252117094e+18
14286.0	1.4669049959022592e+18
14287.0	1.466636031963955e+18
14288.0	1.466358313674342e+18
14289.0	1.4650022817693686e+18
14290.0	1.4658010248904701e+18
14291.0	1.465524684010291e+18
14292.0	1.4652481317371904e+18
14293.0	1.4649684656127997e+18
14294.0	1.4645603497672704e+18
14295.0	1.4644006038274048e+18
14296.0	1.4632732436987907e+18
14297.0	1.4638476200771581e+18
14298.0	1.4629487035547645e+18
14299.0	1.4632795351547901e+18
14300.0	1.4630190722318336e+18
14301.0	1.4627458703687677e+18
14302.0	1.4624700613263357e+18
14303.0	1.4621628201697277e+18
14304.0	1.4619011090219003e+18
14305.0	1.4616397065748475e+18
14306.0	1.4613161797746685e+18
14307.0	1.4610571949244413e+18
14308.0	1.460808398877491e+18
14309.0	1.460524191160729e+18
14310.0	1.4600919379345403e+18
14311.0	1.4590569196027901e+18
14312.0	1.459581083451392e+18
14313.0	1.4592790717530107e+18
14314.0	1.4591261155524603e+18
14315.0	1.4588727007379453e+18
14316.0	1.4585510764740603e+18
14317.0	1.4582500563091453e+18
14318.0	1.458049942709862e+18
14319.0	1.4577747460358141e+18
14320.0	1.4574982742933501e+18
14321.0	1.4572208982589437e+18
14322.0	1.4569124659199997e+18
14323.0	1.4566516053770237e+18
14324.0	1.4563943871676413e+18
14325.0	1.4561128302510077e+18
14326.0	1.4558454148497408e+18
14327.0	1.455564171667046e+18
14328.0	1.4552880002367485e+18
14329.0	1.4550192795680763e+18
14330.0	1.4547437775486973e+18
14331.0	1.4544618582441981e+18
14332.0	1.454193515062886e+18
14333.0	1.4539184375070715e+18
14334.0	1.4536433884725245e+18
14335.0	1.4533503005753344e+18
14336.0	1.4528895596363776e+18
14337.0	1.452817947767603e+18
14338.0	1.4525415951433725e+18
14339.0	1.452255525155635e+18
14340.0	1.4519925859155968e+18
14341.0	1.4517060126113792e+18
14342.0	1.4514435213230077e+18
14343.0	1.4511653634703357e+18
14344.0	1.450889205461811e+18
14345.0	1.4506215098810365e+18
14346.0	1.4503425819541504e+18
14347.0	1.4499707015397373e+18
14348.0	1.449796822473113e+18
14349.0	1.4495250584174592e+18
14350.0	1.449094209444249e+18
14351.0	1.4488014268923901e+18
14352.0	1.4486892376489981e+18
14353.0	1.4484212971208701e+18
14354.0	1.448130133570355e+18
14355.0	1.4478221139509245e+18
14356.0	1.4475589012422653e+18
14357.0	1.4473279561531392e+18
14358.0	1.4470541503102973e+18
14359.0	1.4467692211732477e+18
14360.0	1.4464947375308795e+18
14361.0	1.4462278086688765e+18
14362.0	1.4459605828501504e+18
14363.0	1.4456868541825021e+18
14364.0	1.44497426038784e+18
14365.0	1.4450192703029245e+18
14366.0	1.4447725865074685e+18
14367.0	1.4445946171555837e+18
14368.0	1.4443209505636347e+18
14369.0	1.4440483174481915e+18
14370.0	1.443775607157555e+18
14371.0	1.443503203889971e+18
14372.0	1.443222626762752e+18
14373.0	1.442951904572211e+18
14374.0	1.4426833382539264e+18
14375.0	1.4424088562892797e+18
14376.0	1.4421388991397885e+18
14377.0	1.441865571447603e+18
14378.0	1.4415908831231997e+18
14379.0	1.4413209125519357e+18
14380.0	1.441045996057395e+18
14381.0	1.440766373553766e+18
14382.0	1.4405017649807357e+18
14383.0	1.4402239862931453e+18
14384.0	1.4399418404962301e+18
14385.0	1.4396862379327485e+18
14386.0	1.4394014849564667e+18
14387.0	1.4391418390839293e+18
14388.0	1.4388679443218432e+18
14389.0	1.4385973597044736e+18
14390.0	1.4383239061831675e+18
14391.0	1.4377164921110525e+18
14392.0	1.4372446496882685e+18
14393.0	1.4369756656173053e+18
14394.0	1.4366696189984765e+18
14395.0	1.4364092366061565e+18
14396.0	1.4361596000206848e+18
14397.0	1.4358888459534336e+18
14398.0	1.435616100430643e+18
14399.0	1.435345096382873e+18
14400.0	1.4350498123481085e+18
14401.0	1.4347952449388541e+18
14402.0	1.4345298226708477e+18
14403.0	1.4321072815996908e+18
14404.0	1.4276980597850097e+18
14405.0	1.4318210388066286e+18
14406.0	1.4334453367177213e+18
14407.0	1.4303811728310275e+18
14408.0	1.4328215833149435e+18
14409.0	1.432611091329843e+18
14410.0	1.432324231135232e+18
14411.0	1.4320861792174077e+18
14412.0	1.4318156583534587e+18
14413.0	1.431548892230451e+18
14414.0	1.4312754722635773e+18
14415.0	1.4310009366118397e+18
14416.0	1.4307116873416701e+18
14417.0	1.4304141551599613e+18
14418.0	1.430116847792947e+18
14419.0	1.4299175378223104e+18
14420.0	1.4296432672505853e+18
14421.0	1.4293776822435837e+18
14422.0	1.4291034418708475e+18
14423.0	1.428821772546867e+18
14424.0	1.4167123756580826e+18
14425.0	1.4282863427977213e+18
14426.0	1.428026742223667e+18
14427.0	1.4277554680627197e+18
14428.0	1.4274683109113853e+18
14429.0	1.4272100877467645e+18
14430.0	1.4269456284909563e+18
14431.0	1.425802700783616e+18
14432.0	1.4263982533640187e+18
14433.0	1.4238978391670776e+18
14434.0	1.425848866648883e+18
14435.0	1.4254842155368445e+18
14436.0	1.4253274257424381e+18
14437.0	1.4250581531033597e+18
14438.0	1.4246614407315453e+18
14439.0	1.4244928884310013e+18
14440.0	1.424248873890611e+18
14441.0	1.4239676491628541e+18
14442.0	1.4236934540886013e+18
14443.0	1.4233824967786493e+18
14444.0	1.4231655791198203e+18
14445.0	1.4229026851782653e+18
14446.0	1.4196832313802762e+18
14447.0	1.4223348468809725e+18
14448.0	1.422095593714483e+18
14449.0	1.4218265895108603e+18
14450.0	1.421553050425753e+18
14451.0	1.4212866651455485e+18
14452.0	1.4210169613320187e+18
14453.0	1.4207171407380477e+18
14454.0	1.4204789176926203e+18
14455.0	1.420203467682611e+18
14456.0	1.419928385093632e+18
14457.0	1.4196635668054013e+18
14458.0	1.4194004295942141e+18
14459.0	1.419132054536192e+18
14460.0	1.418860907882086e+18
14461.0	1.4185233553293307e+18
14462.0	1.4175169136295939e+18
14463.0	1.4180382991712253e+18
14464.0	1.4177903184969725e+18
14465.0	1.4174990794489853e+18
14466.0	1.4172588213272573e+18
14467.0	1.4169518637055997e+18
14468.0	1.4167160851005437e+18
14469.0	1.4163663522889725e+18
14470.0	1.4161551690825725e+18
14471.0	1.4159057287905277e+18
14472.0	1.4156426788208635e+18
14473.0	1.4153797731352573e+18
14474.0	1.4151143709999104e+18
14475.0	1.4148396591874045e+18
14476.0	1.4144362225074173e+18
14477.0	1.414308314690355e+18
14478.0	1.4140422163005435e+18
14479.0	1.413769948928409e+18
14480.0	1.413491150186086e+18
14481.0	1.413242827256627e+18
14482.0	1.4129709122060285e+18
14483.0	1.412698071053107e+18
14484.0	1.4124277028618235e+18
14485.0	1.412139825967923e+18
14486.0	1.4115998412046336e+18
14487.0	1.4116273843601403e+18
14488.0	1.4113006749220864e+18
14489.0	1.4110201565151232e+18
14490.0	1.4108178098683901e+18
14491.0	1.4105686111682557e+18
14492.0	1.410298875478016e+18
14493.0	1.4100183184834557e+18
14494.0	1.4097399207165947e+18
14495.0	1.4094980234608637e+18
14496.0	1.4090948636049403e+18
14497.0	1.4089632664780797e+18
14498.0	1.4086978307883003e+18
14499.0	1.4084316032139264e+18
14500.0	1.4081646777073664e+18
14501.0	1.4078358946054141e+18
14502.0	1.4073166305427456e+18
14503.0	1.4073242138443773e+18
14504.0	1.4070918837960701e+18
14505.0	1.4067723717836795e+18
14506.0	1.4064517491195901e+18
14507.0	1.4060468008124413e+18
14508.0	1.4060331542249472e+18
14509.0	1.4057668998070272e+18
14510.0	1.405497252197171e+18
14511.0	1.4052337433706493e+18
14512.0	1.4049524800552957e+18
14513.0	1.4047017009414144e+18
14514.0	1.404396826211123e+18
14515.0	1.4041681796005885e+18
14516.0	1.401142416244737e+18
14517.0	1.4036337699061757e+18
14518.0	1.403371750896435e+18
14519.0	1.403104431125299e+18
14520.0	1.4028389325209595e+18
14521.0	1.4025716379156477e+18
14522.0	1.4023009903837181e+18
14523.0	1.401838669869875e+18
14524.0	1.4016415803637757e+18
14525.0	1.4015055934783485e+18
14526.0	1.4012406116122621e+18
14527.0	1.4009400503042043e+18
14528.0	1.4005667295657984e+18
14529.0	1.400436467905331e+18
14530.0	1.400166346339123e+18
14531.0	1.3999152107094013e+18
14532.0	1.3994561508474877e+18
14533.0	1.3993827102621693e+18
14534.0	1.399122086277939e+18
14535.0	1.3988462042546173e+18
14536.0	1.3985879366303744e+18
14537.0	1.3983137272954877e+18
14538.0	1.398061019640627e+18
14539.0	1.3977960042201085e+18
14540.0	1.397530868003635e+18
14541.0	1.3972466418319357e+18
14542.0	1.3970006039592957e+18
14543.0	1.3966442265313277e+18
14544.0	1.396470198986342e+18
14545.0	1.3961948890660864e+18
14546.0	1.379181078249467e+18
14547.0	1.380259451423942e+18
14548.0	1.3953969168580605e+18
14549.0	1.3950222363262973e+18
14550.0	1.3948736724008957e+18
14551.0	1.3946167184326653e+18
14552.0	1.3943492300505085e+18
14553.0	1.3940778283827195e+18
14554.0	1.3938228834861053e+18
14555.0	1.3935576088575997e+18
14556.0	1.3932903545176061e+18
14557.0	1.3930288849616893e+18
14558.0	1.3927637537783805e+18
14559.0	1.3904290254946286e+18
14560.0	1.3921907355156477e+18
14561.0	1.391963192007065e+18
14562.0	1.391666341819187e+18
14563.0	1.3914354302844923e+18
14564.0	1.3911012709236736e+18
14565.0	1.3909132469862395e+18
14566.0	1.3906489211092992e+18
14567.0	1.3900604476751867e+18
14568.0	1.389464575488819e+18
14569.0	1.3892238123728893e+18
14570.0	1.3883960471846904e+18
14571.0	1.388694211867443e+18
14572.0	1.3883454882054141e+18
14573.0	1.3881087969198077e+18
14574.0	1.3877181880991741e+18
14575.0	1.3876180448968701e+18
14576.0	1.3873524867334144e+18
14577.0	1.3871052014747645e+18
14578.0	1.3868394059137021e+18
14579.0	1.386581830349619e+18
14580.0	1.3863170011561981e+18
14581.0	1.386043109749555e+18
14582.0	1.3857783543758845e+18
14583.0	1.3855198980079613e+18
14584.0	1.3852159351193597e+18
14585.0	1.384991216055091e+18
14586.0	1.3847252577550336e+18
14587.0	1.3844619972313085e+18
14588.0	1.3842002097471483e+18
14589.0	1.383944182720102e+18
14590.0	1.383688297460531e+18
14591.0	1.3834226151456765e+18
14592.0	1.383167666893619e+18
14593.0	1.382798039659315e+18
14594.0	1.3826618539638781e+18
14595.0	1.3824002569011195e+18
14596.0	1.3816652311298043e+18
14597.0	1.381328174343782e+18
14598.0	1.3815837618077693e+18
14599.0	1.381380109054771e+18
14600.0	1.3811096385224701e+18
14601.0	1.3808645594677245e+18
14602.0	1.3805615226814461e+18
14603.0	1.3803518292918272e+18
14604.0	1.3800106587324413e+18
14605.0	1.3797204045070333e+18
14606.0	1.3794978329264123e+18
14607.0	1.3793077974007805e+18
14608.0	1.379066380812288e+18
14609.0	1.3787995366752253e+18
14610.0	1.37832635039744e+18
14611.0	1.3782823320158205e+18
14612.0	1.378045910004531e+18
14613.0	1.3777913140740093e+18
14614.0	1.377529603765043e+18
14615.0	1.3772686794686461e+18
14616.0	1.3770226113970176e+18
14617.0	1.3767621870616576e+18
14618.0	1.3764698474283005e+18
14619.0	1.3758688363806712e+18
14620.0	1.374946756395008e+18
14621.0	1.3757413287002112e+18
14622.0	1.3754821727223805e+18
14623.0	1.3752286278844413e+18
14624.0	1.3749125837225981e+18
14625.0	1.3747129222692861e+18
14626.0	1.3744535548985341e+18
14627.0	1.3741920014565373e+18
14628.0	1.373945854531993e+18
14629.0	1.3736891245395965e+18
14630.0	1.3734197311045627e+18
14631.0	1.3731735992795133e+18
14632.0	1.3719671932977152e+18
14633.0	1.3724673900543995e+18
14634.0	1.3723875439280125e+18
14635.0	1.370261974679549e+18
14636.0	1.3683962719240184e+18
14637.0	1.3716351881314301e+18
14638.0	1.3713521523032064e+18
14639.0	1.3710862980218877e+18
14640.0	1.3708599096246267e+18
14641.0	1.3667553519861742e+18
14642.0	1.3703425875247101e+18
14643.0	1.370086479128166e+18
14644.0	1.3698154826301437e+18
14645.0	1.3695457653948413e+18
14646.0	1.3692643485679613e+18
14647.0	1.368962402300723e+18
