# Flux units: erg / (cm m2 s)
# Wavelength units: Angstrom
wave	flux
14000.0	2.1385870795866104e+18
14001.0	2.1384039462076416e+18
14002.0	2.1380626540134395e+18
14003.0	2.1376451613818875e+18
14004.0	2.1372238603223035e+18
14005.0	2.1368009721380861e+18
14006.0	2.13637246526423e+18
14007.0	2.13594582066135e+18
14008.0	2.135469082646937e+18
14009.0	2.1350931085918205e+18
14010.0	2.1346629676171261e+18
14011.0	2.1338206356111355e+18
14012.0	2.1338206624546816e+18
14013.0	2.1334145279983616e+18
14014.0	2.13298866856919e+18
14015.0	2.1325700971626493e+18
14016.0	2.1321488497901563e+18
14017.0	2.1317268054999037e+18
14018.0	2.1313044004995072e+18
14019.0	2.1308820290535421e+18
14020.0	2.1304590653718525e+18
14021.0	2.1300361235005435e+18
14022.0	2.1296129433927675e+18
14023.0	2.129180019077939e+18
14024.0	2.1287595434573821e+18
14025.0	2.1283477768896504e+18
14026.0	2.1279253987327992e+18
14027.0	2.1275035759017981e+18
14028.0	2.127073260444057e+18
14029.0	2.1266371501359101e+18
14030.0	2.1254056655716352e+18
14031.0	2.1256535892033533e+18
14032.0	2.1253853567516672e+18
14033.0	2.1249386851860475e+18
14034.0	2.1245549382467576e+18
14035.0	2.1241364456931325e+18
14036.0	2.12371271361495e+18
14037.0	2.1232968215298045e+18
14038.0	2.122876720041164e+18
14039.0	2.1224528604561403e+18
14040.0	2.1220336431267837e+18
14041.0	2.1216149643460605e+18
14042.0	2.1211878264930301e+18
14043.0	2.1207486258216957e+18
14044.0	2.1203486653808637e+18
14045.0	2.1199348788363256e+18
14046.0	2.1195125241675773e+18
14047.0	2.119089855764889e+18
14048.0	2.1186776630558715e+18
14049.0	2.1182592980090875e+18
14050.0	2.1178401192673277e+18
14051.0	2.1174156758351867e+18
14052.0	2.1169973325987835e+18
14053.0	2.1165831937327101e+18
14054.0	2.1161645820608502e+18
14055.0	2.1157458663702528e+18
14056.0	2.1153272312102904e+18
14057.0	2.1149087353012221e+18
14058.0	2.114490289723801e+18
14059.0	2.114071924677017e+18
14060.0	2.1136535059431421e+18
14061.0	2.113230595948544e+18
14062.0	2.1128159235670016e+18
14063.0	2.1123833113083901e+18
14064.0	2.1118246786695168e+18
14065.0	2.111555754996531e+18
14066.0	2.111145786946355e+18
14067.0	2.1107242845601784e+18
14068.0	2.1103111506493437e+18
14069.0	2.1098927084273661e+18
14070.0	2.1094760764669947e+18
14071.0	2.1090574765391867e+18
14072.0	2.1086424484806653e+18
14073.0	2.108225405478502e+18
14074.0	2.107808181282406e+18
14075.0	2.1073753039437821e+18
14076.0	2.1069639635173373e+18
14077.0	2.1063650873704445e+18
14078.0	2.1061139509018621e+18
14079.0	2.1057149467623421e+18
14080.0	2.1053080472649725e+18
14081.0	2.104892598098329e+18
14082.0	2.104475667503513e+18
14083.0	2.1040575088164861e+18
14084.0	2.1036308793131005e+18
14085.0	2.1029866778394621e+18
14086.0	2.102778024637235e+18
14087.0	2.1023929170657275e+18
14088.0	2.1019706211172347e+18
14089.0	2.1015628676595712e+18
14090.0	2.1011510776037373e+18
14091.0	2.1007371652300792e+18
14092.0	2.1003223871520765e+18
14093.0	2.099907161122406e+18
14094.0	2.0994913378238461e+18
14095.0	2.0990732932218877e+18
14096.0	2.098637951310233e+18
14097.0	2.09821932453888e+18
14098.0	2.0978204630056955e+18
14099.0	2.0974162243747835e+18
14100.0	2.0969963762221053e+18
14101.0	2.0965913775833088e+18
14102.0	2.0961774383661056e+18
14103.0	2.095753590525132e+18
14104.0	2.0953475533766648e+18
14105.0	2.0949363941441533e+18
14106.0	2.094522694841139e+18
14107.0	2.094108753946214e+18
14108.0	2.0936849128161275e+18
14109.0	2.0932783304081403e+18
14110.0	2.0928657987993597e+18
14111.0	2.0924477072211965e+18
14112.0	2.0920324711251968e+18
14113.0	2.0916240633561088e+18
14114.0	2.0911943820771325e+18
14115.0	2.0907794362269696e+18
14116.0	2.090253883224883e+18
14117.0	2.0884092534915072e+18
14118.0	2.0894944340213755e+18
14119.0	2.0891098750648315e+18
14120.0	2.0887126442770424e+18
14121.0	2.08830482874368e+18
14122.0	2.0878997579628536e+18
14123.0	2.0874843356397565e+18
14124.0	2.08705370980352e+18
14125.0	2.0863465686040573e+18
14126.0	2.0862447795568637e+18
14127.0	2.085850040185651e+18
14128.0	2.0854403305046016e+18
14129.0	2.085020448797491e+18
14130.0	2.084599926200729e+18
14131.0	2.084205163341414e+18
14132.0	2.0837697962639355e+18
14133.0	2.083003233520844e+18
14134.0	2.082950767810969e+18
14135.0	2.0825479283998715e+18
14136.0	2.082143293826662e+18
14137.0	2.081734746806681e+18
14138.0	2.0813211095793661e+18
14139.0	2.0809174648619005e+18
14140.0	2.0805023948603387e+18
14141.0	2.080065415492403e+18
14142.0	2.07962357408727e+18
14143.0	2.0792686940258301e+18
14144.0	2.0788690557075448e+18
14145.0	2.0784618575757312e+18
14146.0	2.078049728620134e+18
14147.0	2.0776430757478397e+18
14148.0	2.0772331982946296e+18
14149.0	2.0768241177591803e+18
14150.0	2.0764171310202877e+18
14151.0	2.0760035843899387e+18
14152.0	2.075599248451174e+18
14153.0	2.075190164560281e+18
14154.0	2.0747588911235067e+18
14155.0	2.0743554846425083e+18
14156.0	2.0739609667305472e+18
14157.0	2.0735539766362107e+18
14158.0	2.0731431311376376e+18
14159.0	2.0727361645314043e+18
14160.0	2.0723133904322555e+18
14161.0	2.0718792061485048e+18
14162.0	2.0714351014969344e+18
14163.0	2.071089477425561e+18
14164.0	2.0706563551395837e+18
14165.0	2.0702623992643581e+18
14166.0	2.0698746157268987e+18
14167.0	2.0694590239539197e+18
14168.0	2.069064049701683e+18
14169.0	2.0686579404111867e+18
14170.0	2.0682485696299005e+18
14171.0	2.0678414100856827e+18
14172.0	2.067435661505331e+18
14173.0	2.0670136860016637e+18
14174.0	2.0666151163920381e+18
14175.0	2.0662151257522173e+18
14176.0	2.065808764803481e+18
14177.0	2.0654020867653627e+18
14178.0	2.064994793003417e+18
14179.0	2.0645854725537784e+18
14180.0	2.064182106338099e+18
14181.0	2.0637755138637821e+18
14182.0	2.0633682234572797e+18
14183.0	2.0629612451069952e+18
14184.0	2.0625486380007421e+18
14185.0	2.0621292344442877e+18
14186.0	2.061483860243251e+18
14187.0	2.0612758110207997e+18
14188.0	2.0609229006045181e+18
14189.0	2.060522742192537e+18
14190.0	2.0601181260742648e+18
14191.0	2.0597114362920955e+18
14192.0	2.0592982050734075e+18
14193.0	2.0588638563729405e+18
14194.0	2.0584960914096125e+18
14195.0	2.0580953743163387e+18
14196.0	2.0576910685765624e+18
14197.0	2.0572861756342267e+18
14198.0	2.0568775682162688e+18
14199.0	2.0564709304434683e+18
14200.0	2.055913680247193e+18
14201.0	2.0556272730374144e+18
14202.0	2.0552605633609725e+18
14203.0	2.0548550194626555e+18
14204.0	2.0544521699852288e+18
14205.0	2.054045189957222e+18
14206.0	2.0535582178410493e+18
14207.0	2.0532343689183227e+18
14208.0	2.0528348866281464e+18
14209.0	2.0523390242652155e+18
14210.0	2.0519528832172027e+18
14211.0	2.051621091960422e+18
14212.0	2.0512241111531517e+18
14213.0	2.0508216995610621e+18
14214.0	2.0504180766539773e+18
14215.0	2.050007705950617e+18
14216.0	2.0495882336075768e+18
14217.0	2.049124049983897e+18
14218.0	2.048710323837337e+18
14219.0	2.0483177655042043e+18
14220.0	2.0479126594912248e+18
14221.0	2.047510150591283e+18
14222.0	2.047093501853696e+18
14223.0	2.0467029970518016e+18
14224.0	2.046290906683801e+18
14225.0	2.0453806001094656e+18
14226.0	2.045444016308224e+18
14227.0	2.0450772395229176e+18
14228.0	2.0434529231568896e+18
14229.0	2.0439255792746486e+18
14230.0	2.043879816062566e+18
14231.0	2.0434787500031992e+18
14232.0	2.0430859651776507e+18
14233.0	2.04268329018327e+18
14234.0	2.0422625075396603e+18
14235.0	2.0417885511876605e+18
14236.0	2.0413881679609853e+18
14237.0	2.040984635650867e+18
14238.0	2.040580244347289e+18
14239.0	2.0401551583477755e+18
14240.0	2.0386432073859072e+18
14241.0	2.0393251055861755e+18
14242.0	2.038957691266662e+18
14243.0	2.0384721250811901e+18
14244.0	2.038173728872857e+18
14245.0	2.0377695724503037e+18
14246.0	2.037369858634547e+18
14247.0	2.0369723174682621e+18
14248.0	2.036565204900249e+18
14249.0	2.0361742806679547e+18
14250.0	2.035773912540774e+18
14251.0	2.0353746668093437e+18
14252.0	2.0349733390254077e+18
14253.0	2.0345700902502397e+18
14254.0	2.0341271700701181e+18
14255.0	2.0336194076278784e+18
14256.0	2.0327733577908224e+18
14257.0	2.0326900320698365e+18
14258.0	2.0324541444128763e+18
14259.0	2.03204851662848e+18
14260.0	2.0316473364840445e+18
14261.0	2.0312406517350397e+18
14262.0	2.0308494053801981e+18
14263.0	2.0297551349547008e+18
14264.0	2.029706566592102e+18
14265.0	2.0296599594860544e+18
14266.0	2.029292870644531e+18
14267.0	2.028900805561548e+18
14268.0	2.028504010981376e+18
14269.0	2.0280975913123837e+18
14270.0	2.0277044474544128e+18
14271.0	2.0273006450311163e+18
14272.0	2.0268866538045437e+18
14273.0	2.0264071307722747e+18
14274.0	2.0248611136733181e+18
14275.0	2.0254035411992568e+18
14276.0	2.0252660233928701e+18
14277.0	2.0248503695441917e+18
14278.0	2.0244139874451448e+18
14279.0	2.024018154199449e+18
14280.0	2.0236194436612093e+18
14281.0	2.023226841707315e+18
14282.0	2.022829817279283e+18
14283.0	2.022432279468441e+18
14284.0	2.0220345185206264e+18
14285.0	2.021636427061657e+18
14286.0	2.0212378322862077e+18
14287.0	2.0208379372765181e+18
14288.0	2.020420922795622e+18
14289.0	2.0193132826066934e+18
14290.0	2.0196277195112443e+18
14291.0	2.0192474672660477e+18
14292.0	2.018852493013811e+18
14293.0	2.0184508548513787e+18
14294.0	2.0179642015023101e+18
14295.0	2.0176278686531581e+18
14296.0	2.0166890777214979e+18
14297.0	2.0168109860061176e+18
14298.0	2.0162472363163643e+18
14299.0	2.0160422187368445e+18
14300.0	2.0156696974327805e+18
14301.0	2.0152787547455483e+18
14302.0	2.01485609640919e+18
14303.0	2.014350290190336e+18
14304.0	2.0139718263963643e+18
14305.0	2.013585369936691e+18
14306.0	2.0131811497607165e+18
14307.0	2.0127833569361915e+18
14308.0	2.0123906392195072e+18
14309.0	2.0119884457312253e+18
14310.0	2.0115698743246843e+18
14311.0	2.011169551495987e+18
14312.0	2.0107731159482363e+18
14313.0	2.0103477011152893e+18
14314.0	2.010013836194611e+18
14315.0	2.0096203953799165e+18
14316.0	2.0091965475389435e+18
14317.0	2.0088249590480893e+18
14318.0	2.008443430056755e+18
14319.0	2.0080523833507835e+18
14320.0	2.0076584878735355e+18
14321.0	2.007261280573849e+18
14322.0	2.006844865039564e+18
14323.0	2.0064577056145403e+18
14324.0	2.0060817902796792e+18
14325.0	2.0056794558627837e+18
14326.0	2.005294705645977e+18
14327.0	2.0048944230825981e+18
14328.0	2.0045021549953021e+18
14329.0	2.0041127625228283e+18
14330.0	2.0036614436683768e+18
14331.0	2.0032118713221117e+18
14332.0	2.0028178969919483e+18
14333.0	2.002423697847091e+18
14334.0	2.0020291698687997e+18
14335.0	2.0016231629193216e+18
14336.0	2.0011865140625403e+18
14337.0	2.000843312621158e+18
14338.0	2.0004517391106043e+18
14339.0	2.0000502485876736e+18
14340.0	1.999666100672921e+18
14341.0	1.9992721078878208e+18
14342.0	1.9988781067141112e+18
14343.0	1.9984859208351736e+18
14344.0	1.9980898023768061e+18
14345.0	1.997699913298739e+18
14346.0	1.9973038216839165e+18
14347.0	1.996901779190579e+18
14348.0	1.9965171900350461e+18
14349.0	1.996125408487014e+18
14350.0	1.99568716243927e+18
14351.0	1.9952908342657021e+18
14352.0	1.994940797786521e+18
14353.0	1.994556398213529e+18
14354.0	1.994159910656409e+18
14355.0	1.9937577473671165e+18
14356.0	1.9933679740518397e+18
14357.0	1.9929892518887421e+18
14358.0	1.9925985172389888e+18
14359.0	1.9921924163371005e+18
14360.0	1.9918114678374397e+18
14361.0	1.991420372477542e+18
14362.0	1.9909768936161275e+18
14363.0	1.9905150420254717e+18
14364.0	1.989998984927641e+18
14365.0	1.98966998204416e+18
14366.0	1.9893170129076221e+18
14367.0	1.9889539187212283e+18
14368.0	1.988563637056307e+18
14369.0	1.98817302488023e+18
14370.0	1.9877820352167933e+18
14371.0	1.9873911042736128e+18
14372.0	1.9869952911605755e+18
14373.0	1.9866085830426621e+18
14374.0	1.9862175581470717e+18
14375.0	1.985825623926374e+18
14376.0	1.9854358103457787e+18
14377.0	1.9850444381618173e+18
14378.0	1.9846522405388288e+18
14379.0	1.9842632305868792e+18
14380.0	1.983871687275315e+18
14381.0	1.9834718828625917e+18
14382.0	1.9830902381084664e+18
14383.0	1.9826998490693632e+18
14384.0	1.98229420450775e+18
14385.0	1.9819205775851515e+18
14386.0	1.9815138676703227e+18
14387.0	1.981139893459353e+18
14388.0	1.980749215852134e+18
14389.0	1.980359284831027e+18
14390.0	1.9799687011762173e+18
14391.0	1.9795801626640381e+18
14392.0	1.9791899766292475e+18
14393.0	1.978800765350707e+18
14394.0	1.9783769191874555e+18
14395.0	1.9780119946067965e+18
14396.0	1.9776314655375355e+18
14397.0	1.9772418683830272e+18
14398.0	1.9768516672487421e+18
14399.0	1.976372221391667e+18
14400.0	1.9759350155313144e+18
14401.0	1.975547700078182e+18
14402.0	1.9751471121694715e+18
14403.0	1.974357880052121e+18
14404.0	1.9721594372882422e+18
14405.0	1.9726237601628142e+18
14406.0	1.9735615427837947e+18
14407.0	1.9727719751221245e+18
14408.0	1.9727876249092093e+18
14409.0	1.9724281025921021e+18
14410.0	1.9720477547167741e+18
14411.0	1.971668896658227e+18
14412.0	1.9712811198316541e+18
14413.0	1.9708957975117824e+18
14414.0	1.970505849713459e+18
14415.0	1.9701179202142205e+18
14416.0	1.969728333126041e+18
14417.0	1.9693329360879608e+18
14418.0	1.96894314767319e+18
14419.0	1.9685609962471424e+18
14420.0	1.968169655939891e+18
14421.0	1.9677815838343165e+18
14422.0	1.967378355191808e+18
14423.0	1.9669189396529147e+18
14424.0	1.9647893321285624e+18
14425.0	1.9661340394127355e+18
14426.0	1.9658327457791992e+18
14427.0	1.9654569562734587e+18
14428.0	1.96505184019415e+18
14429.0	1.9646822213484541e+18
14430.0	1.9642808415551483e+18
14431.0	1.9636708219813883e+18
14432.0	1.9635000685101053e+18
14433.0	1.9627895483793405e+18
14434.0	1.9627218237915133e+18
14435.0	1.9623409776328701e+18
14436.0	1.9619751756038144e+18
14437.0	1.9615916803227643e+18
14438.0	1.961179257765888e+18
14439.0	1.9608113887838203e+18
14440.0	1.9603346876792832e+18
14441.0	1.9599163494760443e+18
14442.0	1.959525656769331e+18
14443.0	1.9591090130649083e+18
14444.0	1.9587515124023293e+18
14445.0	1.9583562462265341e+18
14446.0	1.9571387186282493e+18
14447.0	1.9575349578825728e+18
14448.0	1.957209922810675e+18
14449.0	1.9568285800464384e+18
14450.0	1.95643804001239e+18
14451.0	1.956053762913075e+18
14452.0	1.955669870012006e+18
14453.0	1.9552813616988155e+18
14454.0	1.9548974184660987e+18
14455.0	1.9545042662195197e+18
14456.0	1.9541209286443003e+18
14457.0	1.9537360660201464e+18
14458.0	1.953348243895091e+18
14459.0	1.9529584940679163e+18
14460.0	1.952566970889011e+18
14461.0	1.9521607659683837e+18
14462.0	1.9517710933164027e+18
14463.0	1.951401961009971e+18
14464.0	1.9510278743916541e+18
14465.0	1.9506326149267453e+18
14466.0	1.9502634708762621e+18
14467.0	1.9498655354454016e+18
14468.0	1.9494928715350016e+18
14469.0	1.9490884064116733e+18
14470.0	1.9487053339164664e+18
14471.0	1.948340155999846e+18
14472.0	1.9479590128844797e+18
14473.0	1.9475790005534717e+18
14474.0	1.9471976510783483e+18
14475.0	1.946810607416115e+18
14476.0	1.9464093534519293e+18
14477.0	1.9460441218482173e+18
14478.0	1.9456591115845624e+18
14479.0	1.9452749485703165e+18
14480.0	1.9448778738106365e+18
14481.0	1.9445094797017088e+18
14482.0	1.944121035141939e+18
14483.0	1.9437333556232187e+18
14484.0	1.943340330883481e+18
14485.0	1.942928836106649e+18
14486.0	1.9423653900845056e+18
14487.0	1.9421959771127803e+18
14488.0	1.941809485420953e+18
14489.0	1.9413752021516283e+18
14490.0	1.940921056336281e+18
14491.0	1.9405440152502264e+18
14492.0	1.94016188563456e+18
14493.0	1.9397673324904443e+18
14494.0	1.939374171855257e+18
14495.0	1.9389993822715904e+18
14496.0	1.9385291269734397e+18
14497.0	1.938238221792051e+18
14498.0	1.9378600247558141e+18
14499.0	1.937477051246182e+18
14500.0	1.9370924000149504e+18
14501.0	1.9366860591988733e+18
14502.0	1.9361623198138368e+18
14503.0	1.9359247796011e+18
14504.0	1.9355531005132792e+18
14505.0	1.9351635721453568e+18
14506.0	1.9347615380406264e+18
14507.0	1.9342269152755707e+18
14508.0	1.9340212702281725e+18
14509.0	1.9336458598875128e+18
14510.0	1.9332613462294525e+18
14511.0	1.9328794397507581e+18
14512.0	1.9324875592171517e+18
14513.0	1.9321096037728253e+18
14514.0	1.9317041454383096e+18
14515.0	1.9313124427431933e+18
14516.0	1.929107980314215e+18
14517.0	1.9304813447610363e+18
14518.0	1.9301886326734845e+18
14519.0	1.9298150376275965e+18
14520.0	1.9294352635330555e+18
14521.0	1.929053504693862e+18
14522.0	1.9286681941180416e+18
14523.0	1.928256976165273e+18
14524.0	1.92788221174743e+18
14525.0	1.927520959699353e+18
14526.0	1.9271416604000253e+18
14527.0	1.9267319070982141e+18
14528.0	1.9262889802072061e+18
14529.0	1.9259898558676987e+18
14530.0	1.9256048741253117e+18
14531.0	1.925234507015782e+18
14532.0	1.92483202999255e+18
14533.0	1.9244725278081021e+18
14534.0	1.9240950438035453e+18
14535.0	1.9237036766527488e+18
14536.0	1.9233282310799352e+18
14537.0	1.9229410716549117e+18
14538.0	1.922570110631936e+18
14539.0	1.922189554719129e+18
14540.0	1.9218081364574203e+18
14541.0	1.9214053490556925e+18
14542.0	1.9210408741044221e+18
14543.0	1.9206378149117952e+18
14544.0	1.9202725547868155e+18
14545.0	1.919847757355417e+18
14546.0	1.9170651621294065e+18
14547.0	1.9167667994755057e+18
14548.0	1.9185753347063803e+18
14549.0	1.91814660301783e+18
14550.0	1.917850297250611e+18
14551.0	1.9174866729041917e+18
14552.0	1.9171066689617915e+18
14553.0	1.9167225093029883e+18
14554.0	1.9163473556537341e+18
14555.0	1.9159661169082368e+18
14556.0	1.9155837758996477e+18
14557.0	1.9151986196742141e+18
14558.0	1.91478298092503e+18
14559.0	1.9130623163629555e+18
14560.0	1.914017466757939e+18
14561.0	1.9136704518553597e+18
14562.0	1.9132753719066621e+18
14563.0	1.912915399960166e+18
14564.0	1.912531374519091e+18
14565.0	1.9121612540346368e+18
14566.0	1.9117826124021755e+18
14567.0	1.91140128138199e+18
14568.0	1.9110131287457787e+18
14569.0	1.9106265548455933e+18
14570.0	1.909880304277913e+18
14571.0	1.9098693202345984e+18
14572.0	1.9094695359545344e+18
14573.0	1.909074947578265e+18
14574.0	1.9087226897956861e+18
14575.0	1.9083530222960637e+18
14576.0	1.9079688710258688e+18
14577.0	1.907598988777881e+18
14578.0	1.9072250883866621e+18
14579.0	1.906848669735321e+18
14580.0	1.9064696439046141e+18
14581.0	1.906086516044595e+18
14582.0	1.9057047588831227e+18
14583.0	1.9053304642273277e+18
14584.0	1.9049382229835779e+18
14585.0	1.9045703221247997e+18
14586.0	1.9041920093257725e+18
14587.0	1.9038149850169341e+18
14588.0	1.9034364591472637e+18
14589.0	1.9030593777958907e+18
14590.0	1.9026822175916032e+18
14591.0	1.9023033444335613e+18
14592.0	1.9019130141147133e+18
14593.0	1.9014626263957504e+18
14594.0	1.9011671074799613e+18
14595.0	1.9007864089608187e+18
14596.0	1.9002801329799163e+18
14597.0	1.8998773791326205e+18
14598.0	1.8996435299074045e+18
14599.0	1.8992883377897472e+18
14600.0	1.8989122395832317e+18
14601.0	1.8985358897184765e+18
14602.0	1.8981580986908672e+18
14603.0	1.8977801029812221e+18
14604.0	1.8973723495235581e+18
14605.0	1.8970140116779005e+18
14606.0	1.8965886505320443e+18
14607.0	1.8962711853400056e+18
14608.0	1.8958985029746683e+18
14609.0	1.895521517253427e+18
14610.0	1.8951170672295933e+18
14611.0	1.8946382605844475e+18
14612.0	1.8942671754100733e+18
14613.0	1.8938926978826237e+18
14614.0	1.8935146904289277e+18
14615.0	1.8931402548445181e+18
14616.0	1.8927641214058493e+18
14617.0	1.8923852197265405e+18
14618.0	1.8919923761807352e+18
14619.0	1.891448076317491e+18
14620.0	1.890936510480384e+18
14621.0	1.890866673641062e+18
14622.0	1.890501146758348e+18
14623.0	1.8901289777758205e+18
14624.0	1.8897145486639104e+18
14625.0	1.8893733571330043e+18
14626.0	1.8890045318496253e+18
14627.0	1.8886276585357307e+18
14628.0	1.888253786665779e+18
14629.0	1.8878775492083707e+18
14630.0	1.8875000668815355e+18
14631.0	1.8871228144025597e+18
14632.0	1.8866070626500605e+18
14633.0	1.8863326326947835e+18
14634.0	1.8859926793224187e+18
14635.0	1.88560274662359e+18
14636.0	1.8851883141562365e+18
14637.0	1.8848673744027645e+18
14638.0	1.88448193464238e+18
14639.0	1.8840971408048125e+18
14640.0	1.8837108403732472e+18
14641.0	1.8827902543986683e+18
14642.0	1.8829566759927803e+18
14643.0	1.882604812474777e+18
14644.0	1.882219869319987e+18
14645.0	1.8818413300285435e+18
14646.0	1.8814676091535355e+18
14647.0	1.8810867646726144e+18
14648.0	1.880719633888051e+18
