# Flux units: erg / (cm m2 s)
# Wavelength units: Angstrom
wave	flux
14000.0	1.9130516393426941e+18
14001.0	1.9126015200591872e+18
14002.0	1.9123293114073083e+18
14003.0	1.9119573705949184e+18
14004.0	1.91158412115968e+18
14005.0	1.9112108281036797e+18
14006.0	1.9108301765607421e+18
14007.0	1.9104556738674683e+18
14008.0	1.9099939279732733e+18
14009.0	1.909716887483187e+18
14010.0	1.9093320466694141e+18
14011.0	1.90835739108311e+18
14012.0	1.9085991625097216e+18
14013.0	1.908227389469491e+18
14014.0	1.907742994333696e+18
14015.0	1.907207695446835e+18
14016.0	1.9068377662226432e+18
14017.0	1.9064656425385981e+18
14018.0	1.906093409802649e+18
14019.0	1.905721527710515e+18
14020.0	1.9053488604446723e+18
14021.0	1.9049762988752893e+18
14022.0	1.904602510891417e+18
14023.0	1.9042184753840125e+18
14024.0	1.9038456554455037e+18
14025.0	1.9034903643422715e+18
14026.0	1.9031177356640253e+18
14027.0	1.9027483550547965e+18
14028.0	1.902373884238233e+18
14029.0	1.9020051646513147e+18
14030.0	1.9007864072830979e+18
14031.0	1.9012300119736317e+18
14032.0	1.9008903589134333e+18
14033.0	1.9004756898873341e+18
14034.0	1.9001493982019581e+18
14035.0	1.8997806400274427e+18
14036.0	1.899410306472345e+18
14037.0	1.8990399259410427e+18
14038.0	1.8986695806418941e+18
14039.0	1.8982951769341947e+18
14040.0	1.8979220969488381e+18
14041.0	1.8975559140769787e+18
14042.0	1.8971774569938936e+18
14043.0	1.896779479619993e+18
14044.0	1.8964373250768893e+18
14045.0	1.8960754304614397e+18
14046.0	1.895705210991411e+18
14047.0	1.8953311612829693e+18
14048.0	1.894968355664691e+18
14049.0	1.8946010520748027e+18
14050.0	1.8942317570293755e+18
14051.0	1.8938538082959355e+18
14052.0	1.8934894474297341e+18
14053.0	1.8931239507460093e+18
14054.0	1.8927552328368125e+18
14055.0	1.8923863186341888e+18
14056.0	1.8920174463746043e+18
14057.0	1.8916486798114813e+18
14058.0	1.891280005523046e+18
14059.0	1.8909114235092987e+18
14060.0	1.8905429136375803e+18
14061.0	1.8901678203863037e+18
14062.0	1.8898061103202304e+18
14063.0	1.889422306338406e+18
14064.0	1.8889194042556416e+18
14065.0	1.8886931467206653e+18
14066.0	1.8883336546025464e+18
14067.0	1.8879579573714941e+18
14068.0	1.8875979552260093e+18
14069.0	1.887227804542566e+18
14070.0	1.886861982380851e+18
14071.0	1.8864921269764093e+18
14072.0	1.8861274540539904e+18
14073.0	1.8857600514785277e+18
14074.0	1.8853927814430717e+18
14075.0	1.885007972506009e+18
14076.0	1.8846489266618363e+18
14077.0	1.8841017327288317e+18
14078.0	1.8839099305623547e+18
14079.0	1.883547366535987e+18
14080.0	1.8831906711797755e+18
14081.0	1.882823974925107e+18
14082.0	1.8824539634925565e+18
14083.0	1.8820892637265915e+18
14084.0	1.881723715033497e+18
14085.0	1.8810428838641661e+18
14086.0	1.8809751424991227e+18
14087.0	1.8806252335267837e+18
14088.0	1.8802463637241856e+18
14089.0	1.8798860260343805e+18
14090.0	1.879524173361971e+18
14091.0	1.8791613694214141e+18
14092.0	1.8787956613447675e+18
14093.0	1.8784299448795133e+18
14094.0	1.8780642552578043e+18
14095.0	1.8776983357882363e+18
14096.0	1.8772930167046141e+18
14097.0	1.876947900982886e+18
14098.0	1.8765847413653504e+18
14099.0	1.8762370872508413e+18
14100.0	1.8758602240032765e+18
14101.0	1.8755072884211712e+18
14102.0	1.875142103793664e+18
14103.0	1.8747626753097725e+18
14104.0	1.8744098806562808e+18
14105.0	1.874047653851955e+18
14106.0	1.8736832460095483e+18
14107.0	1.873317730870886e+18
14108.0	1.8729429161213947e+18
14109.0	1.8725849020760061e+18
14110.0	1.8722208532660221e+18
14111.0	1.8718507579473912e+18
14112.0	1.8714893750370304e+18
14113.0	1.8711329414053883e+18
14114.0	1.8707559573618683e+18
14115.0	1.87040305030103e+18
14116.0	1.8700082354323453e+18
14117.0	1.8682129357471744e+18
14118.0	1.8693113132351483e+18
14119.0	1.8689218553315325e+18
14120.0	1.8685663058591741e+18
14121.0	1.86820829684695e+18
14122.0	1.8678327573217277e+18
14123.0	1.8674768639164416e+18
14124.0	1.8671103639551997e+18
14125.0	1.866309766951731e+18
14126.0	1.866403224433459e+18
14127.0	1.866045081203507e+18
14128.0	1.8656811766775805e+18
14129.0	1.865308004417536e+18
14130.0	1.8649365836988408e+18
14131.0	1.8645947445673984e+18
14132.0	1.864226093767065e+18
14133.0	1.863331077947391e+18
14134.0	1.8635064015323133e+18
14135.0	1.8631285484290045e+18
14136.0	1.8627517741006845e+18
14137.0	1.8624175887351803e+18
14138.0	1.8620422069157883e+18
14139.0	1.8616967002849277e+18
14140.0	1.8613285175689213e+18
14141.0	1.8609629101555707e+18
14142.0	1.8604986745225216e+18
14143.0	1.8602448235003904e+18
14144.0	1.859889210274611e+18
14145.0	1.8595266814803965e+18
14146.0	1.859163092366131e+18
14147.0	1.858803640513331e+18
14148.0	1.858440494317568e+18
14149.0	1.858079967045222e+18
14150.0	1.8577227163631608e+18
14151.0	1.8573539363782653e+18
14152.0	1.8570010846822392e+18
14153.0	1.856640235287347e+18
14154.0	1.8562546831196155e+18
14155.0	1.8558488724635643e+18
14156.0	1.8555482213974013e+18
14157.0	1.8551982620934141e+18
14158.0	1.8548338492178432e+18
14159.0	1.8544777293201403e+18
14160.0	1.854110841805209e+18
14161.0	1.8536982414098427e+18
14162.0	1.8532917714092024e+18
14163.0	1.8530350800044027e+18
14164.0	1.8526231221764093e+18
14165.0	1.8522438027444221e+18
14166.0	1.8519561355657213e+18
14167.0	1.8515845202313213e+18
14168.0	1.8512354215985147e+18
14169.0	1.8508799644008443e+18
14170.0	1.8505162226139136e+18
14171.0	1.850158545790566e+18
14172.0	1.8498022178553853e+18
14173.0	1.8493973668560893e+18
14174.0	1.8490790191824893e+18
14175.0	1.8487252950712317e+18
14176.0	1.8483665092739072e+18
14177.0	1.84800777380823e+18
14178.0	1.8476480400982013e+18
14179.0	1.847281462961766e+18
14180.0	1.8469320438841336e+18
14181.0	1.8465736171192315e+18
14182.0	1.8462144504791037e+18
14183.0	1.845856939750195e+18
14184.0	1.845493545251635e+18
14185.0	1.8451398479839232e+18
14186.0	1.8445020285632507e+18
14187.0	1.8443986742018045e+18
14188.0	1.8440625946886144e+18
14189.0	1.843705961408102e+18
14190.0	1.8433489288298493e+18
14191.0	1.8429903695249403e+18
14192.0	1.8426274951200765e+18
14193.0	1.8422338429124605e+18
14194.0	1.84191806383063e+18
14195.0	1.8415640427626493e+18
14196.0	1.841206582365388e+18
14197.0	1.8408494508015613e+18
14198.0	1.8404874504896507e+18
14199.0	1.8401330703892477e+18
14200.0	1.8395741726703616e+18
14201.0	1.839340702610227e+18
14202.0	1.8389921257488381e+18
14203.0	1.8386253858734075e+18
14204.0	1.8382754198585341e+18
14205.0	1.83791875302359e+18
14206.0	1.8374394346733565e+18
14207.0	1.8372078537277437e+18
14208.0	1.8368518294601723e+18
14209.0	1.8363621562122235e+18
14210.0	1.8360457010085885e+18
14211.0	1.835777851077427e+18
14212.0	1.8354258332090368e+18
14213.0	1.8350691395305464e+18
14214.0	1.8347137813184507e+18
14215.0	1.8343466740219904e+18
14216.0	1.8340031169036285e+18
14217.0	1.833647304028979e+18
14218.0	1.8332415000838136e+18
14219.0	1.832863353379225e+18
14220.0	1.8325077082767355e+18
14221.0	1.8321493653979128e+18
14222.0	1.8317756747218941e+18
14223.0	1.831440215965696e+18
14224.0	1.8310847705120763e+18
14225.0	1.8302297297649661e+18
14226.0	1.830371309335347e+18
14227.0	1.8300186539327485e+18
14228.0	1.8284186829848579e+18
14229.0	1.829067358942002e+18
14230.0	1.8289536748486653e+18
14231.0	1.828586138055475e+18
14232.0	1.8282440707538941e+18
14233.0	1.8278850332983293e+18
14234.0	1.8275347082510333e+18
14235.0	1.8271775448104955e+18
14236.0	1.8268253809803261e+18
14237.0	1.8264696167596027e+18
14238.0	1.8260678762561539e+18
14239.0	1.8256834599059453e+18
14240.0	1.823753393877811e+18
14241.0	1.8249744094593021e+18
14242.0	1.8246240223363062e+18
14243.0	1.8241171826409472e+18
14244.0	1.823918129361715e+18
14245.0	1.823549096040857e+18
14246.0	1.823191155815219e+18
14247.0	1.8228514591342587e+18
14248.0	1.8224861067345917e+18
14249.0	1.8221463999873021e+18
14250.0	1.8217924292509693e+18
14251.0	1.8214412552765437e+18
14252.0	1.8210875311652861e+18
14253.0	1.8207331661643776e+18
14254.0	1.8203779186819072e+18
14255.0	1.8199930426359803e+18
14256.0	1.8191483030994947e+18
14257.0	1.8192912852451325e+18
14258.0	1.8189668994514941e+18
14259.0	1.8185946818150397e+18
14260.0	1.8182416053043192e+18
14261.0	1.8178125716258813e+18
14262.0	1.8171740760834045e+18
14263.0	1.8161468977446912e+18
14264.0	1.8163134032248824e+18
14265.0	1.8161111958290427e+18
14266.0	1.8157623907975165e+18
14267.0	1.815411119515238e+18
14268.0	1.815058470823526e+18
14269.0	1.8146966718382075e+18
14270.0	1.8143531080089597e+18
14271.0	1.8139993922863107e+18
14272.0	1.8136474096500728e+18
14273.0	1.813291306529587e+18
14274.0	1.8117770319233024e+18
14275.0	1.8124796113977341e+18
14276.0	1.812221599626035e+18
14277.0	1.8118716101230587e+18
14278.0	1.811534438413107e+18
14279.0	1.8111815850393597e+18
14280.0	1.8108236481691645e+18
14281.0	1.810479092806451e+18
14282.0	1.810127652074291e+18
14283.0	1.809775973105664e+18
14284.0	1.8094243092365307e+18
14285.0	1.8090163997507581e+18
14286.0	1.8083450208649213e+18
14287.0	1.8079687817297915e+18
14288.0	1.8076164987813885e+18
14289.0	1.8062539908710377e+18
14290.0	1.806912598940057e+18
14291.0	1.806562552394547e+18
14292.0	1.806212495782707e+18
14293.0	1.805859030040576e+18
14294.0	1.805371963971993e+18
14295.0	1.8051454950440952e+18
14296.0	1.8039900397895685e+18
14297.0	1.8044548592697341e+18
14298.0	1.8038479652913147e+18
14299.0	1.803741446746931e+18
14300.0	1.8033980540452867e+18
14301.0	1.8030506398449661e+18
14302.0	1.8027020713721853e+18
14303.0	1.802318695209369e+18
14304.0	1.801985476211507e+18
14305.0	1.80165048050647e+18
14306.0	1.801278819873587e+18
14307.0	1.8009383648624637e+18
14308.0	1.8005969988485117e+18
14309.0	1.800239585427456e+18
14310.0	1.7997927695777787e+18
14311.0	1.7993914837368832e+18
14312.0	1.7991369867919352e+18
14313.0	1.798742787647078e+18
14314.0	1.7984303287762944e+18
14315.0	1.798080671462195e+18
14316.0	1.7976802613919741e+18
14317.0	1.7973616939368448e+18
14318.0	1.7970345348694013e+18
14319.0	1.7966861056475133e+18
14320.0	1.7963363174711293e+18
14321.0	1.7959848364736507e+18
14322.0	1.7955981770096637e+18
14323.0	1.7952701623042043e+18
14324.0	1.7949403373371387e+18
14325.0	1.794581618648678e+18
14326.0	1.7942423195877376e+18
14327.0	1.7938867650822141e+18
14328.0	1.79353782583296e+18
14329.0	1.7931956461240315e+18
14330.0	1.7928468662583293e+18
14331.0	1.7924978347343872e+18
14332.0	1.7921494273228797e+18
14333.0	1.791800868916428e+18
14334.0	1.7914523306426363e+18
14335.0	1.7910906205765627e+18
14336.0	1.7907004563521533e+18
14337.0	1.7904040901869563e+18
14338.0	1.7900555888230395e+18
14339.0	1.7896990914379776e+18
14340.0	1.7893618878513147e+18
14341.0	1.7890106132135939e+18
14342.0	1.788663955665715e+18
14343.0	1.7883140534042621e+18
14344.0	1.7879648088096768e+18
14345.0	1.7876222935564288e+18
14346.0	1.7872108172345341e+18
14347.0	1.7868308569128955e+18
14348.0	1.7865087528206339e+18
14349.0	1.7861625163808763e+18
14350.0	1.7857740483330048e+18
14351.0	1.785418079430246e+18
14352.0	1.78511053628375e+18
14353.0	1.7847703497080832e+18
14354.0	1.784418618730086e+18
14355.0	1.7840617438576637e+18
14356.0	1.7837182840471544e+18
14357.0	1.7833827934142456e+18
14358.0	1.7830354379341816e+18
14359.0	1.7826732715278333e+18
14360.0	1.7823371500716027e+18
14361.0	1.7819925661876221e+18
14362.0	1.7816471132438525e+18
14363.0	1.7812997141430272e+18
14364.0	1.7808221792108541e+18
14365.0	1.7805798625247232e+18
14366.0	1.7802361326010368e+18
14367.0	1.7799131493826552e+18
14368.0	1.779565998584627e+18
14369.0	1.7792199567605755e+18
14370.0	1.778873525705113e+18
14371.0	1.7785272255119355e+18
14372.0	1.7781754106478587e+18
14373.0	1.7778340580556797e+18
14374.0	1.7774875733131261e+18
14375.0	1.7771399342981115e+18
14376.0	1.77679559032832e+18
14377.0	1.776448791851827e+18
14378.0	1.7761005740228605e+18
14379.0	1.7757572517855227e+18
14380.0	1.7754101345419261e+18
14381.0	1.775053497905971e+18
14382.0	1.7747052532334587e+18
14383.0	1.774301935671705e+18
14384.0	1.77394253079511e+18
14385.0	1.7736153817939965e+18
14386.0	1.7732544535461888e+18
14387.0	1.7729232813686781e+18
14388.0	1.7725755349794816e+18
14389.0	1.772231570174771e+18
14390.0	1.7718840335007741e+18
14391.0	1.7715404512165885e+18
14392.0	1.7711933138403325e+18
14393.0	1.7708495604285437e+18
14394.0	1.7704659644841981e+18
14395.0	1.7701457109188603e+18
14396.0	1.769813067379507e+18
14397.0	1.7694679466246141e+18
14398.0	1.769121911511449e+18
14399.0	1.7687771011350525e+18
14400.0	1.7684122084311037e+18
14401.0	1.7680799121801213e+18
14402.0	1.7677388783550461e+18
14403.0	1.7661120957382636e+18
14404.0	1.7621222590250985e+18
14405.0	1.7650236201631706e+18
14406.0	1.7663581923311613e+18
14407.0	1.76420119600169e+18
14408.0	1.7656510075109368e+18
14409.0	1.7653072943644664e+18
14410.0	1.7649728841842685e+18
14411.0	1.7646377358065661e+18
14412.0	1.7642907276148733e+18
14413.0	1.7639501736181757e+18
14414.0	1.763603084895846e+18
14415.0	1.763259876743577e+18
14416.0	1.7629139104169981e+18
14417.0	1.7625608943042557e+18
14418.0	1.7622045311369216e+18
14419.0	1.7618817693777915e+18
14420.0	1.7615337931407352e+18
14421.0	1.761194096459776e+18
14422.0	1.7608448636092408e+18
14423.0	1.7603414800203776e+18
14424.0	1.7523426688237527e+18
14425.0	1.7593400681299963e+18
14426.0	1.7590121792536576e+18
14427.0	1.7586690935750656e+18
14428.0	1.7583043149561853e+18
14429.0	1.757978029981696e+18
14430.0	1.7576390899531776e+18
14431.0	1.7570690840395776e+18
14432.0	1.7569448856649725e+18
14433.0	1.755237085872127e+18
14434.0	1.756246371309977e+18
14435.0	1.755883574080307e+18
14436.0	1.7555781398298621e+18
14437.0	1.7552352655441917e+18
14438.0	1.7548371069763581e+18
14439.0	1.754537294770995e+18
14440.0	1.7542047250513915e+18
14441.0	1.7538534504136696e+18
14442.0	1.7534460928983035e+18
14443.0	1.7526681132597248e+18
14444.0	1.7523757350387707e+18
14445.0	1.7520365701955581e+18
14446.0	1.7497068809486344e+18
14447.0	1.7513359586885627e+18
14448.0	1.7510087492894715e+18
14449.0	1.7506661753159677e+18
14450.0	1.750317573288755e+18
14451.0	1.7499787003691005e+18
14452.0	1.7496353043120125e+18
14453.0	1.7492712974450685e+18
14454.0	1.7489510153584637e+18
14455.0	1.7485991451295741e+18
14456.0	1.7482581280817147e+18
14457.0	1.7479145558638584e+18
14458.0	1.7475763724877821e+18
14459.0	1.747230481658675e+18
14460.0	1.7468841764323325e+18
14461.0	1.7464995855990781e+18
14462.0	1.7460589336985597e+18
14463.0	1.745843873277542e+18
14464.0	1.7455184808509437e+18
14465.0	1.7451554235744253e+18
14466.0	1.7448361162440704e+18
14467.0	1.7444629624389627e+18
14468.0	1.744149998573977e+18
14469.0	1.743776883356467e+18
14470.0	1.7434400958447613e+18
14471.0	1.7431185403674621e+18
14472.0	1.7427814760316925e+18
14473.0	1.742386635997184e+18
14474.0	1.7420410203144187e+18
14475.0	1.7416957468868603e+18
14476.0	1.7412700183199744e+18
14477.0	1.7410144878985213e+18
14478.0	1.7406704056532984e+18
14479.0	1.74032958825431e+18
14480.0	1.7399706648838141e+18
14481.0	1.7396476179120125e+18
14482.0	1.7393016163532797e+18
14483.0	1.73895230464983e+18
14484.0	1.738610155139891e+18
14485.0	1.7382387713310715e+18
14486.0	1.737619359871795e+18
14487.0	1.7375939172237307e+18
14488.0	1.7372366749302781e+18
14489.0	1.736890346215833e+18
14490.0	1.736562578135449e+18
14491.0	1.7362268358443003e+18
14492.0	1.7358866291359744e+18
14493.0	1.735540224924057e+18
14494.0	1.7351807395168253e+18
14495.0	1.7348610345664507e+18
14496.0	1.7343763793838077e+18
14497.0	1.7341770375364605e+18
14498.0	1.7338367469420541e+18
14499.0	1.7334954966908925e+18
14500.0	1.7331535669624832e+18
14501.0	1.7327677027385344e+18
14502.0	1.732211321602048e+18
14503.0	1.7321062140215293e+18
14504.0	1.731781413830656e+18
14505.0	1.7314076476571643e+18
14506.0	1.7310250684121085e+18
14507.0	1.7305018038222843e+18
14508.0	1.7304223502827515e+18
14509.0	1.7300814288650237e+18
14510.0	1.72973678961623e+18
14511.0	1.7293985743634424e+18
14512.0	1.7290407331233787e+18
14513.0	1.7287160755388413e+18
14514.0	1.7283383180656637e+18
14515.0	1.7280317899407357e+18
14516.0	1.725116344329832e+18
14517.0	1.7273467980218365e+18
14518.0	1.7270100155432957e+18
14519.0	1.7266692853858304e+18
14520.0	1.726328184451891e+18
14521.0	1.72598620103639e+18
14522.0	1.7256437914796027e+18
14523.0	1.7251991885447165e+18
14524.0	1.7248711688060925e+18
14525.0	1.7246159152087037e+18
14526.0	1.7242782401822715e+18
14527.0	1.7239146594566141e+18
14528.0	1.7234568864071675e+18
14529.0	1.7232009801760768e+18
14530.0	1.722836107604787e+18
14531.0	1.7225113426460672e+18
14532.0	1.7220503483711485e+18
14533.0	1.7218301256007675e+18
14534.0	1.7214907090993152e+18
14535.0	1.7211378238488576e+18
14536.0	1.7208038129663997e+18
14537.0	1.72045349462999e+18
14538.0	1.7201253809389563e+18
14539.0	1.7197841323655168e+18
14540.0	1.719442712664473e+18
14541.0	1.7190772461797376e+18
14542.0	1.7187573650685952e+18
14543.0	1.7183511769251837e+18
14544.0	1.7180753544609787e+18
14545.0	1.7177259957813248e+18
14546.0	1.7080919479287757e+18
14547.0	1.7084490425827261e+18
14548.0	1.716461049059737e+18
14549.0	1.7160084031275005e+18
14550.0	1.71578741531607e+18
14551.0	1.7154562028732413e+18
14552.0	1.7151137329184765e+18
14553.0	1.7147656425963515e+18
14554.0	1.7144331131420672e+18
14555.0	1.7140915407683581e+18
14556.0	1.713748387980902e+18
14557.0	1.7134091325407227e+18
14558.0	1.7130659126444032e+18
14559.0	1.7108278001532897e+18
14560.0	1.7123768321179648e+18
14561.0	1.712036368718233e+18
14562.0	1.7116742023118843e+18
14563.0	1.7113595154268157e+18
14564.0	1.7110002615451648e+18
14565.0	1.7106790936215547e+18
14566.0	1.710337722574438e+18
14567.0	1.7099946838720507e+18
14568.0	1.7096334049804285e+18
14569.0	1.709311515636531e+18
14570.0	1.7084358741458941e+18
14571.0	1.7086255640608763e+18
14572.0	1.7080598212378624e+18
14573.0	1.7073067255660541e+18
14574.0	1.7069725318119421e+18
14575.0	1.7066693306089467e+18
14576.0	1.706324708137369e+18
14577.0	1.7059852329156605e+18
14578.0	1.7056473062309888e+18
14579.0	1.7053086530928637e+18
14580.0	1.7049667468525563e+18
14581.0	1.7046190155628541e+18
14582.0	1.704278607527936e+18
14583.0	1.7039398403047421e+18
14584.0	1.7035798029271037e+18
14585.0	1.7032552946597888e+18
14586.0	1.702909502816256e+18
14587.0	1.702568937075507e+18
14588.0	1.7022280894775293e+18
14589.0	1.701892320342835e+18
14590.0	1.7015565461749752e+18
14591.0	1.7012180993966077e+18
14592.0	1.7008777500819456e+18
14593.0	1.700422622799462e+18
14594.0	1.7001575578861563e+18
14595.0	1.6998097846534144e+18
14596.0	1.6993557579563003e+18
14597.0	1.698998997168947e+18
14598.0	1.698792132417945e+18
14599.0	1.6984696005066747e+18
14600.0	1.698129685721907e+18
14601.0	1.6977943796383744e+18
14602.0	1.6974498477637624e+18
14603.0	1.6971200865501181e+18
14604.0	1.6967316453457915e+18
14605.0	1.6964206964244477e+18
14606.0	1.6960349060202493e+18
14607.0	1.695762356790886e+18
14608.0	1.6954327247618043e+18
14609.0	1.695088910952038e+18
14610.0	1.6947211711545341e+18
14611.0	1.6944125190340605e+18
14612.0	1.6940857810747387e+18
14613.0	1.693750040461312e+18
14614.0	1.6934089412050936e+18
14615.0	1.693073868324864e+18
14616.0	1.6927376009068541e+18
14617.0	1.692399248080896e+18
14618.0	1.6920535216685053e+18
14619.0	1.6916343110500347e+18
14620.0	1.691072265925427e+18
14621.0	1.6910462696292347e+18
14622.0	1.69070493213655e+18
14623.0	1.6903695438446587e+18
14624.0	1.6899680180895741e+18
14625.0	1.6896883234439163e+18
14626.0	1.689350431991398e+18
14627.0	1.6890068077641723e+18
14628.0	1.6886744628592637e+18
14629.0	1.6883349557608443e+18
14630.0	1.687992430441267e+18
14631.0	1.6876551094140923e+18
14632.0	1.686720610094285e+18
14633.0	1.6868944639950848e+18
14634.0	1.6866305097334781e+18
14635.0	1.686198211208806e+18
14636.0	1.6857138244616187e+18
14637.0	1.6856160518799357e+18
14638.0	1.6852685839925248e+18
14639.0	1.6849185491910653e+18
14640.0	1.684588086689792e+18
14641.0	1.6819408382984172e+18
14642.0	1.683904668473753e+18
14643.0	1.6835698237636603e+18
14644.0	1.6832160275103744e+18
14645.0	1.6828617279406077e+18
14646.0	1.6825302235742203e+18
14647.0	1.6821745969266688e+18
