# Flux units: erg / (cm m2 s)
# Wavelength units: Angstrom
wave	flux
14000.0	2.498328342718054e+18
14001.0	2.4978133056749563e+18
14002.0	2.497275038898585e+18
14003.0	2.496714270520115e+18
14004.0	2.496152965270733e+18
14005.0	2.495591493926912e+18
14006.0	2.4950269288644603e+18
14007.0	2.494463694235238e+18
14008.0	2.493858110557389e+18
14009.0	2.4933444844781563e+18
14010.0	2.4927774481317883e+18
14011.0	2.491961387568333e+18
14012.0	2.4916632128192507e+18
14013.0	2.4911038721818624e+18
14014.0	2.4905404899131387e+18
14015.0	2.489982368979353e+18
14016.0	2.489423528303001e+18
14017.0	2.4888637262921723e+18
14018.0	2.488303850461593e+18
14019.0	2.4877444041277435e+18
14020.0	2.4871845131976704e+18
14021.0	2.486624635689369e+18
14022.0	2.486062771758694e+18
14023.0	2.485492863152947e+18
14024.0	2.4849352304361467e+18
14025.0	2.48438859015127e+18
14026.0	2.4838300246212603e+18
14027.0	2.483272547932569e+18
14028.0	2.4827138582511616e+18
14029.0	2.482153071417753e+18
14030.0	2.4804808443559946e+18
14031.0	2.480988576599244e+18
14032.0	2.480451707364966e+18
14033.0	2.4798643051560955e+18
14034.0	2.479332041267609e+18
14035.0	2.478777297587405e+18
14036.0	2.4782163010387963e+18
14037.0	2.477664394385817e+18
14038.0	2.477107860576665e+18
14039.0	2.4765514039427067e+18
14040.0	2.475990917421465e+18
14041.0	2.4754369874362363e+18
14042.0	2.4748770981838843e+18
14043.0	2.4743091911000054e+18
14044.0	2.4737663542099963e+18
14045.0	2.4732134308577275e+18
14046.0	2.4726561487847424e+18
14047.0	2.4720963216080896e+18
14048.0	2.4715477083226107e+18
14049.0	2.470993753171558e+18
14050.0	2.4704389541265403e+18
14051.0	2.4698798785691643e+18
14052.0	2.469329439922585e+18
14053.0	2.468775033464422e+18
14054.0	2.4682207696125947e+18
14055.0	2.467666566158745e+18
14056.0	2.4671125002780667e+18
14057.0	2.4665585652596726e+18
14058.0	2.4660047980134395e+18
14059.0	2.4654511498854395e+18
14060.0	2.464897634297446e+18
14061.0	2.464341427644006e+18
14062.0	2.463790963831603e+18
14063.0	2.4632294102794235e+18
14064.0	2.462535986131763e+18
14065.0	2.4621284239343616e+18
14066.0	2.461579698241535e+18
14067.0	2.461008179023053e+18
14068.0	2.4604748464259067e+18
14069.0	2.459920483588505e+18
14070.0	2.4593696557105147e+18
14071.0	2.458817552764108e+18
14072.0	2.4582670839185403e+18
14073.0	2.4577154557673467e+18
14074.0	2.4571638578151414e+18
14075.0	2.456602168367513e+18
14076.0	2.456039618248704e+18
14077.0	2.455249928113357e+18
14078.0	2.4549399891804155e+18
14079.0	2.4544043899813883e+18
14080.0	2.453858096984883e+18
14081.0	2.453307873086669e+18
14082.0	2.4527544464179195e+18
14083.0	2.4522064538894336e+18
14084.0	2.4516553256992763e+18
14085.0	2.450844709342413e+18
14086.0	2.4505332386496507e+18
14087.0	2.4500074625105915e+18
14088.0	2.449449442240102e+18
14089.0	2.448891999105843e+18
14090.0	2.4483573931180027e+18
14091.0	2.447811293059481e+18
14092.0	2.4472627905036283e+18
14093.0	2.446713984280166e+18
14094.0	2.446164907943526e+18
14095.0	2.445614363600486e+18
14096.0	2.445022290614681e+18
14097.0	2.444489358992998e+18
14098.0	2.4439494279167995e+18
14099.0	2.4434230310207483e+18
14100.0	2.4428718877310976e+18
14101.0	2.442330013853286e+18
14102.0	2.441782673958502e+18
14103.0	2.4412298965680123e+18
14104.0	2.4406886266699776e+18
14105.0	2.4401412683202555e+18
14106.0	2.4395948092293115e+18
14107.0	2.4390470029279227e+18
14108.0	2.438494740597965e+18
14109.0	2.4379522392522747e+18
14110.0	2.4374037853503483e+18
14111.0	2.4368539238399995e+18
14112.0	2.4363114711482363e+18
14113.0	2.435760096333005e+18
14114.0	2.435215907199385e+18
14115.0	2.4346739309805563e+18
14116.0	2.434076252726886e+18
14117.0	2.431691866400358e+18
14118.0	2.433030215119667e+18
14119.0	2.432459469330841e+18
14120.0	2.43192392885207e+18
14121.0	2.431393030628966e+18
14122.0	2.4308504403640315e+18
14123.0	2.4302840885280763e+18
14124.0	2.429739057178214e+18
14125.0	2.4289981518315515e+18
14126.0	2.428675732327629e+18
14127.0	2.428143359387238e+18
14128.0	2.4275998597971963e+18
14129.0	2.4270507230625787e+18
14130.0	2.426501881606963e+18
14131.0	2.4259708541992955e+18
14132.0	2.425422979111321e+18
14133.0	2.424616251713126e+18
14134.0	2.4243388169584635e+18
14135.0	2.4237763574366203e+18
14136.0	2.4232027779760123e+18
14137.0	2.422704085296742e+18
14138.0	2.422151254219161e+18
14139.0	2.4216273504174075e+18
14140.0	2.4210773043576827e+18
14141.0	2.4205092529897467e+18
14142.0	2.4198705192108027e+18
14143.0	2.419450731456102e+18
14144.0	2.418920700615065e+18
14145.0	2.4183810430074875e+18
14146.0	2.4178396758016e+18
14147.0	2.417297567042765e+18
14148.0	2.416639318006169e+18
14149.0	2.415886856513126e+18
14150.0	2.4153549063585787e+18
14151.0	2.414799776802406e+18
14152.0	2.41427320710103e+18
14153.0	2.413732385154662e+18
14154.0	2.4131774267260923e+18
14155.0	2.4126118298648576e+18
14156.0	2.4121040087023616e+18
14157.0	2.4115705301434363e+18
14158.0	2.4110285237256187e+18
14159.0	2.410490636114329e+18
14160.0	2.4099463882604544e+18
14161.0	2.4093813534359547e+18
14162.0	2.4088170047995894e+18
14163.0	2.4083257796591616e+18
14164.0	2.4077318293028864e+18
14165.0	2.407182437554585e+18
14166.0	2.406578612128973e+18
14167.0	2.4058314891460603e+18
14168.0	2.4052957087531003e+18
14169.0	2.404761629569843e+18
14170.0	2.4042187339595776e+18
14171.0	2.403682634799513e+18
14172.0	2.4031448679841787e+18
14173.0	2.4025713271111675e+18
14174.0	2.4020626956091387e+18
14175.0	2.4015291012874235e+18
14176.0	2.4009900409487355e+18
14177.0	2.4004523143987195e+18
14178.0	2.3999132490268667e+18
14179.0	2.3993696571621376e+18
14180.0	2.3988386750529526e+18
14181.0	2.3983009350811643e+18
14182.0	2.3977628897640443e+18
14183.0	2.397225528957337e+18
14184.0	2.3966849033043963e+18
14185.0	2.3961460107378683e+18
14186.0	2.394949107371213e+18
14187.0	2.394573187003187e+18
14188.0	2.394058275789209e+18
14189.0	2.3935185225515003e+18
14190.0	2.392982173410918e+18
14191.0	2.3924434788155387e+18
14192.0	2.3919050375561206e+18
14193.0	2.3913115032748027e+18
14194.0	2.3908341914796027e+18
14195.0	2.390300964578918e+18
14196.0	2.3897647110684667e+18
14197.0	2.389228429036748e+18
14198.0	2.3886899424788475e+18
14199.0	2.3881540781998075e+18
14200.0	2.3874097855332347e+18
14201.0	2.3870685671587835e+18
14202.0	2.38654826039214e+18
14203.0	2.3860053782036475e+18
14204.0	2.3854761778348027e+18
14205.0	2.384940816872243e+18
14206.0	2.3843445277720576e+18
14207.0	2.383871519332761e+18
14208.0	2.3833371851358203e+18
14209.0	2.3824410469203963e+18
14210.0	2.3818697692938235e+18
14211.0	2.3813814063464443e+18
14212.0	2.380846142691737e+18
14213.0	2.3803084010422267e+18
14214.0	2.379775945893478e+18
14215.0	2.3792365214892027e+18
14216.0	2.3787069822205947e+18
14217.0	2.3781723175124987e+18
14218.0	2.377630957017497e+18
14219.0	2.3771032951193595e+18
14220.0	2.376569064941158e+18
14221.0	2.376029987825254e+18
14222.0	2.375468281600409e+18
14223.0	2.374965939876658e+18
14224.0	2.3744311476617216e+18
14225.0	2.373312739855565e+18
14226.0	2.373356446180966e+18
14227.0	2.372830352952525e+18
14228.0	2.371090973406003e+18
14229.0	2.3715248993206257e+18
14230.0	2.371232051337625e+18
14231.0	2.370671756076646e+18
14232.0	2.3701671930494976e+18
14233.0	2.3696318874517494e+18
14234.0	2.368834649246925e+18
14235.0	2.368211137436057e+18
14236.0	2.367678876903014e+18
14237.0	2.3671452339273723e+18
14238.0	2.3666124566560763e+18
14239.0	2.366074433149337e+18
14240.0	2.364899207623475e+18
14241.0	2.3650048369754107e+18
14242.0	2.3644774636453883e+18
14243.0	2.363872774193152e+18
14244.0	2.3634172325134326e+18
14245.0	2.362879108343398e+18
14246.0	2.362342500833689e+18
14247.0	2.3618186976952315e+18
14248.0	2.3612836085235707e+18
14249.0	2.3607570220449787e+18
14250.0	2.360225355425382e+18
14251.0	2.359695089703321e+18
14252.0	2.3591635489128443e+18
14253.0	2.358631565203865e+18
14254.0	2.3580987409563643e+18
14255.0	2.357550270277222e+18
14256.0	2.356397355093197e+18
14257.0	2.3564393803415547e+18
14258.0	2.3559744098664443e+18
14259.0	2.3554374668124155e+18
14260.0	2.3548970559078395e+18
14261.0	2.354332542854758e+18
14262.0	2.353506966254387e+18
14263.0	2.352049784514151e+18
14264.0	2.352207515510374e+18
14265.0	2.3519128119672827e+18
14266.0	2.351391354283622e+18
14267.0	2.3508620347965435e+18
14268.0	2.3503320760975355e+18
14269.0	2.349800674557951e+18
14270.0	2.3492713366159355e+18
14271.0	2.348739502224179e+18
14272.0	2.3482075990458363e+18
14273.0	2.347662227118489e+18
14274.0	2.3456882601492475e+18
14275.0	2.346449940722483e+18
14276.0	2.346074387775487e+18
14277.0	2.3455353911902203e+18
14278.0	2.3450161514545147e+18
14279.0	2.344487092014285e+18
14280.0	2.343955536124313e+18
14281.0	2.3434302901452795e+18
14282.0	2.342901705500262e+18
14283.0	2.3423730185142267e+18
14284.0	2.3418443566940155e+18
14285.0	2.3413155774332923e+18
14286.0	2.340786776362188e+18
14287.0	2.3402589232037883e+18
14288.0	2.339729695991398e+18
14289.0	2.33878616885166e+18
14290.0	2.338672432748953e+18
14291.0	2.3381461230944256e+18
14292.0	2.337618816873267e+18
14293.0	2.3370134781427707e+18
14294.0	2.336131629082214e+18
14295.0	2.3356618469015547e+18
14296.0	2.334804856641945e+18
14297.0	2.3346091822940155e+18
14298.0	2.3338416330506235e+18
14299.0	2.3335434130030587e+18
14300.0	2.3330244433805307e+18
14301.0	2.3324978250252283e+18
14302.0	2.331971540536525e+18
14303.0	2.331424505987072e+18
14304.0	2.330909376669286e+18
14305.0	2.3303844779786235e+18
14306.0	2.329833218926182e+18
14307.0	2.3293129289367547e+18
14308.0	2.3287936657129467e+18
14309.0	2.3282573232832507e+18
14310.0	2.327650061883801e+18
14311.0	2.327161412046029e+18
14312.0	2.3266382112096256e+18
14313.0	2.326129073035673e+18
14314.0	2.3256268286197755e+18
14315.0	2.3251119610265595e+18
14316.0	2.324563082661069e+18
14317.0	2.324035138905702e+18
14318.0	2.323539845290393e+18
14319.0	2.323017045429453e+18
14320.0	2.322492150094233e+18
14321.0	2.3219674359529467e+18
14322.0	2.3214224197025787e+18
14323.0	2.3209070404042747e+18
14324.0	2.3203925519761403e+18
14325.0	2.3198615279239163e+18
14326.0	2.3193427613057014e+18
14327.0	2.3188140525092854e+18
14328.0	2.318290029589298e+18
14329.0	2.317768347090944e+18
14330.0	2.3169987225059323e+18
14331.0	2.3163486758502395e+18
14332.0	2.3158271779012603e+18
14333.0	2.3153017926713344e+18
14334.0	2.31477638898647e+18
14335.0	2.3142450142904315e+18
14336.0	2.313657318480281e+18
14337.0	2.313200439656448e+18
14338.0	2.312674900076134e+18
14339.0	2.3121440588955643e+18
14340.0	2.3116249886097403e+18
14341.0	2.311097640445542e+18
14342.0	2.310576645813043e+18
14343.0	2.3100498177425403e+18
14344.0	2.309525643827609e+18
14345.0	2.3090027131043835e+18
14346.0	2.3084755796885504e+18
14347.0	2.3079368263729147e+18
14348.0	2.3074267637743616e+18
14349.0	2.306905509095014e+18
14350.0	2.306328923157299e+18
14351.0	2.3058011555627005e+18
14352.0	2.3053318163005437e+18
14353.0	2.3048118266232827e+18
14354.0	2.3042813226647547e+18
14355.0	2.303745218471526e+18
14356.0	2.3032257052672e+18
14357.0	2.3027180267110395e+18
14358.0	2.30219503894528e+18
14359.0	2.3016624713891837e+18
14360.0	2.3011443171393533e+18
14361.0	2.3006234097483768e+18
14362.0	2.300102644963737e+18
14363.0	2.2995787210293243e+18
14364.0	2.2988836292263933e+18
14365.0	2.298489044205567e+18
14366.0	2.2979841909325821e+18
14367.0	2.297489692557312e+18
14368.0	2.2969672148189184e+18
14369.0	2.2964451900653565e+18
14370.0	2.295923130079641e+18
14371.0	2.295065358001766e+18
14372.0	2.2945141962571773e+18
14373.0	2.293993760305971e+18
14374.0	2.2934708933361656e+18
14375.0	2.2929479340916733e+18
14376.0	2.2924250838990843e+18
14377.0	2.2919020005031933e+18
14378.0	2.291378261118156e+18
14379.0	2.2908568621547517e+18
14380.0	2.2903336596406264e+18
14381.0	2.289805130360422e+18
14382.0	2.2892883149324283e+18
14383.0	2.2887626646224893e+18
14384.0	2.2882331958181883e+18
14385.0	2.2876690434752512e+18
14386.0	2.287073086563942e+18
14387.0	2.2865595779252221e+18
14388.0	2.2860368283959293e+18
14389.0	2.285515635792281e+18
14390.0	2.284993154698444e+18
14391.0	2.284472321127219e+18
14392.0	2.28394980647895e+18
14393.0	2.2834291339689976e+18
14394.0	2.2828862702354427e+18
14395.0	2.2823725485260795e+18
14396.0	2.2818639338012667e+18
14397.0	2.2813436102574075e+18
14398.0	2.2808215553048573e+18
14399.0	2.280300387867033e+18
14400.0	2.2797697278803965e+18
14401.0	2.2792541355114493e+18
14402.0	2.2787323758379003e+18
14403.0	2.2771454089101297e+18
14404.0	2.2746125509328883e+18
14405.0	2.276484779186584e+18
14406.0	2.2766468756144128e+18
14407.0	2.274676936854733e+18
14408.0	2.2755759892725755e+18
14409.0	2.2750834622201848e+18
14410.0	2.2745599191285757e+18
14411.0	2.274051764099481e+18
14412.0	2.273530923817369e+18
14413.0	2.273012269606502e+18
14414.0	2.2724906693165056e+18
14415.0	2.271970879288115e+18
14416.0	2.271444626676121e+18
14417.0	2.270907254125363e+18
14418.0	2.2703878281625595e+18
14419.0	2.269888346954137e+18
14420.0	2.2689976311349243e+18
14421.0	2.268326765631897e+18
14422.0	2.267800741190041e+18
14423.0	2.2672416253673472e+18
14424.0	2.2607915089133537e+18
14425.0	2.266205999700377e+18
14426.0	2.2657205408890877e+18
14427.0	2.2652049720082427e+18
14428.0	2.2646736426106877e+18
14429.0	2.2641638165708795e+18
14430.0	2.2636439728553981e+18
14431.0	2.262846429305241e+18
14432.0	2.2625953616232443e+18
14433.0	2.2609954762391542e+18
14434.0	2.2615515956510715e+18
14435.0	2.2610099616874493e+18
14436.0	2.2605231455993856e+18
14437.0	2.260005627206041e+18
14438.0	2.2594332791930875e+18
14439.0	2.2589536202653693e+18
14440.0	2.2584471177920504e+18
14441.0	2.2579259050557432e+18
14442.0	2.2574047057412093e+18
14443.0	2.2568667308883968e+18
14444.0	2.2563668000505848e+18
14445.0	2.255846859027251e+18
14446.0	2.2539676044754947e+18
14447.0	2.254792875730534e+18
14448.0	2.2542911178539008e+18
14449.0	2.2537725089415165e+18
14450.0	2.2532498718195704e+18
14451.0	2.252732603406745e+18
14452.0	2.2522102011658237e+18
14453.0	2.251674872079974e+18
14454.0	2.2511735856431096e+18
14455.0	2.2506515139133437e+18
14456.0	2.2501285261475837e+18
14457.0	2.2496055299932157e+18
14458.0	2.2490865989582845e+18
14459.0	2.2485640893431803e+18
14460.0	2.2480388165206013e+18
14461.0	2.247492634253721e+18
14462.0	2.2469512569815037e+18
14463.0	2.2464684238045181e+18
14464.0	2.2459679779061752e+18
14465.0	2.2454473473392632e+18
14466.0	2.244941378381414e+18
14467.0	2.2444023180427261e+18
14468.0	2.2439036975054843e+18
14469.0	2.2433637244862461e+18
14470.0	2.2428552674672632e+18
14471.0	2.2423497900818427e+18
14472.0	2.2418335316574203e+18
14473.0	2.2413200767057915e+18
14474.0	2.2408026505871357e+18
14475.0	2.240282006598451e+18
14476.0	2.2394405805621248e+18
14477.0	2.2389040569384957e+18
14478.0	2.2383862784983037e+18
14479.0	2.2378660019306493e+18
14480.0	2.2373381722603517e+18
14481.0	2.2368292052140024e+18
14482.0	2.2363079975108605e+18
14483.0	2.2357855751372792e+18
14484.0	2.2352652885032955e+18
14485.0	2.2347320515362813e+18
14486.0	2.2340824813535227e+18
14487.0	2.2337108123320315e+18
14488.0	2.2331521545273336e+18
14489.0	2.2326487189291005e+18
14490.0	2.2321512543420413e+18
14491.0	2.2316383161286656e+18
14492.0	2.2311201618788347e+18
14493.0	2.230593816992153e+18
14494.0	2.230070116194713e+18
14495.0	2.2295617548058621e+18
14496.0	2.228974949865881e+18
14497.0	2.2285241393610747e+18
14498.0	2.228006016987955e+18
14499.0	2.2274871530618875e+18
14500.0	2.2269675610046461e+18
14501.0	2.226410775537254e+18
14502.0	2.2257885991927808e+18
14503.0	2.2253900815925243e+18
14504.0	2.2248877214138365e+18
14505.0	2.224333457562009e+18
14506.0	2.2237807875457021e+18
14507.0	2.2232095048859643e+18
14508.0	2.2228148410122237e+18
14509.0	2.2222964468482045e+18
14510.0	2.2217774352826365e+18
14511.0	2.2212580378411e+18
14512.0	2.220730793695641e+18
14513.0	2.220219457706393e+18
14514.0	2.219682269705011e+18
14515.0	2.2191794666078203e+18
14516.0	2.2176395413159936e+18
14517.0	2.218137628337766e+18
14518.0	2.2176234301554683e+18
14519.0	2.2171045528076283e+18
14520.0	2.2165852124086267e+18
14521.0	2.2160655012331517e+18
14522.0	2.2155406562295805e+18
14523.0	2.2149212447703037e+18
14524.0	2.2144208626253821e+18
14525.0	2.2139844989812733e+18
14526.0	2.2134690760622077e+18
14527.0	2.2129373339451387e+18
14528.0	2.2123693496860672e+18
14529.0	2.2119053573226493e+18
14530.0	2.211384178140774e+18
14531.0	2.2108708272078845e+18
14532.0	2.2102490501611517e+18
14533.0	2.2098312857387003e+18
14534.0	2.2093147739783163e+18
14535.0	2.2087890498486267e+18
14536.0	2.2082759405076477e+18
14537.0	2.207750275098214e+18
14538.0	2.2072373301739517e+18
14539.0	2.2067180501729277e+18
14540.0	2.206156028536422e+18
14541.0	2.2053382348865533e+18
14542.0	2.204829147044249e+18
14543.0	2.2042545861165053e+18
14544.0	2.2037872433430528e+18
14545.0	2.2032589506215933e+18
14546.0	2.1968486297239514e+18
14547.0	2.196862890357551e+18
14548.0	2.201693351156121e+18
14549.0	2.2011245062258683e+18
14550.0	2.2006622972805117e+18
14551.0	2.200146198239641e+18
14552.0	2.1996246818357245e+18
14553.0	2.1991016118616061e+18
14554.0	2.1985834995548157e+18
14555.0	2.1980618137010173e+18
14556.0	2.197538785669939e+18
14557.0	2.1970187104288765e+18
14558.0	2.196494055007846e+18
14559.0	2.195214178241739e+18
14560.0	2.1954407780319227e+18
14561.0	2.194927613326131e+18
14562.0	2.1943924083916795e+18
14563.0	2.1938825454419963e+18
14564.0	2.193345681240883e+18
14565.0	2.1928448679215101e+18
14566.0	2.192323381716582e+18
14567.0	2.1917969210671096e+18
14568.0	2.1912532553826301e+18
14569.0	2.1907520712867832e+18
14570.0	2.190007479985766e+18
14571.0	2.1897081710968827e+18
14572.0	2.1891601148149757e+18
14573.0	2.188632218035814e+18
14574.0	2.1880997310103547e+18
14575.0	2.1876066486321147e+18
14576.0	2.187085741241139e+18
14577.0	2.1865751484825592e+18
14578.0	2.1860565446033405e+18
14579.0	2.1855349308915704e+18
14580.0	2.18501204714455e+18
14581.0	2.1844834759213053e+18
14582.0	2.1839597080150008e+18
14583.0	2.1834414749122552e+18
14584.0	2.182903340675891e+18
14585.0	2.1823938921234427e+18
14586.0	2.1818693054889976e+18
14587.0	2.1813460794867704e+18
14588.0	2.1808237409992701e+18
14589.0	2.180309997479526e+18
14590.0	2.17979701732311e+18
14591.0	2.1792815725936632e+18
14592.0	2.1787655641497595e+18
14593.0	2.178196709153177e+18
14594.0	2.177742316712755e+18
14595.0	2.1772254828298232e+18
14596.0	2.1765737735520248e+18
14597.0	2.176034832331571e+18
14598.0	2.1756701057220605e+18
14599.0	2.175171446597222e+18
14600.0	2.1746548123631608e+18
14601.0	2.1741410889760765e+18
14602.0	2.173623659501977e+18
14603.0	2.173109895849574e+18
14604.0	2.1725706358620155e+18
14605.0	2.1720605480976384e+18
14606.0	2.1715323946270717e+18
14607.0	2.1710464811532283e+18
14608.0	2.1705333902671867e+18
14609.0	2.170010506520166e+18
14610.0	2.1694908574203901e+18
14611.0	2.168981011247923e+18
14612.0	2.1684726364372987e+18
14613.0	2.1679594650206203e+18
14614.0	2.1674432166625275e+18
14615.0	2.166927511886233e+18
14616.0	2.1664134697320445e+18
14617.0	2.1658966257827837e+18
14618.0	2.165357820457779e+18
14619.0	2.1643211814469627e+18
14620.0	2.1634458486571005e+18
14621.0	2.163325552662937e+18
14622.0	2.1628097270906875e+18
14623.0	2.1622917657788416e+18
14624.0	2.1617433974407163e+18
14625.0	2.161254547954073e+18
14626.0	2.1607339022876672e+18
14627.0	2.1602121610690555e+18
14628.0	2.159697882356121e+18
14629.0	2.1591777836269563e+18
14630.0	2.1586554703052795e+18
14631.0	2.1581371734491133e+18
14632.0	2.1571626604691456e+18
14633.0	2.1570167188226043e+18
14634.0	2.156570714990182e+18
14635.0	2.1560069351014395e+18
14636.0	2.15540734927831e+18
14637.0	2.155014104757043e+18
14638.0	2.1544826142982144e+18
14639.0	2.153956819704217e+18
14640.0	2.1534387929612283e+18
14641.0	2.1511209568174065e+18
14642.0	2.1523921513742328e+18
14643.0	2.151877112653414e+18
14644.0	2.1513465768181757e+18
14645.0	2.150819220265369e+18
14646.0	2.1502825372581883e+18
14647.0	2.1497518403616768e+18
14648.0	2.1492466649661432e+18
14649.0	2.1487323476656125e+18
14650.0	2.14820481662976e+18
