# Flux units: erg / (cm m2 s)
# Wavelength units: Angstrom
wave	flux
14000.0	2.3088297265856507e+18
14001.0	2.308281051224473e+18
14002.0	2.3077656249499643e+18
14003.0	2.307233075848806e+18
14004.0	2.306700632444109e+18
14005.0	2.3061681823285243e+18
14006.0	2.3056334857437176e+18
14007.0	2.3051000877154301e+18
14008.0	2.3045350394691581e+18
14009.0	2.3040395059396605e+18
14010.0	2.3035027038142461e+18
14011.0	2.3027811543416827e+18
14012.0	2.3024447912935421e+18
14013.0	2.3019136531562488e+18
14014.0	2.3013802819715067e+18
14015.0	2.300850608485171e+18
14016.0	2.300320643075276e+18
14017.0	2.299789934434713e+18
14018.0	2.2992591083536381e+18
14019.0	2.2987289365839872e+18
14020.0	2.29819836048343e+18
14021.0	2.2976679789985787e+18
14022.0	2.297137709921075e+18
14023.0	2.296603555240345e+18
14024.0	2.296042650966425e+18
14025.0	2.2954529922220027e+18
14026.0	2.294922823807795e+18
14027.0	2.2943941603098621e+18
14028.0	2.2938648844435448e+18
14029.0	2.293335434094182e+18
14030.0	2.292594657932083e+18
14031.0	2.2922686682365947e+18
14032.0	2.291748582929203e+18
14033.0	2.2912031136940027e+18
14034.0	2.290691574700441e+18
14035.0	2.2901638758924285e+18
14036.0	2.2896358264406008e+18
14037.0	2.2891078877184e+18
14038.0	2.2885800580481024e+18
14039.0	2.2880523743395832e+18
14040.0	2.287520979510886e+18
14041.0	2.28699591975895e+18
14042.0	2.286430343030374e+18
14043.0	2.2858591140577277e+18
14044.0	2.285341793635532e+18
14045.0	2.2848171600248827e+18
14046.0	2.2842891390943227e+18
14047.0	2.283761522494668e+18
14048.0	2.2832374878306296e+18
14049.0	2.2827116110282747e+18
14050.0	2.282185341639065e+18
14051.0	2.2816560070524923e+18
14052.0	2.2811331736371195e+18
14053.0	2.2806072498585595e+18
14054.0	2.2800816482025464e+18
14055.0	2.2795560767455227e+18
14056.0	2.2790306361507837e+18
14057.0	2.2785053650059264e+18
14058.0	2.2779802129793021e+18
14059.0	2.2774552169807872e+18
14060.0	2.2769303551999995e+18
14061.0	2.2764035170631675e+18
14062.0	2.275818081144012e+18
14063.0	2.2752813780041723e+18
14064.0	2.274734336743833e+18
14065.0	2.2742356776189947e+18
14066.0	2.2737141763145728e+18
14067.0	2.2731852963905533e+18
14068.0	2.2726663083130875e+18
14069.0	2.2721418038870013e+18
14070.0	2.2716187506900987e+18
14071.0	2.271094504633139e+18
14072.0	2.2705720554160123e+18
14073.0	2.2700488428355581e+18
14074.0	2.26952580473815e+18
14075.0	2.2689960356216827e+18
14076.0	2.2684745829711867e+18
14077.0	2.2679080935620603e+18
14078.0	2.267431105567129e+18
14079.0	2.2669101109346301e+18
14080.0	2.2663903611715576e+18
14081.0	2.2658682827309056e+18
14082.0	2.26534173483991e+18
14083.0	2.2648240016982008e+18
14084.0	2.264262612562739e+18
14085.0	2.263555825362534e+18
14086.0	2.2631407201288184e+18
14087.0	2.2626235171471355e+18
14088.0	2.2620977242308603e+18
14089.0	2.261576488006451e+18
14090.0	2.2610593521336315e+18
14091.0	2.260539362456371e+18
14092.0	2.2600187016904701e+18
14093.0	2.259498138232422e+18
14094.0	2.2589776989257723e+18
14095.0	2.2584573485383677e+18
14096.0	2.2579261718134781e+18
14097.0	2.2574111716802555e+18
14098.0	2.2568921517260792e+18
14099.0	2.2563775995445245e+18
14100.0	2.2558543248883712e+18
14101.0	2.2553387341971448e+18
14102.0	2.2548192981680123e+18
14103.0	2.254295931237171e+18
14104.0	2.2537812364492792e+18
14105.0	2.2532616712355832e+18
14106.0	2.2527435337629693e+18
14107.0	2.252223062579609e+18
14108.0	2.251701841454694e+18
14109.0	2.2511550484971517e+18
14110.0	2.2505978654097405e+18
14111.0	2.2500742434652155e+18
14112.0	2.249566358549299e+18
14113.0	2.249048955918745e+18
14114.0	2.2485259043995643e+18
14115.0	2.2480128403570685e+18
14116.0	2.2474768032727032e+18
14117.0	2.246632147622297e+18
14118.0	2.2464607549390845e+18
14119.0	2.2459356750544893e+18
14120.0	2.2454212906450944e+18
14121.0	2.244902628045619e+18
14122.0	2.244387884603801e+18
14123.0	2.2438667339431933e+18
14124.0	2.2433500175007744e+18
14125.0	2.2426786956574717e+18
14126.0	2.2423276626116603e+18
14127.0	2.241811821939916e+18
14128.0	2.2412955148615677e+18
14129.0	2.2407757449658365e+18
14130.0	2.2402561629749245e+18
14131.0	2.2397491051757565e+18
14132.0	2.239231496185446e+18
14133.0	2.238525504225279e+18
14134.0	2.2382031199535101e+18
14135.0	2.2376817998430203e+18
14136.0	2.237150453668249e+18
14137.0	2.2365929031598077e+18
14138.0	2.236074415043379e+18
14139.0	2.2355643088240637e+18
14140.0	2.2350411381866496e+18
14141.0	2.2345329126932477e+18
14142.0	2.233987950129971e+18
14143.0	2.233498845629644e+18
14144.0	2.232993614869299e+18
14145.0	2.2324798898044923e+18
14146.0	2.2319655892811773e+18
14147.0	2.231452107486003e+18
14148.0	2.2309376056360957e+18
14149.0	2.2304237547421693e+18
14150.0	2.229912935491174e+18
14151.0	2.229395782841139e+18
14152.0	2.2288871664386045e+18
14153.0	2.2283743792201723e+18
14154.0	2.2278520021450747e+18
14155.0	2.2273253233917952e+18
14156.0	2.2268346233782267e+18
14157.0	2.2263248392814587e+18
14158.0	2.2258112316571648e+18
14159.0	2.2253008301588477e+18
14160.0	2.2247876134436856e+18
14161.0	2.224255034143539e+18
14162.0	2.223727467875532e+18
14163.0	2.223253714527846e+18
14164.0	2.2227270542295037e+18
14165.0	2.2221405697343483e+18
14166.0	2.2217191847886845e+18
14167.0	2.2212045269106683e+18
14168.0	2.22066879013847e+18
14169.0	2.2201252251172861e+18
14170.0	2.2196127600214013e+18
14171.0	2.2191032158388221e+18
14172.0	2.218593713599283e+18
14173.0	2.218039531955814e+18
14174.0	2.2175713821982712e+18
14175.0	2.2170633982967805e+18
14176.0	2.2165535353470973e+18
14177.0	2.216043756283494e+18
14178.0	2.215532994075033e+18
14179.0	2.2150157457948667e+18
14180.0	2.2145154592800765e+18
14181.0	2.2140062607081467e+18
14182.0	2.213496919529881e+18
14183.0	2.2129882192412667e+18
14184.0	2.212477559373824e+18
14185.0	2.2119705921716221e+18
14186.0	2.2113875386171387e+18
14187.0	2.2109354429775867e+18
14188.0	2.210413067580211e+18
14189.0	2.20990373143511e+18
14190.0	2.20939664008151e+18
14191.0	2.2088885588721661e+18
14192.0	2.2083785482829821e+18
14193.0	2.2078624609861627e+18
14194.0	2.2073655416586237e+18
14195.0	2.2068591348154365e+18
14196.0	2.2063517951590395e+18
14197.0	2.205844673606451e+18
14198.0	2.2053360152608765e+18
14199.0	2.2048291772432376e+18
14200.0	2.2042847129632768e+18
14201.0	2.2038163786563581e+18
14202.0	2.2033110489104381e+18
14203.0	2.2027945270837243e+18
14204.0	2.202283030033203e+18
14205.0	2.2017290698489853e+18
14206.0	2.2011788929269757e+18
14207.0	2.2007178701307901e+18
14208.0	2.2002121226321915e+18
14209.0	2.1996588436029432e+18
14210.0	2.199168811322572e+18
14211.0	2.1986949992546301e+18
14212.0	2.1981894950256637e+18
14213.0	2.1976836921622528e+18
14214.0	2.197179191210803e+18
14215.0	2.1966704271687677e+18
14216.0	2.1961696088162301e+18
14217.0	2.195664844462489e+18
14218.0	2.195155556971315e+18
14219.0	2.1946556345221115e+18
14220.0	2.1941513030205432e+18
14221.0	2.1936456880619515e+18
14222.0	2.1931321207029755e+18
14223.0	2.1926387094913021e+18
14224.0	2.1921348930502653e+18
14225.0	2.1915224156143616e+18
14226.0	2.1911271729266683e+18
14227.0	2.1906240258965501e+18
14228.0	2.1898822196133883e+18
14229.0	2.1895801005408253e+18
14230.0	2.1891142408732667e+18
14231.0	2.1886038242754555e+18
14232.0	2.1881083192672253e+18
14233.0	2.1876031170281472e+18
14234.0	2.187102912721715e+18
14235.0	2.1865995391991805e+18
14236.0	2.1860977091805181e+18
14237.0	2.1855952047177723e+18
14238.0	2.1850933629550587e+18
14239.0	2.1845892696899581e+18
14240.0	2.1836113542905853e+18
14241.0	2.183587523932979e+18
14242.0	2.1830859875155965e+18
14243.0	2.1825289956884477e+18
14244.0	2.1820831629836285e+18
14245.0	2.181525033661235e+18
14246.0	2.1810099999735803e+18
14247.0	2.1805169998036987e+18
14248.0	2.1800132940922877e+18
14249.0	2.1795161935708155e+18
14250.0	2.1790152443559933e+18
14251.0	2.1785154410250232e+18
14252.0	2.1780148021886973e+18
14253.0	2.1775140727554045e+18
14254.0	2.1770130799198208e+18
14255.0	2.1765032538800125e+18
14256.0	2.1758909475717115e+18
14257.0	2.1754860361744381e+18
14258.0	2.1749894070927355e+18
14259.0	2.1744838357549056e+18
14260.0	2.1739868610625533e+18
14261.0	2.173482339978444e+18
14262.0	2.1730031625568253e+18
14263.0	2.1723327953371133e+18
14264.0	2.1719742058332155e+18
14265.0	2.1715037877960701e+18
14266.0	2.171006997653094e+18
14267.0	2.1705081304907773e+18
14268.0	2.1700095602851832e+18
14269.0	2.1695101747068918e+18
14270.0	2.1690125725466621e+18
14271.0	2.1685127843151872e+18
14272.0	2.1680158532435965e+18
14273.0	2.1675171974742016e+18
14274.0	2.1667657342255101e+18
14275.0	2.166498414454374e+18
14276.0	2.1660123734736893e+18
14277.0	2.165518339827302e+18
14278.0	2.1650290423889917e+18
14279.0	2.1645314016411643e+18
14280.0	2.1640316570304504e+18
14281.0	2.1635371787878395e+18
14282.0	2.1630402158395387e+18
14283.0	2.1625432528912376e+18
14284.0	2.162046390606233e+18
14285.0	2.1615495752974333e+18
14286.0	2.1610526408703995e+18
14287.0	2.1605565268492283e+18
14288.0	2.1600600386961403e+18
14289.0	2.1592572589768689e+18
14290.0	2.1590656900136955e+18
14291.0	2.158571334244761e+18
14292.0	2.1580757973598203e+18
14293.0	2.1575762809192445e+18
14294.0	2.1569763880730621e+18
14295.0	2.1565247605178365e+18
14296.0	2.1557852644573184e+18
14297.0	2.1555385957613565e+18
14298.0	2.1549690847756285e+18
14299.0	2.1545423512535032e+18
14300.0	2.1540498359451645e+18
14301.0	2.153557347480371e+18
14302.0	2.1530620974858237e+18
14303.0	2.1525546705879032e+18
14304.0	2.1520689299193853e+18
14305.0	2.1515771410644987e+18
14306.0	2.1510618087424e+18
14307.0	2.1505821330374653e+18
14308.0	2.1500936090288125e+18
14309.0	2.149596488374681e+18
14310.0	2.1490051233873912e+18
14311.0	2.1485792740245501e+18
14312.0	2.148099522822144e+18
14313.0	2.1476038064209915e+18
14314.0	2.1471292846768125e+18
14315.0	2.1466380897353728e+18
14316.0	2.1461265792630776e+18
14317.0	2.1456413838540795e+18
14318.0	2.1451593710829563e+18
14319.0	2.1446667333009403e+18
14320.0	2.1441737431973883e+18
14321.0	2.143681221178163e+18
14322.0	2.1431731080921088e+18
14323.0	2.142689862195609e+18
14324.0	2.1422036937080827e+18
14325.0	2.1417072726638587e+18
14326.0	2.1412191596969984e+18
14327.0	2.14072438114222e+18
14328.0	2.1402328137465853e+18
14329.0	2.139743137143193e+18
14330.0	2.139251338221977e+18
14331.0	2.138759499035443e+18
14332.0	2.13826803901399e+18
14333.0	2.1377765789925373e+18
14334.0	2.1372852095680504e+18
14335.0	2.1367886710833147e+18
14336.0	2.1362874064568315e+18
14337.0	2.135811455293849e+18
14338.0	2.1353199650734075e+18
14339.0	2.13482518651863e+18
14340.0	2.1343390012538875e+18
14341.0	2.1338474573463542e+18
14342.0	2.1333578159751163e+18
14343.0	2.1328633394102264e+18
14344.0	2.1323746056863744e+18
14345.0	2.1318866839797755e+18
14346.0	2.1313711419424765e+18
14347.0	2.1308600660000765e+18
14348.0	2.130376544957235e+18
14349.0	2.1298547735396347e+18
14350.0	2.1293312086376445e+18
14351.0	2.128838669841203e+18
14352.0	2.1283587827433472e+18
14353.0	2.1278715824570365e+18
14354.0	2.127380593875353e+18
14355.0	2.1268891405647867e+18
14356.0	2.1264008698920957e+18
14357.0	2.125914240031129e+18
14358.0	2.1254251489525757e+18
14359.0	2.1249298234605565e+18
14360.0	2.124446310806323e+18
14361.0	2.1239582196498427e+18
14362.0	2.123469849991577e+18
14363.0	2.1229811447889915e+18
14364.0	2.1224600427823101e+18
14365.0	2.121999035085619e+18
14366.0	2.121511156999782e+18
14367.0	2.1210280268660733e+18
14368.0	2.1205397662597117e+18
14369.0	2.1200519921926136e+18
14370.0	2.1195641342394368e+18
14371.0	2.119076400437657e+18
14372.0	2.1185867640995835e+18
14373.0	2.1181010100092925e+18
14374.0	2.117613613429555e+18
14375.0	2.117126213494374e+18
14376.0	2.116638910867046e+18
14377.0	2.1161514840883195e+18
14378.0	2.1156636412346365e+18
14379.0	2.1151775633440763e+18
14380.0	2.114690364735488e+18
14381.0	2.114199089263411e+18
14382.0	2.113716417147699e+18
14383.0	2.1132240679337981e+18
14384.0	2.1127357385408502e+18
14385.0	2.1122573899137021e+18
14386.0	2.111765156462592e+18
14387.0	2.1112846603517947e+18
14388.0	2.1107977066905597e+18
14389.0	2.1103123468648445e+18
14390.0	2.109825720359321e+18
14391.0	2.109340432675635e+18
14392.0	2.1088531602472955e+18
14393.0	2.1083690654236672e+18
14394.0	2.1078691110977533e+18
14395.0	2.1073904235708416e+18
14396.0	2.1069120246120445e+18
14397.0	2.1064267604164608e+18
14398.0	2.1059401121005565e+18
14399.0	2.1054556901212155e+18
14400.0	2.1049631630688253e+18
14401.0	2.1044830696112125e+18
14402.0	2.1039994965590008e+18
14403.0	2.102099874467018e+18
14404.0	2.0991971896066038e+18
14405.0	2.1020731416510446e+18
14406.0	2.1020600520671224e+18
14407.0	2.099527697406362e+18
14408.0	2.1010795294883837e+18
14409.0	2.1006010013450237e+18
14410.0	2.1001204330921976e+18
14411.0	2.0996386887565304e+18
14412.0	2.0991537030627328e+18
14413.0	2.0986408688680955e+18
14414.0	2.0981313162969083e+18
14415.0	2.0976476845244416e+18
14416.0	2.0971626803757053e+18
14417.0	2.0966721380679675e+18
14418.0	2.0961836375474173e+18
14419.0	2.0957119662522363e+18
14420.0	2.0952270443118587e+18
14421.0	2.0947448620908544e+18
14422.0	2.0942609350393853e+18
14423.0	2.0937709983891453e+18
14424.0	2.084968127371668e+18
14425.0	2.0928048471736317e+18
14426.0	2.0923279145435133e+18
14427.0	2.0918454722756603e+18
14428.0	2.0913531146731517e+18
14429.0	2.0908782439628797e+18
14430.0	2.0903968183943165e+18
14431.0	2.0898630412009467e+18
14432.0	2.089423629136691e+18
14433.0	2.0874150155386872e+18
14434.0	2.0884605867393024e+18
14435.0	2.0879732170031101e+18
14436.0	2.0875009652162557e+18
14437.0	2.0870186135453693e+18
14438.0	2.086487782431129e+18
14439.0	2.0860412568272893e+18
14440.0	2.085571664229171e+18
14441.0	2.085088084466073e+18
14442.0	2.0846045600677888e+18
14443.0	2.0841093067177981e+18
14444.0	2.083642452161331e+18
14445.0	2.0831618369323008e+18
14446.0	2.0809499874951173e+18
14447.0	2.0821921977335805e+18
14448.0	2.0817171307298808e+18
14449.0	2.0812356195975165e+18
14450.0	2.0807516724133883e+18
14451.0	2.0802718809456637e+18
14452.0	2.0797886988025853e+18
14453.0	2.0792783795126267e+18
14454.0	2.0788276310835197e+18
14455.0	2.078344638522982e+18
14456.0	2.0778580271169533e+18
14457.0	2.0773733702565888e+18
14458.0	2.0768993937719293e+18
14459.0	2.0764166981681147e+18
14460.0	2.0759370677616637e+18
14461.0	2.075443500521881e+18
14462.0	2.074946168474828e+18
14463.0	2.0744902660849661e+18
14464.0	2.0740146991202301e+18
14465.0	2.0735282789744637e+18
14466.0	2.0730486284353533e+18
14467.0	2.072479852291686e+18
14468.0	2.0720230321881083e+18
14469.0	2.071535761437491e+18
14470.0	2.0710544650534907e+18
14471.0	2.0705794450259965e+18
14472.0	2.070100633347686e+18
14473.0	2.0696243298631677e+18
14474.0	2.069144174329856e+18
14475.0	2.0686620944498683e+18
14476.0	2.0680845538885627e+18
14477.0	2.0677031893139453e+18
14478.0	2.0672198695976955e+18
14479.0	2.0667192592826365e+18
14480.0	2.0662333894295552e+18
14481.0	2.0657601024884733e+18
14482.0	2.065278911800934e+18
14483.0	2.0647962849837053e+18
14484.0	2.0643173491539963e+18
14485.0	2.0638253707165693e+18
14486.0	2.0632519405731837e+18
14487.0	2.0628806406504443e+18
14488.0	2.062391868338995e+18
14489.0	2.0619174153814008e+18
14490.0	2.0614407159545853e+18
14491.0	2.0609164363431933e+18
14492.0	2.0604317710942205e+18
14493.0	2.0599519292948475e+18
14494.0	2.0594646082125821e+18
14495.0	2.0589930577133565e+18
14496.0	2.058463783524761e+18
14497.0	2.0580338992414717e+18
14498.0	2.057554510426931e+18
14499.0	2.057075561175449e+18
14500.0	2.0565960247214077e+18
14501.0	2.0560669065609216e+18
14502.0	2.055519249576755e+18
14503.0	2.0551502078672893e+18
14504.0	2.054676446130995e+18
14505.0	2.054151633004134e+18
14506.0	2.0536169414524925e+18
14507.0	2.0531511556046845e+18
14508.0	2.0527614443651064e+18
14509.0	2.0522821964791805e+18
14510.0	2.0518028848398333e+18
14511.0	2.0513235379683328e+18
14512.0	2.0508381227778045e+18
14513.0	2.050364934822297e+18
14514.0	2.0498698056237048e+18
14515.0	2.049405680720281e+18
14516.0	2.0481722164445187e+18
14517.0	2.0484475456585725e+18
14518.0	2.047968754112921e+18
14519.0	2.0474896924540925e+18
14520.0	2.0470105485869053e+18
14521.0	2.0465310255546363e+18
14522.0	2.0460521081798653e+18
14523.0	2.0454627480698875e+18
14524.0	2.044979570959974e+18
14525.0	2.0446128260513787e+18
14526.0	2.0441358799994875e+18
14527.0	2.043648010302259e+18
14528.0	2.043131438143897e+18
14529.0	2.042694410122035e+18
14530.0	2.042213531490713e+18
14531.0	2.041739575138713e+18
14532.0	2.0411096074551293e+18
14533.0	2.040781362901811e+18
14534.0	2.040303136748339e+18
14535.0	2.0398195888619515e+18
14536.0	2.0393447735164928e+18
14537.0	2.0388610461138944e+18
14538.0	2.038386554568704e+18
14539.0	2.037907640549376e+18
14540.0	2.0374285168148477e+18
14541.0	2.0369410178940925e+18
14542.0	2.0364700562751488e+18
14543.0	2.0359180489588733e+18
14544.0	2.0355109884002301e+18
14545.0	2.0350282642751483e+18
14546.0	2.0258063000797128e+18
14547.0	2.0262526461673405e+18
14548.0	2.0335877087559675e+18
14549.0	2.0330697793208315e+18
14550.0	2.0326319745138683e+18
14551.0	2.0321550653718525e+18
14552.0	2.0316745357066235e+18
14553.0	2.0311930530955261e+18
14554.0	2.0307161036881917e+18
14555.0	2.0302358609133565e+18
14556.0	2.0297534471667707e+18
14557.0	2.0292762494566397e+18
14558.0	2.0287957499904e+18
14559.0	2.0277562252984305e+18
14560.0	2.027829098813849e+18
14561.0	2.0273530637647864e+18
14562.0	2.0268654927020027e+18
14563.0	2.0263945747038203e+18
14564.0	2.0259094497591293e+18
14565.0	2.0254342451822587e+18
14566.0	2.0249537876590587e+18
14567.0	2.0244726976348155e+18
14568.0	2.0239812241915896e+18
14569.0	2.0235115695177725e+18
14570.0	2.0228715355045888e+18
14571.0	2.022549235118899e+18
14572.0	2.0220525473169405e+18
14573.0	2.0215711787909117e+18
14574.0	2.0210947360555005e+18
14575.0	2.0206246099419133e+18
14576.0	2.020145185895219e+18
14577.0	2.0196620440174587e+18
14578.0	2.0191829303492603e+18
14579.0	2.018702355385548e+18
14580.0	2.018221166375731e+18
14581.0	2.017714653836083e+18
14582.0	2.017209748553728e+18
14583.0	2.0167280511942653e+18
14584.0	2.0162408962064376e+18
14585.0	2.015763602866176e+18
14586.0	2.0152799794823168e+18
14587.0	2.0147967067422717e+18
14588.0	2.0143166652940288e+18
14589.0	2.01384774378455e+18
14590.0	2.0133797936758776e+18
14591.0	2.012911033227673e+18
14592.0	2.0124410195214333e+18
14593.0	2.0119317555183608e+18
14594.0	2.0115061410365437e+18
14595.0	2.0110350351335421e+18
14596.0	2.0105358810808317e+18
14597.0	2.010069288248934e+18
14598.0	2.0096273512136696e+18
14599.0	2.0091607214718973e+18
14600.0	2.0086903202119675e+18
14601.0	2.008220769556889e+18
14602.0	2.0077479238565888e+18
14603.0	2.0072800224018427e+18
14604.0	2.006793293555302e+18
14605.0	2.0063334619414525e+18
14606.0	2.0058458606796797e+18
14607.0	2.0053956994531328e+18
14608.0	2.0049253770461181e+18
14609.0	2.004445006764441e+18
14610.0	2.003975425910374e+18
14611.0	2.0035086485291005e+18
14612.0	2.0030399602229245e+18
14613.0	2.002568510386995e+18
14614.0	2.0020951261380603e+18
14615.0	2.0016229733367805e+18
14616.0	2.0011511376248827e+18
14617.0	2.0006780637544443e+18
14618.0	2.0001995356110843e+18
14619.0	1.9997132480053243e+18
14620.0	1.9991822658961405e+18
14621.0	1.998784135849574e+18
14622.0	1.998309890929459e+18
14623.0	1.9978353540857853e+18
14624.0	1.997338471668121e+18
14625.0	1.9968837688492027e+18
14626.0	1.9964068865507325e+18
14627.0	1.995927517868851e+18
14628.0	1.9954581601517563e+18
14629.0	1.994981906998886e+18
14630.0	1.9945047126441981e+18
14631.0	1.994027820279398e+18
14632.0	1.992888947625165e+18
14633.0	1.9929958470123515e+18
14634.0	1.992594279314227e+18
14635.0	1.9920920483201016e+18
14636.0	1.991560886694707e+18
14637.0	1.9911624630468605e+18
14638.0	1.9906821850398715e+18
14639.0	1.9902001001267197e+18
14640.0	1.9897224511094781e+18
14641.0	1.9866793627615212e+18
14642.0	1.9887621735972861e+18
14643.0	1.988284172258508e+18
14644.0	1.9877989080629243e+18
14645.0	1.9873137428529147e+18
14646.0	1.986833585641881e+18
14647.0	1.9863509655355387e+18
14648.0	1.9858759421526008e+18
