# Flux units: erg / (cm m2 s)
# Wavelength units: Angstrom
wave	flux
14000.0	2.2919168097517565e+18
14001.0	2.2913949913579515e+18
14002.0	2.2909333410938877e+18
14003.0	2.2904378092421115e+18
14004.0	2.2899419854667773e+18
14005.0	2.2894461700800504e+18
14006.0	2.2889462962847741e+18
14007.0	2.2884487931101181e+18
14008.0	2.2878972404563965e+18
14009.0	2.287462302875647e+18
14010.0	2.286959308518195e+18
14011.0	2.2861263834972155e+18
14012.0	2.2859779235905533e+18
14013.0	2.285484106370252e+18
14014.0	2.2849856636715005e+18
14015.0	2.2844934990069755e+18
14016.0	2.2840005508464637e+18
14017.0	2.2835063192289275e+18
14018.0	2.2830120003698683e+18
14019.0	2.2825181110075387e+18
14020.0	2.2820236914851837e+18
14021.0	2.2815294397349883e+18
14022.0	2.2810361895845883e+18
14023.0	2.2805352202371067e+18
14024.0	2.280040609454489e+18
14025.0	2.2795562965270523e+18
14026.0	2.2790619877343227e+18
14027.0	2.278570178746777e+18
14028.0	2.2780772960174075e+18
14029.0	2.277584158274355e+18
14030.0	2.2769531772469245e+18
14031.0	2.276583571823001e+18
14032.0	2.2761054262001661e+18
14033.0	2.2755869347282947e+18
14034.0	2.2751220699496445e+18
14035.0	2.2746304035684347e+18
14036.0	2.2741385677373437e+18
14037.0	2.273646820825497e+18
14038.0	2.2731551863209976e+18
14039.0	2.272663660868403e+18
14040.0	2.2721673035775995e+18
14041.0	2.271678803057049e+18
14042.0	2.2711827209125883e+18
14043.0	2.270675996980019e+18
14044.0	2.270201733604966e+18
14045.0	2.2697151825969152e+18
14046.0	2.2692228468047867e+18
14047.0	2.2687316753514493e+18
14048.0	2.2682448206757883e+18
14049.0	2.2677552648683517e+18
14050.0	2.267265120180633e+18
14051.0	2.266769625238732e+18
14052.0	2.266285062330777e+18
14053.0	2.2657953723056123e+18
14054.0	2.2653057879769083e+18
14055.0	2.2648162657239037e+18
14056.0	2.2643268474896381e+18
14057.0	2.263837590316646e+18
14058.0	2.2633484304515067e+18
14059.0	2.262859401448652e+18
14060.0	2.262370493241753e+18
14061.0	2.2618779376680952e+18
14062.0	2.2613929855287293e+18
14063.0	2.26089443042263e+18
14064.0	2.2603958451175421e+18
14065.0	2.259922898753945e+18
14066.0	2.2594396260139003e+18
14067.0	2.2589516455870464e+18
14068.0	2.2584637222027261e+18
14069.0	2.2579752669806584e+18
14070.0	2.2574881707130877e+18
14071.0	2.2569991064780792e+18
14072.0	2.2565132852789245e+18
14073.0	2.256025996073369e+18
14074.0	2.2555388763176952e+18
14075.0	2.2550401534394365e+18
14076.0	2.2545647978676221e+18
14077.0	2.2540462845853693e+18
14078.0	2.2535889141891067e+18
14079.0	2.2531006602936315e+18
14080.0	2.252618421030092e+18
14081.0	2.2521321183248384e+18
14082.0	2.2516425876832256e+18
14083.0	2.2511588451811328e+18
14084.0	2.2506733830143995e+18
14085.0	2.2500313508347901e+18
14086.0	2.249698588177203e+18
14087.0	2.2492167733772283e+18
14088.0	2.248724284912435e+18
14089.0	2.248246052048076e+18
14090.0	2.247760574781849e+18
14091.0	2.2472759481204733e+18
14092.0	2.2467910429573115e+18
14093.0	2.246306209936179e+18
14094.0	2.2458214792560632e+18
14095.0	2.2453367418650621e+18
14096.0	2.244844738261811e+18
14097.0	2.244358190609203e+18
14098.0	2.243880742918553e+18
14099.0	2.243399674704691e+18
14100.0	2.242909058577203e+18
14101.0	2.2424321209139195e+18
14102.0	2.241948219028275e+18
14103.0	2.2414569838215165e+18
14104.0	2.24098134303703e+18
14105.0	2.2404975938240512e+18
14106.0	2.240014698571366e+18
14107.0	2.2395305014067192e+18
14108.0	2.2390405798559744e+18
14109.0	2.2385626439483387e+18
14110.0	2.2380786514657275e+18
14111.0	2.2375910804029432e+18
14112.0	2.2371122569805824e+18
14113.0	2.2366353964924923e+18
14114.0	2.2361441965178875e+18
14115.0	2.2356699683749883e+18
14116.0	2.2351743610257405e+18
14117.0	2.2344692230258683e+18
14118.0	2.2342244065345533e+18
14119.0	2.2337359748005883e+18
14120.0	2.2332586328063992e+18
14121.0	2.2327714912403453e+18
14122.0	2.2322964141703165e+18
14123.0	2.2318134367092733e+18
14124.0	2.2313314105163773e+18
14125.0	2.2305671277969403e+18
14126.0	2.2303744884473853e+18
14127.0	2.2298948781735933e+18
14128.0	2.2294137311068155e+18
14129.0	2.2289261147455483e+18
14130.0	2.228439276847104e+18
14131.0	2.2279735463641083e+18
14132.0	2.2274884918837243e+18
14133.0	2.2266754025652214e+18
14134.0	2.2265321721167867e+18
14135.0	2.2260450691383293e+18
14136.0	2.2255682220720123e+18
14137.0	2.225094260686848e+18
14138.0	2.2246132444823552e+18
14139.0	2.2241361759567872e+18
14140.0	2.223650797676134e+18
14141.0	2.223175034417971e+18
14142.0	2.2226801115791355e+18
14143.0	2.222215302165299e+18
14144.0	2.2217425302847483e+18
14145.0	2.2212641581694973e+18
14146.0	2.2207847626440701e+18
14147.0	2.2203070884610043e+18
14148.0	2.2198292683161595e+18
14149.0	2.2193516360761344e+18
14150.0	2.2188737370783744e+18
14151.0	2.2183944942256128e+18
14152.0	2.2179184239443965e+18
14153.0	2.2174408202256381e+18
14154.0	2.2169462396420093e+18
14155.0	2.2164797827055608e+18
14156.0	2.2160078714961915e+18
14157.0	2.2155319790534653e+18
14158.0	2.215052440921702e+18
14159.0	2.214535400679014e+18
14160.0	2.2138922947575803e+18
14161.0	2.213382931768934e+18
14162.0	2.2128760601968632e+18
14163.0	2.2124647415808e+18
14164.0	2.2119748099637245e+18
14165.0	2.2114431919980536e+18
14166.0	2.21103308973015e+18
14167.0	2.2105503790268408e+18
14168.0	2.210083017798451e+18
14169.0	2.2096080179036152e+18
14170.0	2.209130264867635e+18
14171.0	2.2086545603297275e+18
14172.0	2.2081802634002427e+18
14173.0	2.2076660803174395e+18
14174.0	2.2072252640002045e+18
14175.0	2.2067538879840248e+18
14176.0	2.2062786850848765e+18
14177.0	2.2057554708267005e+18
14178.0	2.2051179869503485e+18
14179.0	2.2046361520177147e+18
14180.0	2.2041684435009533e+18
14181.0	2.203693247312691e+18
14182.0	2.2032176686039037e+18
14183.0	2.2027431250493437e+18
14184.0	2.2022649777487867e+18
14185.0	2.2017931286151165e+18
14186.0	2.2012601902825467e+18
14187.0	2.2008281031507963e+18
14188.0	2.2003691439521787e+18
14189.0	2.199894521544704e+18
14190.0	2.19942086550487e+18
14191.0	2.198946766546534e+18
14192.0	2.1984679682899965e+18
14193.0	2.197991911430553e+18
14194.0	2.197524905879142e+18
14195.0	2.1970522329841661e+18
14196.0	2.1965785551339515e+18
14197.0	2.196013891085926e+18
14198.0	2.1954164326137853e+18
14199.0	2.1949437462970365e+18
14200.0	2.1944454864699387e+18
14201.0	2.193996754662195e+18
14202.0	2.193524769633075e+18
14203.0	2.1930430588518395e+18
14204.0	2.1925763385131003e+18
14205.0	2.1921032042446843e+18
14206.0	2.1915530709434363e+18
14207.0	2.1911586704719867e+18
14208.0	2.190686358287155e+18
14209.0	2.1901300174159867e+18
14210.0	2.1896819667632123e+18
14211.0	2.1892654841200637e+18
14212.0	2.1887960676827133e+18
14213.0	2.188324294046515e+18
14214.0	2.1878519550181373e+18
14215.0	2.187373713765171e+18
14216.0	2.1869087634227195e+18
14217.0	2.1864369964974077e+18
14218.0	2.1859571983187965e+18
14219.0	2.1854937478594555e+18
14220.0	2.1848786162679803e+18
14221.0	2.1843356720037883e+18
14222.0	2.183724493124403e+18
14223.0	2.1830312384266237e+18
14224.0	2.1825597483253755e+18
14225.0	2.1820130761637883e+18
14226.0	2.1816163772137467e+18
14227.0	2.1811458954231805e+18
14228.0	2.180510287239577e+18
14229.0	2.1801711559507963e+18
14230.0	2.1797331330400248e+18
14231.0	2.1792594786779133e+18
14232.0	2.1787917634502648e+18
14233.0	2.1783180906332155e+18
14234.0	2.1778508988547072e+18
14235.0	2.1773790815977467e+18
14236.0	2.1769102137753595e+18
14237.0	2.1764394165731328e+18
14238.0	2.1759697887428605e+18
14239.0	2.1754135015587837e+18
14240.0	2.1740758138617856e+18
14241.0	2.1744694677471227e+18
14242.0	2.1740012240371704e+18
14243.0	2.173435922454937e+18
14244.0	2.1730636024774648e+18
14245.0	2.172468709241651e+18
14246.0	2.1718938782007293e+18
14247.0	2.171434259657523e+18
14248.0	2.1709597697900544e+18
14249.0	2.1704975390343165e+18
14250.0	2.1700282064830461e+18
14251.0	2.169560672449331e+18
14252.0	2.1690916083335163e+18
14253.0	2.1686221851852792e+18
14254.0	2.1681523476398077e+18
14255.0	2.1676661657305083e+18
14256.0	2.1671337441361915e+18
14257.0	2.1667415398023163e+18
14258.0	2.1662793476341757e+18
14259.0	2.1657978197245947e+18
14260.0	2.1653405080485883e+18
14261.0	2.1648605169319933e+18
14262.0	2.1644269198508027e+18
14263.0	2.1638369373061117e+18
14264.0	2.16345928049623e+18
14265.0	2.1630203700707325e+18
14266.0	2.162556439783014e+18
14267.0	2.1620889745358843e+18
14268.0	2.1616215914971133e+18
14269.0	2.161152730385612e+18
14270.0	2.1606869529264128e+18
14271.0	2.160218774647603e+18
14272.0	2.159752441862553e+18
14273.0	2.1590921644605437e+18
14274.0	2.1584094945083387e+18
14275.0	2.1581109204615165e+18
14276.0	2.1576499547078656e+18
14277.0	2.1571857308188672e+18
14278.0	2.1567291908947965e+18
14279.0	2.1562616501501947e+18
14280.0	2.1557911750705152e+18
14281.0	2.1553289174712317e+18
14282.0	2.1548624605347837e+18
14283.0	2.1543959163568125e+18
14284.0	2.1539294342545405e+18
14285.0	2.1534629991284733e+18
14286.0	2.1529965019267072e+18
14287.0	2.1525303872454653e+18
14288.0	2.152063275997593e+18
14289.0	2.1510420888027128e+18
14290.0	2.151130164153549e+18
14291.0	2.1506659503308795e+18
14292.0	2.1502010201210875e+18
14293.0	2.149733893773721e+18
14294.0	2.1491835440463872e+18
14295.0	2.148794206938726e+18
14296.0	2.1478885979848707e+18
14297.0	2.1478711245144061e+18
14298.0	2.1473174797418493e+18
14299.0	2.1469348619091965e+18
14300.0	2.1464734582702077e+18
14301.0	2.1460104289189883e+18
14302.0	2.1455478592634875e+18
14303.0	2.1450608116498427e+18
14304.0	2.1446093132791805e+18
14305.0	2.143943984257433e+18
14306.0	2.1434536550203387e+18
14307.0	2.1429977811517437e+18
14308.0	2.1425384847310843e+18
14309.0	2.1420713952935933e+18
14310.0	2.1415364973821947e+18
14311.0	2.1411290006159355e+18
14312.0	2.1406599968980987e+18
14313.0	2.1401791904088061e+18
14314.0	2.1397512472494077e+18
14315.0	2.139288085358182e+18
14316.0	2.1387921323982843e+18
14317.0	2.1383542621601784e+18
14318.0	2.1378973011279867e+18
14319.0	2.13743405367296e+18
14320.0	2.136970099897139e+18
14321.0	2.1365067819778043e+18
14322.0	2.1360178469273595e+18
14323.0	2.1355670750101501e+18
14324.0	2.1351164691873787e+18
14325.0	2.1346460964487163e+18
14326.0	2.1341900497747965e+18
14327.0	2.13372233622487e+18
14328.0	2.133259925952921e+18
14329.0	2.1328009181003773e+18
14330.0	2.1323380447772667e+18
14331.0	2.1318750456250368e+18
14332.0	2.131412496102195e+18
14333.0	2.130949889536819e+18
14334.0	2.1304873182035965e+18
14335.0	2.1300175578333184e+18
14336.0	2.1295515169718264e+18
14337.0	2.1290997954641915e+18
14338.0	2.12863662686208e+18
14339.0	2.1281676902531067e+18
14340.0	2.1277135830253565e+18
14341.0	2.1271692361859067e+18
14342.0	2.126567779703193e+18
14343.0	2.1261021515612152e+18
14344.0	2.1256387430449147e+18
14345.0	2.1251810169716733e+18
14346.0	2.124717345053081e+18
14347.0	2.124219410703974e+18
14348.0	2.1233517115473917e+18
14349.0	2.1228903850835965e+18
14350.0	2.122422226937446e+18
14351.0	2.121956404179763e+18
14352.0	2.1215002618757112e+18
14353.0	2.1210435290136573e+18
14354.0	2.1205817898303483e+18
14355.0	2.1201193661366267e+18
14356.0	2.1196587577376768e+18
14357.0	2.1191996072787965e+18
14358.0	2.118738492207923e+18
14359.0	2.1182665524772861e+18
14360.0	2.117815919810969e+18
14361.0	2.1173556570226688e+18
14362.0	2.116895196263219e+18
14363.0	2.116434321106534e+18
14364.0	2.1159524475863037e+18
14365.0	2.115508428498534e+18
14366.0	2.1150495615746045e+18
14367.0	2.1145927884472315e+18
14368.0	2.1141322270244856e+18
14369.0	2.11367239876608e+18
14370.0	2.1132123289157627e+18
14371.0	2.1127523563732987e+18
14372.0	2.1122889763782653e+18
14373.0	2.111832387800268e+18
14374.0	2.111372799456051e+18
14375.0	2.110913107093094e+18
14376.0	2.1104534868721661e+18
14377.0	2.1099935562727421e+18
14378.0	2.1095328254001147e+18
14379.0	2.109075070805606e+18
14380.0	2.1086149808226301e+18
14381.0	2.1081484718768125e+18
14382.0	2.1075585933508603e+18
14383.0	2.1070073493979128e+18
14384.0	2.1065389530152957e+18
14385.0	2.1060926421598205e+18
14386.0	2.1056226737520637e+18
14387.0	2.1051732322680827e+18
14388.0	2.1047125617934333e+18
14389.0	2.1042541293993981e+18
14390.0	2.1037937844027387e+18
14391.0	2.1033356338659325e+18
14392.0	2.1028753442340864e+18
14393.0	2.1024173899907067e+18
14394.0	2.1019331877928955e+18
14395.0	2.1014917070979067e+18
14396.0	2.1010401063862267e+18
14397.0	2.1005811908083704e+18
14398.0	2.1001214900568061e+18
14399.0	2.09966316168151e+18
14400.0	2.0991934818418683e+18
14401.0	2.0987407520235515e+18
14402.0	2.0982827927470075e+18
14403.0	2.096676485044632e+18
14404.0	2.0937906394759155e+18
14405.0	2.0959970614837225e+18
14406.0	2.0964474492026875e+18
14407.0	2.0944147200344064e+18
14408.0	2.0955185199185917e+18
14409.0	2.095066436023091e+18
14410.0	2.094618370270822e+18
14411.0	2.094162061872332e+18
14412.0	2.0937027369304056e+18
14413.0	2.0932469771468797e+18
14414.0	2.0927874290679805e+18
14415.0	2.0923303271071744e+18
14416.0	2.091872728540774e+18
14417.0	2.0914112611483643e+18
14418.0	2.090948845843251e+18
14419.0	2.0904988020572152e+18
14420.0	2.0900387506618368e+18
14421.0	2.0895834170195965e+18
14422.0	2.0891212567281661e+18
14423.0	2.0886474161389565e+18
14424.0	2.0817512891416543e+18
14425.0	2.0877290044915712e+18
14426.0	2.0872950399893496e+18
14427.0	2.0868404881653755e+18
14428.0	2.0863690567843837e+18
14429.0	2.0859241753477115e+18
14430.0	2.085470521104793e+18
14431.0	2.084900877579059e+18
14432.0	2.0843271404126203e+18
14433.0	2.0826858589257718e+18
14434.0	2.0834090743758845e+18
14435.0	2.082954269215948e+18
14436.0	2.08250694837207e+18
14437.0	2.0820497591697403e+18
14438.0	2.081559908083302e+18
14439.0	2.081124140030361e+18
14440.0	2.080678421410611e+18
14441.0	2.0802184371240955e+18
14442.0	2.0797591423811581e+18
14443.0	2.0792781429538816e+18
14444.0	2.0788482653814776e+18
14445.0	2.0783924368113661e+18
14446.0	2.0763714785378312e+18
14447.0	2.0774646987096061e+18
14448.0	2.077024333699481e+18
14449.0	2.076568332324045e+18
14450.0	2.0761079185407992e+18
14451.0	2.0756541149806584e+18
14452.0	2.0751955701792765e+18
14453.0	2.0747208672411643e+18
14454.0	2.0742851562307581e+18
14455.0	2.0738258648432635e+18
14456.0	2.0733673770844155e+18
14457.0	2.0729090436759552e+18
14458.0	2.0724581593513981e+18
14459.0	2.0720000457244672e+18
14460.0	2.0715446298738683e+18
14461.0	2.0710765254148093e+18
14462.0	2.0706214786629627e+18
14463.0	2.0701730891104248e+18
14464.0	2.0697210035372027e+18
14465.0	2.0692532279115773e+18
14466.0	2.0688099621208056e+18
14467.0	2.068327368858009e+18
14468.0	2.067894726400409e+18
14469.0	2.067428286241177e+18
14470.0	2.0669678372257787e+18
14471.0	2.066523286300262e+18
14472.0	2.0660694307307517e+18
14473.0	2.0656194691530747e+18
14474.0	2.065163712724992e+18
14475.0	2.064705542055526e+18
14476.0	2.0641763282649083e+18
14477.0	2.0637961330622461e+18
14478.0	2.0633404823306237e+18
14479.0	2.062884673893171e+18
14480.0	2.0624178294030333e+18
14481.0	2.0619739814428664e+18
14482.0	2.0615158007070717e+18
14483.0	2.0610558902403067e+18
14484.0	2.0605992697855997e+18
14485.0	2.060125526504243e+18
14486.0	2.059502016371097e+18
14487.0	2.059082579260211e+18
14488.0	2.0583049049669627e+18
14489.0	2.0578497307082747e+18
14490.0	2.057394781264281e+18
14491.0	2.056940207629926e+18
14492.0	2.0564856105074683e+18
14493.0	2.0560263845511165e+18
14494.0	2.0555600064675837e+18
14495.0	2.055117433575833e+18
14496.0	2.0545744154918912e+18
14497.0	2.0542057865019387e+18
14498.0	2.0537510367068155e+18
14499.0	2.0532956409888765e+18
14500.0	2.0528395389501437e+18
14501.0	2.052343502104166e+18
14502.0	2.0517764523360256e+18
14503.0	2.0514611648266235e+18
14504.0	2.051012637700915e+18
14505.0	2.0505220819714043e+18
14506.0	2.050029390502297e+18
14507.0	2.0494907898593277e+18
14508.0	2.0491942777323517e+18
14509.0	2.0487392209141755e+18
14510.0	2.0482819193044987e+18
14511.0	2.0478277265129467e+18
14512.0	2.0473616319643645e+18
14513.0	2.046916047562342e+18
14514.0	2.0464373248032765e+18
14515.0	2.0460028318187515e+18
14516.0	2.0441664497647624e+18
14517.0	2.0450881749123067e+18
14518.0	2.044637065773056e+18
14519.0	2.0441817673629693e+18
14520.0	2.0437260746883072e+18
14521.0	2.0432699541946365e+18
14522.0	2.0428138789994496e+18
14523.0	2.0422745871351803e+18
14524.0	2.0418153477570552e+18
14525.0	2.0414429707370493e+18
14526.0	2.0409911468883965e+18
14527.0	2.0405196769198075e+18
14528.0	2.0400022340239355e+18
14529.0	2.0396157876305915e+18
14530.0	2.0391553587478525e+18
14531.0	2.0387092894842875e+18
14532.0	2.038144001323827e+18
14533.0	2.037797753140019e+18
14534.0	2.0373440519208955e+18
14535.0	2.0368803128934397e+18
14536.0	2.036429138323046e+18
14537.0	2.0359678806458363e+18
14538.0	2.0355201135280128e+18
14539.0	2.0350642346262525e+18
14540.0	2.0346081208434683e+18
14541.0	2.034135365740134e+18
14542.0	2.0336935008468987e+18
14543.0	2.0331791550251005e+18
14544.0	2.0327811038314493e+18
14545.0	2.032317307761459e+18
14546.0	2.0249136481697754e+18
14547.0	2.0250822038257615e+18
14548.0	2.0309432420270077e+18
14549.0	2.0304221433757696e+18
14550.0	2.0300405657305083e+18
14551.0	2.0295895102783483e+18
14552.0	2.02898824841134e+18
14553.0	2.028462926934835e+18
14554.0	2.0280044744081405e+18
14555.0	2.027546939595161e+18
14556.0	2.0270880206618621e+18
14557.0	2.0266326366879736e+18
14558.0	2.0261735046840315e+18
14559.0	2.0247020136562668e+18
14560.0	2.0252572254207992e+18
14561.0	2.0247991050829821e+18
14562.0	2.0243302204833792e+18
14563.0	2.02388811064279e+18
14564.0	2.0234284468011003e+18
14565.0	2.0229738631004152e+18
14566.0	2.0225162460790781e+18
14567.0	2.0220580686987261e+18
14568.0	2.0215942139084797e+18
14569.0	2.0211416468291576e+18
14570.0	2.020367728954572e+18
14571.0	2.020153507394355e+18
14572.0	2.01967368404992e+18
14573.0	2.019208579357081e+18
14574.0	2.018775499014144e+18
14575.0	2.0183223128555517e+18
14576.0	2.017864640469401e+18
14577.0	2.0174027670683645e+18
14578.0	2.016948319263129e+18
14579.0	2.0164913280319488e+18
14580.0	2.0160330332110843e+18
14581.0	2.0155714903212027e+18
14582.0	2.0151155912867837e+18
14583.0	2.014656937433497e+18
14584.0	2.014191260637593e+18
14585.0	2.0137389015957501e+18
14586.0	2.0132776439185405e+18
14587.0	2.0128193440645115e+18
14588.0	2.0123616666451963e+18
14589.0	2.0119113057697787e+18
14590.0	2.011461382779699e+18
14591.0	2.011010981638963e+18
14592.0	2.0105568173686781e+18
14593.0	2.0100338849677312e+18
14594.0	2.0096594258952187e+18
14595.0	2.009205139151257e+18
14596.0	2.008735294894899e+18
14597.0	2.0082858685104125e+18
14598.0	2.007853392147251e+18
14599.0	2.0074048616660987e+18
14600.0	2.0069532995420155e+18
14601.0	2.0065019471331325e+18
14602.0	2.0060490461872125e+18
14603.0	2.005598245748736e+18
14604.0	2.005119794780569e+18
14605.0	2.0046914170912765e+18
14606.0	2.0042046144249848e+18
14607.0	2.003785012897382e+18
14608.0	2.003337031031193e+18
14609.0	2.0028793150242816e+18
14610.0	2.002429628592947e+18
14611.0	2.0019772947169275e+18
14612.0	2.0015272022769656e+18
14613.0	2.00107458822144e+18
14614.0	2.0006193367875581e+18
14615.0	2.0001680078667773e+18
14616.0	1.9997148636512253e+18
14617.0	1.9992610718351355e+18
14618.0	1.9988069427970045e+18
14619.0	1.998337900491571e+18
14620.0	1.9978491332132861e+18
14621.0	1.9974455052730368e+18
14622.0	1.99698928411607e+18
14623.0	1.9965369485623296e+18
14624.0	1.9960437151891453e+18
14625.0	1.995625113583616e+18
14626.0	1.9951706808778747e+18
14627.0	1.9947124430995453e+18
14628.0	1.9942629160517632e+18
14629.0	1.9938074985234427e+18
14630.0	1.9932945368219643e+18
14631.0	1.992698675540787e+18
14632.0	1.9917374920589312e+18
14633.0	1.9917146633011197e+18
14634.0	1.991326826076569e+18
14635.0	1.990863394072166e+18
14636.0	1.9903923871547384e+18
14637.0	1.989957013366374e+18
14638.0	1.9894980575231992e+18
14639.0	1.9890343235289088e+18
14640.0	1.9885751495819261e+18
14641.0	1.9861354923950065e+18
14642.0	1.9876570701234168e+18
14643.0	1.9872061136568315e+18
14644.0	1.9867398194593787e+18
14645.0	1.9862732970917888e+18
14646.0	1.9858236341485563e+18
14647.0	1.985362242253619e+18
