# Flux units: erg / (cm m2 s)
# Wavelength units: Angstrom
wave	flux
14000.0	1.5572312736661501e+18
14001.0	1.5568493202112507e+18
14002.0	1.556552969145548e+18
14003.0	1.5562132691091453e+18
14004.0	1.5558737452335101e+18
14005.0	1.5555341055950843e+18
14006.0	1.5551914477355005e+18
14007.0	1.5548513534345213e+18
14008.0	1.5544765051305981e+18
14009.0	1.5541762449735677e+18
14010.0	1.553831932880486e+18
14011.0	1.5532480572424192e+18
14012.0	1.5531587403775997e+18
14013.0	1.5528198255149053e+18
14014.0	1.552478711159193e+18
14015.0	1.5521411586064381e+18
14016.0	1.5518034131156992e+18
14017.0	1.5514647851433981e+18
14018.0	1.551125922290073e+18
14019.0	1.550787785890201e+18
14020.0	1.5504491075862523e+18
14021.0	1.5501106121539581e+18
14022.0	1.5497721066553341e+18
14023.0	1.549426613446246e+18
14024.0	1.549090132957593e+18
14025.0	1.548758734287667e+18
14026.0	1.5484202422108157e+18
14027.0	1.5480832751828992e+18
14028.0	1.547743229535846e+18
14029.0	1.5474064588013565e+18
14030.0	1.5468426101260288e+18
14031.0	1.5467259648540672e+18
14032.0	1.5463956667695101e+18
14033.0	1.5460406575235072e+18
14034.0	1.5457212981837821e+18
14035.0	1.5453843546439675e+18
14036.0	1.5450473859383296e+18
14037.0	1.5447095028744192e+18
14038.0	1.544373698507571e+18
14039.0	1.5440353792360443e+18
14040.0	1.5436918254731264e+18
14041.0	1.5433587339821053e+18
14042.0	1.543020065744486e+18
14043.0	1.5426702054260733e+18
14044.0	1.542330342650675e+18
14045.0	1.541989785298534e+18
14046.0	1.5416531622035453e+18
14047.0	1.541315099623424e+18
14048.0	1.5409822765678592e+18
14049.0	1.5406471651000315e+18
14050.0	1.540311404353945e+18
14051.0	1.5399722562879485e+18
14052.0	1.539638585982976e+18
14053.0	1.5393045096693757e+18
14054.0	1.5389691834531837e+18
14055.0	1.53863332036608e+18
14056.0	1.5382985729638397e+18
14057.0	1.537962974956748e+18
14058.0	1.5376249358647293e+18
14059.0	1.537289936804249e+18
14060.0	1.5369550199521277e+18
14061.0	1.536617321437593e+18
14062.0	1.5362854328729597e+18
14063.0	1.5359446725165053e+18
14064.0	1.535576808567603e+18
14065.0	1.5352782949187581e+18
14066.0	1.5349464633966592e+18
14067.0	1.5346084545036285e+18
14068.0	1.534278755365683e+18
14069.0	1.533943798248243e+18
14070.0	1.5336104785870848e+18
14071.0	1.533275419128627e+18
14072.0	1.5329426531155965e+18
14073.0	1.532608858659225e+18
14074.0	1.5322751682215933e+18
14075.0	1.5319347903856637e+18
14076.0	1.531602453869363e+18
14077.0	1.5312187320958976e+18
14078.0	1.530934123403673e+18
14079.0	1.5306005822832637e+18
14080.0	1.5302712757321725e+18
14081.0	1.5299380701560835e+18
14082.0	1.5295997290741752e+18
14083.0	1.5292715482742781e+18
14084.0	1.5289392587341821e+18
14085.0	1.5284861984047101e+18
14086.0	1.5282698763370493e+18
14087.0	1.527941175443456e+18
14088.0	1.527604012122112e+18
14089.0	1.5272716068192253e+18
14090.0	1.526942124107366e+18
14091.0	1.526611571009126e+18
14092.0	1.5262793821323264e+18
14093.0	1.525947198288691e+18
14094.0	1.5256152442929147e+18
14095.0	1.525283328884736e+18
14096.0	1.5249408387973115e+18
14097.0	1.5246120640839675e+18
14098.0	1.5242831132098557e+18
14099.0	1.523956385316864e+18
14100.0	1.5236169973366781e+18
14101.0	1.5232901419368448e+18
14102.0	1.5229579916476413e+18
14103.0	1.5226215833010173e+18
14104.0	1.5222952446394363e+18
14105.0	1.5219645137027072e+18
14106.0	1.5216341971632123e+18
14107.0	1.5213009295114237e+18
14108.0	1.5209680997449725e+18
14109.0	1.5206397813719037e+18
14110.0	1.5203051044339707e+18
14111.0	1.5199663858647035e+18
14112.0	1.5196469845819392e+18
14113.0	1.5193178273480701e+18
14114.0	1.5189841067114493e+18
14115.0	1.5186583552524285e+18
14116.0	1.5183042184216576e+18
14117.0	1.5176256471433216e+18
14118.0	1.51766830153728e+18
14119.0	1.5173316566319101e+18
14120.0	1.5170035093864443e+18
14121.0	1.5166727784497147e+18
14122.0	1.5163396685037565e+18
14123.0	1.5160111471263744e+18
14124.0	1.5156792367513597e+18
14125.0	1.5151766752460795e+18
14126.0	1.515026249049702e+18
14127.0	1.5146991923232765e+18
14128.0	1.5143694831190013e+18
14129.0	1.5140366751629307e+18
14130.0	1.5137036977569787e+18
14131.0	1.5133830448939003e+18
14132.0	1.5130521814171643e+18
14133.0	1.512513753579519e+18
14134.0	1.512396655322726e+18
14135.0	1.512062667928371e+18
14136.0	1.5117178189643773e+18
14137.0	1.5114110727356413e+18
14138.0	1.511077870514995e+18
14139.0	1.5107545634963456e+18
14140.0	1.5104163146891264e+18
14141.0	1.5100982102851581e+18
14142.0	1.5097364901527547e+18
14143.0	1.5094323896909821e+18
14144.0	1.509114818802483e+18
14145.0	1.5087864568086525e+18
14146.0	1.50845817702318e+18
14147.0	1.5081312897466365e+18
14148.0	1.5078027918573565e+18
14149.0	1.507474686554931e+18
14150.0	1.507149560886067e+18
14151.0	1.5068183132110843e+18
14152.0	1.5064925802070013e+18
14153.0	1.5061648188375037e+18
14154.0	1.5058283417042941e+18
14155.0	1.5053656629968893e+18
14156.0	1.5051797345337344e+18
14157.0	1.5048573116743675e+18
14158.0	1.5045285956812795e+18
14159.0	1.504203590808371e+18
14160.0	1.503877248791347e+18
14161.0	1.503526026162995e+18
14162.0	1.503183653516083e+18
14163.0	1.502897992892416e+18
14164.0	1.502557108384563e+18
14165.0	1.5021400502829053e+18
14166.0	1.5019197671145467e+18
14167.0	1.5015890898649083e+18
14168.0	1.5012654355578877e+18
14169.0	1.500942888547123e+18
14170.0	1.5006149946376184e+18
14171.0	1.500290048484966e+18
14172.0	1.4999661005766653e+18
14173.0	1.4995898496974843e+18
14174.0	1.4993139097927675e+18
14175.0	1.4989900927467515e+18
14176.0	1.4986640527196152e+18
14177.0	1.498339559551795e+18
14178.0	1.4980137359507453e+18
14179.0	1.497678990226227e+18
14180.0	1.4973650448941056e+18
14181.0	1.4970402765799421e+18
14182.0	1.4967152784179197e+18
14183.0	1.4963909949652992e+18
14184.0	1.496061473665843e+18
14185.0	1.4957387823710205e+18
14186.0	1.4953416874786813e+18
14187.0	1.495080711172915e+18
14188.0	1.4947643952201725e+18
14189.0	1.4944401285447677e+18
14190.0	1.4940994722070523e+18
14191.0	1.4937452112248832e+18
14192.0	1.4934182719389693e+18
14193.0	1.4930872977326075e+18
14194.0	1.4927737802194941e+18
14195.0	1.4924511593889787e+18
14196.0	1.492127510115123e+18
14197.0	1.4918034212782075e+18
14198.0	1.4914785221017597e+18
14199.0	1.491154892960563e+18
14200.0	1.4907916008030205e+18
14201.0	1.490510871003136e+18
14202.0	1.490187434799923e+18
14203.0	1.489853137027072e+18
14204.0	1.489541238515302e+18
14205.0	1.4892185556090877e+18
14206.0	1.488848165011456e+18
14207.0	1.4885742366949373e+18
14208.0	1.4882518490677245e+18
14209.0	1.4878731805917184e+18
14210.0	1.4875753195765752e+18
14211.0	1.4872819582107648e+18
14212.0	1.486962105620889e+18
14213.0	1.4866392985632763e+18
14214.0	1.4863179662229501e+18
14215.0	1.485990807155507e+18
14216.0	1.4856745381789693e+18
14217.0	1.4853526689677307e+18
14218.0	1.4850265601540093e+18
14219.0	1.4847093365538813e+18
14220.0	1.484385323214438e+18
14221.0	1.484061888688947e+18
14222.0	1.4837311208423421e+18
14223.0	1.4834200142151677e+18
14224.0	1.483099176802713e+18
14225.0	1.482651434850713e+18
14226.0	1.4824569365856253e+18
14227.0	1.4821359817326592e+18
14228.0	1.4814665053831163e+18
14229.0	1.4814594153316347e+18
14230.0	1.4811734812393467e+18
14231.0	1.480845260174131e+18
14232.0	1.4805322057121792e+18
14233.0	1.4802088131297277e+18
14234.0	1.4798912741179387e+18
14235.0	1.4795698411143163e+18
14236.0	1.4792504448647163e+18
14237.0	1.478929917830758e+18
14238.0	1.4786101826813947e+18
14239.0	1.4782874729316347e+18
14240.0	1.477343789763789e+18
14241.0	1.4776494790279165e+18
14242.0	1.4773304535547901e+18
14243.0	1.476950832132915e+18
14244.0	1.4766914278522877e+18
14245.0	1.4763638342549504e+18
14246.0	1.4760388629364739e+18
14247.0	1.4757311134302205e+18
14248.0	1.4754072242421757e+18
14249.0	1.475092661508505e+18
14250.0	1.474774399398707e+18
14251.0	1.474456311771955e+18
14252.0	1.4741372946874365e+18
14253.0	1.4738181433851901e+18
14254.0	1.473498581041152e+18
14255.0	1.4731678433935357e+18
14256.0	1.472743168435814e+18
14257.0	1.4725404476571645e+18
14258.0	1.4722251064606715e+18
14259.0	1.471899329835827e+18
14260.0	1.471582480367616e+18
14261.0	1.4712593092444152e+18
14262.0	1.4709563898986493e+18
14263.0	1.4704612908990467e+18
14264.0	1.470294147884646e+18
14265.0	1.4699992329486336e+18
14266.0	1.469683517620224e+18
14267.0	1.4693665154793467e+18
14268.0	1.4690488925814781e+18
14269.0	1.4687278018330621e+18
14270.0	1.4684137088614397e+18
14271.0	1.4680939804229632e+18
14272.0	1.4677787717664763e+18
14273.0	1.4674613317402621e+18
14274.0	1.466886616462131e+18
14275.0	1.4668043107958781e+18
14276.0	1.466497494102835e+18
14277.0	1.4661831964491776e+18
14278.0	1.4658760123351037e+18
14279.0	1.465559099113472e+18
14280.0	1.4652392263909373e+18
14281.0	1.4649256971337728e+18
14282.0	1.4646092134088701e+18
14283.0	1.4642926877409277e+18
14284.0	1.4639762342150141e+18
14285.0	1.463659846120243e+18
14286.0	1.4633429312208893e+18
14287.0	1.463027381986918e+18
14288.0	1.4627111851524093e+18
14289.0	1.461996193893579e+18
14290.0	1.4620769979990013e+18
14291.0	1.4617629083828221e+18
14292.0	1.4614466326953984e+18
14293.0	1.4611308687130621e+18
14294.0	1.460762298443366e+18
14295.0	1.4604955641970685e+18
14296.0	1.4598625833254912e+18
14297.0	1.4598696247230464e+18
14298.0	1.4594703185936381e+18
14299.0	1.4592322280882173e+18
14300.0	1.458919936989593e+18
14301.0	1.4586061762068475e+18
14302.0	1.4582916789043197e+18
14303.0	1.457965284877926e+18
14304.0	1.4576568793825283e+18
14305.0	1.4573475796615165e+18
14306.0	1.4570082202025981e+18
14307.0	1.4567134512283645e+18
14308.0	1.456405050766131e+18
14309.0	1.456088330482483e+18
14310.0	1.455664395399987e+18
14311.0	1.4553876485111808e+18
14312.0	1.4551284640120832e+18
14313.0	1.4547852759924736e+18
14314.0	1.4545144967593981e+18
14315.0	1.4542017493204992e+18
14316.0	1.4538681343803387e+18
14317.0	1.4535629266223104e+18
14318.0	1.4532606548770813e+18
14319.0	1.4529471306530813e+18
14320.0	1.4526333027614715e+18
14321.0	1.4523188306247675e+18
14322.0	1.4519880074133504e+18
14323.0	1.4516881868193787e+18
14324.0	1.4513793971257341e+18
14325.0	1.451063000642355e+18
14326.0	1.4507534257750013e+18
14327.0	1.4504378077544445e+18
14328.0	1.4501247532924925e+18
14329.0	1.4498144033177597e+18
14330.0	1.4495015518601213e+18
14331.0	1.4491886047723515e+18
14332.0	1.4488760620154875e+18
14333.0	1.448563462216089e+18
14334.0	1.4482509177815035e+18
14335.0	1.4478670013923328e+18
14336.0	1.4475345910562816e+18
14337.0	1.4472384731938813e+18
14338.0	1.4469264287203328e+18
14339.0	1.4466110623580157e+18
14340.0	1.4463033329844221e+18
14341.0	1.445989662798643e+18
14342.0	1.4456784236314621e+18
14343.0	1.4453626764263421e+18
14344.0	1.4450520395612157e+18
14345.0	1.4447443420643325e+18
14346.0	1.444431755686707e+18
14347.0	1.4441118829641725e+18
14348.0	1.4438097135599613e+18
14349.0	1.4434984509046781e+18
14350.0	1.443177343379046e+18
14351.0	1.4428635104542715e+18
14352.0	1.442560940074598e+18
14353.0	1.442253108359987e+18
14354.0	1.4419411863601147e+18
14355.0	1.4416282510163965e+18
14356.0	1.441318790234112e+18
14357.0	1.441010336084787e+18
14358.0	1.440699672376115e+18
14359.0	1.4403834570866685e+18
14360.0	1.4400774691880955e+18
14361.0	1.4397679429746683e+18
14362.0	1.4394577859379197e+18
14363.0	1.4391473336221693e+18
14364.0	1.4388034074050557e+18
14365.0	1.4385211022245885e+18
14366.0	1.438207546123878e+18
14367.0	1.437904054675046e+18
14368.0	1.4375939429367808e+18
14369.0	1.4372843110268925e+18
14370.0	1.4369745700651008e+18
14371.0	1.4366649230557181e+18
14372.0	1.4363529322692603e+18
14373.0	1.4360454444875768e+18
14374.0	1.4357362387189757e+18
14375.0	1.4354260665827325e+18
14376.0	1.4351176359215101e+18
14377.0	1.4348081382293501e+18
14378.0	1.4344981942632445e+18
14379.0	1.434190162899763e+18
14380.0	1.4338810896711677e+18
14381.0	1.4335674513620992e+18
14382.0	1.433262785508147e+18
14383.0	1.4329472480182272e+18
14384.0	1.4326383509503997e+18
14385.0	1.4323372586434557e+18
14386.0	1.4320220483092477e+18
14387.0	1.4317201020420093e+18
14388.0	1.4314101547204603e+18
14389.0	1.431103431979827e+18
14390.0	1.4307942413107197e+18
14391.0	1.4304868760027136e+18
14392.0	1.430175291224883e+18
14393.0	1.4298709491711997e+18
14394.0	1.4295484961128445e+18
14395.0	1.4292483382968315e+18
14396.0	1.4289471553929213e+18
14397.0	1.4286396088909821e+18
14398.0	1.4283304215773181e+18
14399.0	1.4280243195936765e+18
14400.0	1.4277076714520573e+18
14401.0	1.4274071143383037e+18
14402.0	1.4271010475868157e+18
14403.0	1.424991107992777e+18
14404.0	1.4210760506867697e+18
14405.0	1.4256299726340063e+18
14406.0	1.4258732724649981e+18
14407.0	1.42272511176868e+18
14408.0	1.4252516145364992e+18
14409.0	1.4249447324123136e+18
14410.0	1.4246430243815421e+18
14411.0	1.4243385380438013e+18
14412.0	1.424031181124403e+18
14413.0	1.4237259834327035e+18
14414.0	1.4234186818781181e+18
14415.0	1.4231127610884093e+18
14416.0	1.4228057464242173e+18
14417.0	1.422492005774131e+18
14418.0	1.4221786040238077e+18
14419.0	1.421887715619635e+18
14420.0	1.4215802748141565e+18
14421.0	1.4212760871108603e+18
14422.0	1.4209690221150208e+18
14423.0	1.4206619537637373e+18
14424.0	1.4091065405472678e+18
14425.0	1.420051704342118e+18
14426.0	1.4197476038803453e+18
14427.0	1.4194420068909053e+18
14428.0	1.419126521410355e+18
14429.0	1.418828558054195e+18
14430.0	1.4185233804951547e+18
14431.0	1.418162544522035e+18
14432.0	1.4179049941237757e+18
14433.0	1.415477629603019e+18
14434.0	1.4172970633134075e+18
14435.0	1.4169868710445053e+18
14436.0	1.4166931019923453e+18
14437.0	1.4163884025839613e+18
14438.0	1.4160269089439741e+18
14439.0	1.4157668352524285e+18
14440.0	1.4154741399420925e+18
14441.0	1.4151667612123136e+18
14442.0	1.4148591157247997e+18
14443.0	1.4145392413245437e+18
14444.0	1.4142549866315773e+18
14445.0	1.4139526897205248e+18
14446.0	1.4112640670367754e+18
14447.0	1.4133412642160635e+18
14448.0	1.4130406903250944e+18
14449.0	1.4127368062894077e+18
14450.0	1.4124305751212032e+18
14451.0	1.4121278654906365e+18
14452.0	1.411824691131187e+18
14453.0	1.4114859524292608e+18
14454.0	1.4112179951239163e+18
14455.0	1.4109112790941693e+18
14456.0	1.410603482611712e+18
14457.0	1.4102954193715197e+18
14458.0	1.4100026535968765e+18
14459.0	1.4096978552029181e+18
14460.0	1.4093976940314621e+18
14461.0	1.4090872165498877e+18
14462.0	1.4087331132735485e+18
14463.0	1.4084876475039741e+18
14464.0	1.4081866055286781e+18
14465.0	1.4078742456434685e+18
14466.0	1.4075798742892544e+18
14467.0	1.4072484630364157e+18
14468.0	1.406972762207027e+18
14469.0	1.4066634104766461e+18
14470.0	1.4063578663354365e+18
14471.0	1.406062069756723e+18
14472.0	1.405762692081254e+18
14473.0	1.4054607919513597e+18
14474.0	1.4051104341884928e+18
14475.0	1.4048061206560765e+18
14476.0	1.4043668394541053e+18
14477.0	1.4042046994055165e+18
14478.0	1.403901502396825e+18
14479.0	1.4035981023838205e+18
14480.0	1.4032927738298368e+18
14481.0	1.4029982338646013e+18
14482.0	1.4026954453811197e+18
14483.0	1.40239079211008e+18
14484.0	1.4020921157222397e+18
14485.0	1.4017747604209661e+18
14486.0	1.4013705134014461e+18
14487.0	1.4011899460976637e+18
14488.0	1.400879227024179e+18
14489.0	1.400582555513651e+18
14490.0	1.400283845571379e+18
14491.0	1.3999857538695165e+18
14492.0	1.399684953486131e+18
14493.0	1.3993815928995837e+18
14494.0	1.39907557228544e+18
14495.0	1.3987834364952573e+18
14496.0	1.398428080799744e+18
14497.0	1.3981821645619197e+18
14498.0	1.397881444709171e+18
14499.0	1.3975816601862144e+18
14500.0	1.3972812641337344e+18
14501.0	1.3969230705721341e+18
14502.0	1.3965347912679421e+18
14503.0	1.396370828374835e+18
14504.0	1.3960784795140093e+18
14505.0	1.3957307457077245e+18
14506.0	1.3953569585627133e+18
14507.0	1.3950793208037373e+18
14508.0	1.3948788330725373e+18
14509.0	1.3945791676678141e+18
14510.0	1.3942781894459392e+18
14511.0	1.3939800675450877e+18
14512.0	1.3936742088310781e+18
14513.0	1.3933811997868032e+18
14514.0	1.3930599404273661e+18
14515.0	1.392781279258214e+18
14516.0	1.391487953875764e+18
14517.0	1.3921841890459645e+18
14518.0	1.3918851368484861e+18
14519.0	1.3915861978972157e+18
14520.0	1.3912868479041536e+18
14521.0	1.390986248008499e+18
14522.0	1.3906888852766717e+18
14523.0	1.3902614664052733e+18
14524.0	1.3899572392755195e+18
14525.0	1.3897912966709245e+18
14526.0	1.389494019502899e+18
14527.0	1.3891901665050621e+18
14528.0	1.3888356253433853e+18
14529.0	1.388595696055091e+18
14530.0	1.3882933756559357e+18
14531.0	1.3880021282193405e+18
14532.0	1.3875014415679485e+18
14533.0	1.3874065026580477e+18
14534.0	1.38710884548608e+18
14535.0	1.3868062365188093e+18
14536.0	1.3865114222460925e+18
14537.0	1.3862091546951677e+18
14538.0	1.385917247075123e+18
14539.0	1.385619732509491e+18
14540.0	1.3853220803706877e+18
14541.0	1.3850157175013373e+18
14542.0	1.3847261964402685e+18
14543.0	1.3843449258180605e+18
14544.0	1.3841320489517053e+18
14545.0	1.3838312418574336e+18
14546.0	1.368935007623567e+18
14547.0	1.3703636865515392e+18
14548.0	1.3829378156789757e+18
14549.0	1.3825974235824128e+18
14550.0	1.3823458081243133e+18
14551.0	1.3820523561615355e+18
14552.0	1.3817546721460221e+18
14553.0	1.3814543734013947e+18
14554.0	1.381161947365376e+18
14555.0	1.3808649335996413e+18
14556.0	1.3805651432046592e+18
14557.0	1.3802721089945597e+18
14558.0	1.3799755255644157e+18
14559.0	1.3789412588519396e+18
14560.0	1.3793740455935997e+18
14561.0	1.3790835329990653e+18
14562.0	1.378779833512755e+18
14563.0	1.378493362549555e+18
14564.0	1.3781924682137597e+18
14565.0	1.377901802107699e+18
14566.0	1.3776057748422653e+18
14567.0	1.3773096594964477e+18
14568.0	1.3769998086438907e+18
14569.0	1.3767180109742077e+18
14570.0	1.3762130738151421e+18
14571.0	1.376125120099123e+18
14572.0	1.3758109843455997e+18
14573.0	1.3755149931511805e+18
14574.0	1.3752249041813501e+18
14575.0	1.3749429613887483e+18
14576.0	1.3746463838306301e+18
14577.0	1.374350606545715e+18
14578.0	1.3740567376691197e+18
14579.0	1.373762662432768e+18
14580.0	1.3734675411369981e+18
14581.0	1.3731688337113085e+18
14582.0	1.3728771198681085e+18
14583.0	1.3725822183538685e+18
14584.0	1.3722818516615165e+18
14585.0	1.3719922450366461e+18
14586.0	1.3716959300419581e+18
14587.0	1.3713998574780413e+18
14588.0	1.3711078483558397e+18
14589.0	1.3708240449699837e+18
14590.0	1.3705409068007421e+18
14591.0	1.370257024561971e+18
14592.0	1.3699716004970493e+18
14593.0	1.3696441704775677e+18
14594.0	1.3694079028166653e+18
14595.0	1.3691220702265344e+18
14596.0	1.3688050244648957e+18
14597.0	1.3685232192454653e+18
14598.0	1.368271184356966e+18
14599.0	1.3679913563324413e+18
14600.0	1.367707748401152e+18
14601.0	1.3674259012386813e+18
14602.0	1.3671372450430973e+18
14603.0	1.3668604654387195e+18
14604.0	1.366559418430259e+18
14605.0	1.3662868616511485e+18
14606.0	1.365980050830131e+18
14607.0	1.3657295317630973e+18
14608.0	1.3654467475931133e+18
14609.0	1.3651554397585405e+18
14610.0	1.364867130012467e+18
14611.0	1.3645994319151101e+18
14612.0	1.3643189202190333e+18
14613.0	1.3640368868294653e+18
14614.0	1.3637530289176573e+18
14615.0	1.363470238036787e+18
14616.0	1.363190435178086e+18
14617.0	1.362908238210662e+18
14618.0	1.3626205022453757e+18
14619.0	1.3623308855541757e+18
14620.0	1.3619822273232893e+18
14621.0	1.3617804058034173e+18
14622.0	1.3614972911222781e+18
14623.0	1.361216618364928e+18
14624.0	1.3609112394792957e+18
14625.0	1.3606516078673917e+18
14626.0	1.3603673103925245e+18
14627.0	1.3600812806701053e+18
14628.0	1.3598076811870205e+18
14629.0	1.3595259741143037e+18
14630.0	1.3592435590430717e+18
14631.0	1.3589617815060477e+18
14632.0	1.357711058508186e+18
14633.0	1.358317101042892e+18
14634.0	1.358114942300979e+18
14635.0	1.3577138259099635e+18
14636.0	1.3570555970060285e+18
14637.0	1.3572735951175675e+18
14638.0	1.3569900920438781e+18
14639.0	1.3567055798206461e+18
14640.0	1.3564275956121597e+18
14641.0	1.352518635985302e+18
14642.0	1.3558642989072381e+18
14643.0	1.3555846898253821e+18
14644.0	1.355298756571955e+18
14645.0	1.3550119534198781e+18
14646.0	1.3547319014195197e+18
14647.0	1.354398482772787e+18
