# Flux units: erg / (cm m2 s)
# Wavelength units: Angstrom
wave	flux
14000.0	2.385198211242393e+18
14001.0	2.3845588181188603e+18
14002.0	2.3841115694170107e+18
14003.0	2.3835510392750075e+18
14004.0	2.3829880613371904e+18
14005.0	2.3824281284640763e+18
14006.0	2.3818462493147126e+18
14007.0	2.3812759045013504e+18
14008.0	2.380463165826663e+18
14009.0	2.3801779783204864e+18
14010.0	2.3795766896099323e+18
14011.0	2.3776225969307653e+18
14012.0	2.3784881704140795e+18
14013.0	2.377934190097203e+18
14014.0	2.377353183363072e+18
14015.0	2.3768062310219776e+18
14016.0	2.376252425188147e+18
14017.0	2.3756881000398843e+18
14018.0	2.3751289322078203e+18
14019.0	2.3745258365911035e+18
14020.0	2.3739336008663035e+18
14021.0	2.3733745924177915e+18
14022.0	2.3728091079639035e+18
14023.0	2.372185597830758e+18
14024.0	2.3716418700705787e+18
14025.0	2.371135181370162e+18
14026.0	2.370574668005375e+18
14027.0	2.370017345667072e+18
14028.0	2.369442848492748e+18
14029.0	2.368890410002022e+18
14030.0	2.3657771241046036e+18
14031.0	2.367709914752614e+18
14032.0	2.367217901083033e+18
14033.0	2.366525364450099e+18
14034.0	2.366103605372518e+18
14035.0	2.365540922713702e+18
14036.0	2.3649876654948347e+18
14037.0	2.3643696264118267e+18
14038.0	2.363809916675686e+18
14039.0	2.3632396909805563e+18
14040.0	2.3626649538920443e+18
14041.0	2.362127489066598e+18
14042.0	2.361553902895104e+18
14043.0	2.360925700174643e+18
14044.0	2.3604437125693435e+18
14045.0	2.359899845558271e+18
14046.0	2.359337624272896e+18
14047.0	2.358768116642611e+18
14048.0	2.3582370892349435e+18
14049.0	2.3576875934679035e+18
14050.0	2.357129402069811e+18
14051.0	2.3565408824983547e+18
14052.0	2.3560066707750907e+18
14053.0	2.3554632601042944e+18
14054.0	2.354911214200422e+18
14055.0	2.3543534405550075e+18
14056.0	2.3537853841539067e+18
14057.0	2.353170271017369e+18
14058.0	2.3526222835220475e+18
14059.0	2.3520636911484923e+18
14060.0	2.3515134555062267e+18
14061.0	2.3509433405407227e+18
14062.0	2.3504053036122107e+18
14063.0	2.3498065449058304e+18
14064.0	2.3489682830524416e+18
14065.0	2.348723612522905e+18
14066.0	2.348183461665177e+18
14067.0	2.347565836979405e+18
14068.0	2.347084508718694e+18
14069.0	2.3465235792789494e+18
14070.0	2.345976836653056e+18
14071.0	2.3454194220400635e+18
14072.0	2.34487072990167e+18
14073.0	2.344321222390578e+18
14074.0	2.343766562596454e+18
14075.0	2.3431634703351803e+18
14076.0	2.342589553652531e+18
14077.0	2.3414924998868987e+18
14078.0	2.341507711788646e+18
14079.0	2.3409316476223483e+18
14080.0	2.340390676358758e+18
14081.0	2.339839427372646e+18
14082.0	2.339242842993459e+18
14083.0	2.338728815938765e+18
14084.0	2.338185472376832e+18
14085.0	2.336613678763213e+18
14086.0	2.337026730465689e+18
14087.0	2.336534710085222e+18
14088.0	2.3359466451763195e+18
14089.0	2.335368780814745e+18
14090.0	2.334869834799513e+18
14091.0	2.334334752338739e+18
14092.0	2.3337807787327483e+18
14093.0	2.33323599233024e+18
14094.0	2.332686377444966e+18
14095.0	2.332136260920934e+18
14096.0	2.331454788861952e+18
14097.0	2.3309405453811707e+18
14098.0	2.3304232685797366e+18
14099.0	2.329940760880742e+18
14100.0	2.3293535717425147e+18
14101.0	2.328846076058009e+18
14102.0	2.3282916930879483e+18
14103.0	2.327718319987097e+18
14104.0	2.3271393147748347e+18
14105.0	2.326580086544793e+18
14106.0	2.3260392679538683e+18
14107.0	2.3254720504135675e+18
14108.0	2.324898095143321e+18
14109.0	2.3243828903280635e+18
14110.0	2.323795947814912e+18
14111.0	2.323188345837977e+18
14112.0	2.3227265731002363e+18
14113.0	2.3221624375345147e+18
14114.0	2.3216154046627835e+18
14115.0	2.321101384318976e+18
14116.0	2.3203221665218555e+18
14117.0	2.315906579431425e+18
14118.0	2.3194696943665147e+18
14119.0	2.3188375406116854e+18
14120.0	2.318314255889203e+18
14121.0	2.3177717159559163e+18
14122.0	2.3172318922539003e+18
14123.0	2.316617565968793e+18
14124.0	2.316068152410112e+18
14125.0	2.314410516493106e+18
14126.0	2.3150808669356027e+18
14127.0	2.3145682692997115e+18
14128.0	2.3140239308488704e+18
14129.0	2.313449369921126e+18
14130.0	2.3128693245214715e+18
14131.0	2.3123607265738747e+18
14132.0	2.311767593268019e+18
14133.0	2.3097934417493975e+18
14134.0	2.3106963395051515e+18
14135.0	2.310089173735833e+18
14136.0	2.3093566418976763e+18
14137.0	2.3090560948502523e+18
14138.0	2.3084658807799803e+18
14139.0	2.307979933751705e+18
14140.0	2.30735414862807e+18
14141.0	2.306861530978713e+18
14142.0	2.3059451493744645e+18
14143.0	2.305721712089497e+18
14144.0	2.3052696533598205e+18
14145.0	2.3047259826421757e+18
14146.0	2.3041747370115067e+18
14147.0	2.303637956696473e+18
14148.0	2.3030806444244987e+18
14149.0	2.302528923998617e+18
14150.0	2.302020418325708e+18
14151.0	2.3014232115118075e+18
14152.0	2.3009332077527037e+18
14153.0	2.3003976739848187e+18
14154.0	2.299781339466956e+18
14155.0	2.29899205869568e+18
14156.0	2.2987474921848827e+18
14157.0	2.2982311700070395e+18
14158.0	2.2976774665142267e+18
14159.0	2.2971544921702392e+18
14160.0	2.2966066556698621e+18
14161.0	2.2958948386603005e+18
14162.0	2.2952431595814902e+18
14163.0	2.2949254846742523e+18
14164.0	2.2941916056256504e+18
14165.0	2.2929731838017536e+18
14166.0	2.2932662532440061e+18
14167.0	2.2927101405429755e+18
14168.0	2.2921805123551227e+18
14169.0	2.291671802000179e+18
14170.0	2.2911169694007293e+18
14171.0	2.290576969537945e+18
14172.0	2.2900607916441595e+18
14173.0	2.2891200948207613e+18
14174.0	2.288967608382259e+18
14175.0	2.2884469593604088e+18
14176.0	2.2879026326536184e+18
14177.0	2.2873669663457277e+18
14178.0	2.2868228778754043e+18
14179.0	2.2862133700067323e+18
14180.0	2.2857599271567355e+18
14181.0	2.2852200866775037e+18
14182.0	2.284683329850572e+18
14183.0	2.2841474487943168e+18
14184.0	2.2835960320360445e+18
14185.0	2.283069866665574e+18
14186.0	2.2816630803267584e+18
14187.0	2.281933138139545e+18
14188.0	2.2814526504173568e+18
14189.0	2.2809109644443643e+18
14190.0	2.2803861982937085e+18
14191.0	2.279848179820134e+18
14192.0	2.2792949326675968e+18
14193.0	2.2786467449274368e+18
14194.0	2.2782431606079483e+18
14195.0	2.2777184112345083e+18
14196.0	2.2771827935805437e+18
14197.0	2.2766439798669304e+18
14198.0	2.276100505442713e+18
14199.0	2.2755130025705472e+18
14200.0	2.2745043747995648e+18
14201.0	2.274435804640051e+18
14202.0	2.2739077350555643e+18
14203.0	2.273283560544665e+18
14204.0	2.2728302871445496e+18
14205.0	2.2723032644583421e+18
14206.0	2.2714367497732093e+18
14207.0	2.271243308472729e+18
14208.0	2.2707097711935485e+18
14209.0	2.2697980117123064e+18
14210.0	2.2694085890408438e+18
14211.0	2.269089499814297e+18
14212.0	2.2685746053775357e+18
14213.0	2.268030560527974e+18
14214.0	2.2675110439682043e+18
14215.0	2.2669462624796672e+18
14216.0	2.26644173300695e+18
14217.0	2.2659164702507003e+18
14218.0	2.2653485749108733e+18
14219.0	2.2648471173464061e+18
14220.0	2.2643172911874045e+18
14221.0	2.2637720652218365e+18
14222.0	2.2631211142742013e+18
14223.0	2.2627220413480957e+18
14224.0	2.2621939616972795e+18
14225.0	2.2603759943155717e+18
14226.0	2.2611284994293757e+18
14227.0	2.260597993793126e+18
14228.0	2.2573161522397192e+18
14229.0	2.2591482712031206e+18
14230.0	2.2590073979535355e+18
14231.0	2.258369070183219e+18
14232.0	2.2579498461429757e+18
14233.0	2.257395404452659e+18
14234.0	2.2568896955416568e+18
14235.0	2.2563539940016123e+18
14236.0	2.2558271474761723e+18
14237.0	2.255290660762419e+18
14238.0	2.2547681427587072e+18
14239.0	2.2542031079342077e+18
14240.0	2.250200740318414e+18
14241.0	2.2531077134352381e+18
14242.0	2.252586332926771e+18
14243.0	2.2516419031728123e+18
14244.0	2.2515369969188861e+18
14245.0	2.250952300874956e+18
14246.0	2.2503991795515387e+18
14247.0	2.249935818011443e+18
14248.0	2.2493899645779965e+18
14249.0	2.2488807425179643e+18
14250.0	2.2483608115609595e+18
14251.0	2.2478352937910267e+18
14252.0	2.2473097961537533e+18
14253.0	2.2467826207948795e+18
14254.0	2.2462503099301885e+18
14255.0	2.2456519958200315e+18
14256.0	2.2438528960954373e+18
14257.0	2.2446326708961277e+18
14258.0	2.2441479452491773e+18
14259.0	2.2435582479171584e+18
14260.0	2.2430525977264123e+18
14261.0	2.2425001944678395e+18
14262.0	2.242049778227609e+18
14263.0	2.2395420122546194e+18
14264.0	2.240665377728102e+18
14265.0	2.2404467471155195e+18
14266.0	2.2399434977443837e+18
14267.0	2.2394211693232123e+18
14268.0	2.2388918548692987e+18
14269.0	2.2383448538742784e+18
14270.0	2.2378462283038715e+18
14271.0	2.2373020492365821e+18
14272.0	2.2367936224165883e+18
14273.0	2.2362637073383421e+18
14274.0	2.2328186922598418e+18
14275.0	2.2349466421952512e+18
14276.0	2.2345905726291965e+18
14277.0	2.2341021610278904e+18
14278.0	2.2336472703041533e+18
14279.0	2.2331218062213117e+18
14280.0	2.2325784693702648e+18
14281.0	2.2320754414583803e+18
14282.0	2.231552408394137e+18
14283.0	2.231028657265049e+18
14284.0	2.2305048893587446e+18
14285.0	2.2299804319088632e+18
14286.0	2.229450503408844e+18
14287.0	2.228931057313382e+18
14288.0	2.228379652299161e+18
14289.0	2.2256087155605445e+18
14290.0	2.2272839776206848e+18
14291.0	2.2267778627010555e+18
14292.0	2.2262538347479032e+18
14293.0	2.2257322596237304e+18
14294.0	2.2248416276905984e+18
14295.0	2.2246444299714555e+18
14296.0	2.2223614535270415e+18
14297.0	2.2236465849171965e+18
14298.0	2.2223894194683901e+18
14299.0	2.2225436373155837e+18
14300.0	2.2220535748362232e+18
14301.0	2.2215376116908027e+18
14302.0	2.2210278728925181e+18
14303.0	2.2204101676761083e+18
14304.0	2.2199470309507064e+18
14305.0	2.219453009048371e+18
14306.0	2.2187017269936123e+18
14307.0	2.218314208536166e+18
14308.0	2.2178423476584443e+18
14309.0	2.217288645843353e+18
14310.0	2.2158309842747384e+18
14311.0	2.215894190758297e+18
14312.0	2.215541642729881e+18
14313.0	2.2150830694072315e+18
14314.0	2.2147039294914555e+18
14315.0	2.2142103437967357e+18
14316.0	2.2135637817688061e+18
14317.0	2.2130435488219133e+18
14318.0	2.2126713647398904e+18
14319.0	2.2121563092418555e+18
14320.0	2.2116372054016e+18
14321.0	2.2111047619969021e+18
14322.0	2.210476827711897e+18
14323.0	2.2100396453396475e+18
14324.0	2.2095627445862395e+18
14325.0	2.2090159398846461e+18
14326.0	2.208529652278886e+18
14327.0	2.2079898856194043e+18
14328.0	2.2074695738195965e+18
14329.0	2.20697547809751e+18
14330.0	2.2064550438240253e+18
14331.0	2.2059197818470392e+18
14332.0	2.2054184735997952e+18
14333.0	2.2049033040166912e+18
14334.0	2.2043867201142781e+18
14335.0	2.2038273526333437e+18
14336.0	2.2031769016467448e+18
14337.0	2.2028243485851643e+18
14338.0	2.2023088602349565e+18
14339.0	2.2017576028602363e+18
14340.0	2.201282230511206e+18
14341.0	2.2007494465290232e+18
14342.0	2.20023934198743e+18
14343.0	2.1996900223811581e+18
14344.0	2.1991235161948155e+18
14345.0	2.1986392301109243e+18
14346.0	2.1981143783964667e+18
14347.0	2.1975381783347195e+18
14348.0	2.1970839150788603e+18
14349.0	2.1965779545096184e+18
14350.0	2.1959480304467958e+18
14351.0	2.1954091982782461e+18
14352.0	2.1950080583991293e+18
14353.0	2.1945114410614781e+18
14354.0	2.1939816400683005e+18
14355.0	2.1934442993942523e+18
14356.0	2.1929414409322493e+18
14357.0	2.192455909978931e+18
14358.0	2.1919389318119421e+18
14359.0	2.1913764991336443e+18
14360.0	2.1909000933081083e+18
14361.0	2.190393023764889e+18
14362.0	2.1898790520750075e+18
14363.0	2.1893593107005432e+18
14364.0	2.1884254807916544e+18
14365.0	2.1882519641128955e+18
14366.0	2.187734866827673e+18
14367.0	2.1872809223389181e+18
14368.0	2.1867661554089981e+18
14369.0	2.1862577017454587e+18
14370.0	2.1857443407462395e+18
14371.0	2.1852313287131133e+18
14372.0	2.1846985732521981e+18
14373.0	2.1842023401127933e+18
14374.0	2.1836885194178555e+18
14375.0	2.1831713801895933e+18
14376.0	2.1826608058859517e+18
14377.0	2.182149996701286e+18
14378.0	2.1816315656273917e+18
14379.0	2.1811257845743616e+18
14380.0	2.180611574648012e+18
14381.0	2.180063842166374e+18
14382.0	2.179582592758579e+18
14383.0	2.1790122060021755e+18
14384.0	2.178495402318233e+18
14385.0	2.1780507305967616e+18
14386.0	2.1774837412265981e+18
14387.0	2.1770211665379325e+18
14388.0	2.176501040965222e+18
14389.0	2.1760015933112315e+18
14390.0	2.1754850077310973e+18
14391.0	2.174972740606361e+18
14392.0	2.1744520915845115e+18
14393.0	2.17395623928791e+18
14394.0	2.173334960524492e+18
14395.0	2.1728414117396475e+18
14396.0	2.1724182366650365e+18
14397.0	2.1719110027051005e+18
14398.0	2.1713866777952248e+18
14399.0	2.170877088314163e+18
14400.0	2.1703031850532861e+18
14401.0	2.1698462173102075e+18
14402.0	2.1693398155001856e+18
14403.0	2.157246440852667e+18
14404.0	2.1382226163793859e+18
14405.0	2.1645497273941903e+18
14406.0	2.167301573338726e+18
14407.0	2.1491210271064146e+18
14408.0	2.1661067184701432e+18
14409.0	2.1656800117915645e+18
14410.0	2.1651866475560957e+18
14411.0	2.16470477906903e+18
14412.0	2.164187961963315e+18
14413.0	2.163686762767974e+18
14414.0	2.163173264195584e+18
14415.0	2.162666812053913e+18
14416.0	2.1621309041541117e+18
14417.0	2.1615426412740603e+18
14418.0	2.1610105350914045e+18
14419.0	2.160625588581171e+18
14420.0	2.1601029632032763e+18
14421.0	2.1596076159008765e+18
14422.0	2.15908051100631e+18
14423.0	2.1585174709927933e+18
14424.0	2.0967928132271803e+18
14425.0	2.1575197031137275e+18
14426.0	2.1570604083707901e+18
14427.0	2.1565569492844536e+18
14428.0	2.1559725099319293e+18
14429.0	2.155533334426419e+18
14430.0	2.155034353179033e+18
14431.0	2.1539179888377853e+18
14432.0	2.1539468221612027e+18
14433.0	2.1400909741293484e+18
14434.0	2.1529513007513592e+18
14435.0	2.1523790265581563e+18
14436.0	2.15198395835351e+18
14437.0	2.151474363839283e+18
14438.0	2.1504986244448256e+18
14439.0	2.150334643935641e+18
14440.0	2.1499518516199424e+18
14441.0	2.1494338047442936e+18
14442.0	2.1489159491289083e+18
14443.0	2.1483081777020925e+18
14444.0	2.1479110089900027e+18
14445.0	2.147413774250803e+18
14446.0	2.1322560461340733e+18
14447.0	2.1463534525218808e+18
14448.0	2.145896236476006e+18
14449.0	2.1453900661915645e+18
14450.0	2.1448647061274621e+18
14451.0	2.1443600810246144e+18
14452.0	2.1438460539699195e+18
14453.0	2.1430633515450365e+18
14454.0	2.14284877430784e+18
14455.0	2.1423199145164795e+18
14456.0	2.1417654661152763e+18
14457.0	2.141221260204441e+18
14458.0	2.1407763720568827e+18
14459.0	2.1402576876470264e+18
14460.0	2.1397655800250363e+18
14461.0	2.139125785926041e+18
14462.0	2.1384040753922043e+18
14463.0	2.1381949843046395e+18
14464.0	2.1377511447330816e+18
14465.0	2.137217922865561e+18
14466.0	2.1367515129053176e+18
14467.0	2.1360205228933117e+18
14468.0	2.1357238916481021e+18
14469.0	2.1351630444167163e+18
14470.0	2.1346663968800765e+18
14471.0	2.134204924454502e+18
14472.0	2.133712543363891e+18
14473.0	2.133231879480934e+18
14474.0	2.1327331230482427e+18
14475.0	2.1322074442170363e+18
14476.0	2.1308209700536325e+18
14477.0	2.131213879030579e+18
14478.0	2.1307022662172664e+18
14479.0	2.1301919536381947e+18
14480.0	2.129654898176819e+18
14481.0	2.1292009587212283e+18
14482.0	2.128686554179174e+18
14483.0	2.128159251313459e+18
14484.0	2.1276653804060667e+18
14485.0	2.12704010698752e+18
14486.0	2.1258068608155648e+18
14487.0	2.1261118689247227e+18
14488.0	2.1254534001065984e+18
14489.0	2.125045111455744e+18
14490.0	2.1245790856937467e+18
14491.0	2.124095301248614e+18
14492.0	2.1235957697085437e+18
14493.0	2.1230603466702845e+18
14494.0	2.1225254605029373e+18
14495.0	2.1220802854649848e+18
14496.0	2.1212045919649792e+18
14497.0	2.1210644099366904e+18
14498.0	2.1205618501091328e+18
14499.0	2.1200655632826365e+18
14500.0	2.1195606915547133e+18
14501.0	2.1185955184508925e+18
14502.0	2.1175519856820232e+18
14503.0	2.117949060441702e+18
14504.0	2.1175229996859387e+18
14505.0	2.1165968671637494e+18
14506.0	2.115568985859686e+18
14507.0	2.115362518728704e+18
14508.0	2.1155250245206016e+18
14509.0	2.1150197266513915e+18
14510.0	2.1145122930425853e+18
14511.0	2.1140148016119805e+18
14512.0	2.1134597475532795e+18
14513.0	2.1130061117652987e+18
14514.0	2.1123733271871488e+18
14515.0	2.1119908754489336e+18
14516.0	2.1061696831356972e+18
14517.0	2.1109861634801661e+18
14518.0	2.1104841791111163e+18
14519.0	2.1099759217410043e+18
14520.0	2.109474932260864e+18
14521.0	2.1089490470699003e+18
14522.0	2.1084205614104573e+18
14523.0	2.1068703919505395e+18
14524.0	2.1063625020014582e+18
14525.0	2.1069068823953403e+18
14526.0	2.1064133990416381e+18
14527.0	2.1058449617977336e+18
14528.0	2.1050517685796864e+18
14529.0	2.104877797238374e+18
14530.0	2.1043467379539965e+18
14531.0	2.1038913489469435e+18
14532.0	2.1019805498736637e+18
14533.0	2.102885720942182e+18
14534.0	2.1023884006391803e+18
14535.0	2.101849680877977e+18
14536.0	2.1013668963549181e+18
14537.0	2.1008323675422715e+18
14538.0	2.1003682795487227e+18
14539.0	2.0998642215157755e+18
14540.0	2.0993637336743933e+18
14541.0	2.09878584918016e+18
14542.0	2.0983399812431867e+18
14543.0	2.097178769725849e+18
14544.0	2.0973356115296253e+18
14545.0	2.096808174446182e+18
14546.0	2.0437212898262817e+18
14547.0	2.0480531233767135e+18
14548.0	2.0952794328465403e+18
14549.0	2.094486940916121e+18
14550.0	2.0942872232591357e+18
14551.0	2.093812929685094e+18
14552.0	2.0932987398914045e+18
14553.0	2.0927797585248248e+18
14554.0	2.092296541149593e+18
14555.0	2.0917895806582781e+18
14556.0	2.0912607946866683e+18
14557.0	2.090781642430873e+18
14558.0	2.090271163757363e+18
14559.0	2.0857290043162524e+18
14560.0	2.0891604634042363e+18
14561.0	2.088739647206195e+18
14562.0	2.0881728574849021e+18
14563.0	2.0877391362523136e+18
14564.0	2.087174888279244e+18
14565.0	2.0867365214355453e+18
14566.0	2.0861862774046715e+18
14567.0	2.085667067867955e+18
14568.0	2.0850289665900547e+18
14569.0	2.0846589350248443e+18
14570.0	2.082952836441702e+18
14571.0	2.0836421065506816e+18
14572.0	2.0829859026567165e+18
14573.0	2.0824903288619005e+18
14574.0	2.0819713307181053e+18
14575.0	2.0815966518640635e+18
14576.0	2.0810453340913661e+18
14577.0	2.0805427037995005e+18
14578.0	2.0800571426471936e+18
14579.0	2.079540476536422e+18
14580.0	2.0790189886537725e+18
14581.0	2.0784775895711736e+18
14582.0	2.0779965666557947e+18
14583.0	2.077499152400384e+18
14584.0	2.0769425632264187e+18
14585.0	2.0764838355533821e+18
14586.0	2.0759664077570045e+18
14587.0	2.075448115934003e+18
14588.0	2.0749511596965888e+18
14589.0	2.0744659256999936e+18
14590.0	2.073976264196096e+18
14591.0	2.0734667418238973e+18
14592.0	2.0729653933113344e+18
14593.0	2.0721748274053112e+18
14594.0	2.071996131599974e+18
14595.0	2.0714862602616827e+18
14596.0	2.0706458022707192e+18
14597.0	2.070170569172582e+18
14598.0	2.0699928649007101e+18
14599.0	2.0695348318044155e+18
14600.0	2.0690329933971453e+18
14601.0	2.068540023426252e+18
14602.0	2.068003979631001e+18
14603.0	2.0675433578102781e+18
14604.0	2.0669239950049277e+18
14605.0	2.0664936476704763e+18
14606.0	2.0658912348864512e+18
14607.0	2.0655647787843574e+18
14608.0	2.0650657925038075e+18
14609.0	2.064481863178649e+18
14610.0	2.063991847675494e+18
14611.0	2.0635573429469181e+18
14612.0	2.063091709771776e+18
14613.0	2.0626073481904125e+18
14614.0	2.0621043521552381e+18
14615.0	2.061600419951411e+18
14616.0	2.0611226769817597e+18
14617.0	2.060623220939161e+18
14618.0	2.060041777997414e+18
14619.0	2.0594213968150515e+18
14620.0	2.0582184066744317e+18
14621.0	2.0586373052366845e+18
14622.0	2.0581304990957568e+18
14623.0	2.0576399215558648e+18
14624.0	2.0569784529715197e+18
14625.0	2.056632802056601e+18
14626.0	2.0561101649346555e+18
14627.0	2.0555851387371515e+18
14628.0	2.0551450790723576e+18
14629.0	2.054643962085376e+18
14630.0	2.0541345974190075e+18
14631.0	2.0536323093823483e+18
14632.0	2.0472325413535775e+18
14633.0	2.0519296299958246e+18
14634.0	2.0521036785123325e+18
14635.0	2.0513029993005033e+18
14636.0	2.0500816397860856e+18
14637.0	2.050626281904537e+18
14638.0	2.0500961906655227e+18
14639.0	2.049578689049395e+18
14640.0	2.0490935372611581e+18
14641.0	2.0270150095732588e+18
14642.0	2.0480804450729976e+18
14643.0	2.0475922230542333e+18
14644.0	2.0470497804287997e+18
14645.0	2.046510310726041e+18
14646.0	2.04597690934231e+18
14647.0	2.045466970895155e+18
14648.0	2.0450389052620792e+18
