# Flux units: erg / (cm m2 s)
# Wavelength units: Angstrom
wave	flux
14000.0	1.6455259530461181e+18
14001.0	1.6450053392564221e+18
14002.0	1.6447652170301437e+18
14003.0	1.644426352499097e+18
14004.0	1.6440902947962877e+18
14005.0	1.6437541062311933e+18
14006.0	1.643412379507097e+18
14007.0	1.6430752866500603e+18
14008.0	1.6426763663966205e+18
14009.0	1.6424109021855741e+18
14010.0	1.642065388843827e+18
14011.0	1.641283639364813e+18
14012.0	1.6414027794087933e+18
14013.0	1.641067298842214e+18
14014.0	1.6407279276392443e+18
14015.0	1.640394661665177e+18
14016.0	1.640061123900211e+18
14017.0	1.63972585137111e+18
14018.0	1.639390437913395e+18
14019.0	1.6390555932033016e+18
14020.0	1.6387203156410365e+18
14021.0	1.6383573338619904e+18
14022.0	1.6380116040941563e+18
14023.0	1.6376625054613496e+18
14024.0	1.6373322946183165e+18
14025.0	1.6370095446032381e+18
14026.0	1.636675624317747e+18
14027.0	1.636343250891571e+18
14028.0	1.63600315491287e+18
14029.0	1.6356713301016576e+18
14030.0	1.634701395623936e+18
14031.0	1.6350035029524483e+18
14032.0	1.6346729330769915e+18
14033.0	1.63430375882752e+18
14034.0	1.6340039466221565e+18
14035.0	1.6336704440893437e+18
14036.0	1.633336731841331e+18
14037.0	1.633000846943846e+18
14038.0	1.632669585847091e+18
14039.0	1.6323333419171837e+18
14040.0	1.6319939858137085e+18
14041.0	1.6316678300237821e+18
14042.0	1.6313315575726075e+18
14043.0	1.6309713171906557e+18
14044.0	1.630663618016051e+18
14045.0	1.630337702140313e+18
14046.0	1.6300037483003901e+18
14047.0	1.6296662947332093e+18
14048.0	1.6293402630946813e+18
14049.0	1.6290087687946235e+18
14050.0	1.6286760413691901e+18
14051.0	1.6283352273256443e+18
14052.0	1.6280076236619776e+18
14053.0	1.6276782214807547e+18
14054.0	1.627346485588787e+18
14055.0	1.627013675954995e+18
14056.0	1.626680312673075e+18
14057.0	1.6263454125981693e+18
14058.0	1.6260134535692288e+18
14059.0	1.6256822730031104e+18
14060.0	1.6253506461630461e+18
14061.0	1.6250137529548797e+18
14062.0	1.624687275042406e+18
14063.0	1.6243456523370496e+18
14064.0	1.623910327202611e+18
14065.0	1.6236887085678587e+18
14066.0	1.6233614991687675e+18
14067.0	1.6230228057653248e+18
14068.0	1.6227010774827005e+18
14069.0	1.6223677477552125e+18
14070.0	1.6220386425307133e+18
14071.0	1.6217025529511933e+18
14072.0	1.621373269888204e+18
14073.0	1.6210424902975488e+18
14074.0	1.6207092612333565e+18
14075.0	1.6203644173025275e+18
14076.0	1.6200343926865915e+18
14077.0	1.6195690698899453e+18
14078.0	1.619374739397017e+18
14079.0	1.6190533516918781e+18
14080.0	1.618733104837427e+18
14081.0	1.6184028470181888e+18
14082.0	1.6180673177976824e+18
14083.0	1.6177418247077885e+18
14084.0	1.6174128939663357e+18
14085.0	1.616844624494592e+18
14086.0	1.616743373996032e+18
14087.0	1.6164256839892987e+18
14088.0	1.6160874133716987e+18
14089.0	1.615750236628582e+18
14090.0	1.6153892194615293e+18
14091.0	1.6150635183341565e+18
14092.0	1.6147340238782461e+18
14093.0	1.6144047022276603e+18
14094.0	1.614071417798656e+18
14095.0	1.6137419233427453e+18
14096.0	1.6133848672763901e+18
14097.0	1.6130678517137405e+18
14098.0	1.612742429088153e+18
14099.0	1.6124263530495997e+18
14100.0	1.612088860894822e+18
14101.0	1.611769531754086e+18
14102.0	1.6114393964085243e+18
14103.0	1.6111019193532413e+18
14104.0	1.6107828200603648e+18
14105.0	1.6104555754291197e+18
14106.0	1.6100586348871675e+18
14107.0	1.609723345580851e+18
14108.0	1.609387985810227e+18
14109.0	1.6090622662279168e+18
14110.0	1.6087313440309248e+18
14111.0	1.608393346881945e+18
14112.0	1.6080788781006843e+18
14113.0	1.607749932259737e+18
14114.0	1.6074198858334203e+18
14115.0	1.607098739720192e+18
14116.0	1.6067329796341757e+18
14117.0	1.605405291157914e+18
14118.0	1.6061137778900987e+18
14119.0	1.6057701972836347e+18
14120.0	1.605444449180057e+18
14121.0	1.6051230228873213e+18
14122.0	1.6047785145008123e+18
14123.0	1.6044609788444672e+18
14124.0	1.6041263253946363e+18
14125.0	1.603500449674035e+18
14126.0	1.6034945625489403e+18
14127.0	1.603172877887078e+18
14128.0	1.6028453094555648e+18
14129.0	1.6025127095369725e+18
14130.0	1.6021778312724477e+18
14131.0	1.6018646761471997e+18
14132.0	1.6015337472393213e+18
14133.0	1.600833149154097e+18
14134.0	1.6008848917659648e+18
14135.0	1.6005500722216957e+18
14136.0	1.600185607336755e+18
14137.0	1.5999072095698944e+18
14138.0	1.5995677645471741e+18
14139.0	1.5992575018139648e+18
14140.0	1.598921165609369e+18
14141.0	1.5986057573040125e+18
14142.0	1.598187966038016e+18
14143.0	1.5979421043261437e+18
14144.0	1.5976258538045435e+18
14145.0	1.5972991913426944e+18
14146.0	1.5969724533833725e+18
14147.0	1.5966489433604093e+18
14148.0	1.5963216316203003e+18
14149.0	1.5959952174612477e+18
14150.0	1.5956753111842813e+18
14151.0	1.5953416090025981e+18
14152.0	1.5950239391285243e+18
14153.0	1.594701247833702e+18
14154.0	1.5943606367944704e+18
14155.0	1.593783913283584e+18
14156.0	1.593733856781926e+18
14157.0	1.5935211116167163e+18
14158.0	1.5932581153341437e+18
14159.0	1.5929691747647485e+18
14160.0	1.5926740501135357e+18
14161.0	1.5922976213958653e+18
14162.0	1.5919500075466744e+18
14163.0	1.5916985271451643e+18
14164.0	1.5913380686594048e+18
14165.0	1.5909351671726075e+18
14166.0	1.5907277101858813e+18
14167.0	1.5903940348477437e+18
14168.0	1.5900723451527165e+18
14169.0	1.5897519993126912e+18
14170.0	1.589425501267558e+18
14171.0	1.589101689254707e+18
14172.0	1.5887843935125504e+18
14173.0	1.5884123772026877e+18
14174.0	1.5881487719071744e+18
14175.0	1.5878272298516477e+18
14176.0	1.5875031007494141e+18
14177.0	1.5871812818698235e+18
14178.0	1.586857867476992e+18
14179.0	1.5865231922167805e+18
14180.0	1.586213479776256e+18
14181.0	1.5858909428318203e+18
14182.0	1.5855678555947005e+18
14183.0	1.5852451995320312e+18
14184.0	1.584916743585792e+18
14185.0	1.5845984445661181e+18
14186.0	1.5840833269923837e+18
14187.0	1.5839374910423035e+18
14188.0	1.5836301156679675e+18
14189.0	1.583177696228147e+18
14190.0	1.5827807439421437e+18
14191.0	1.5824582455853053e+18
14192.0	1.582130435561881e+18
14193.0	1.5817853718495232e+18
14194.0	1.5814924164923384e+18
14195.0	1.5811732886781947e+18
14196.0	1.5808515889168381e+18
14197.0	1.5805287432716288e+18
14198.0	1.5802045822926843e+18
14199.0	1.5798838488989693e+18
14200.0	1.5794408918089728e+18
14201.0	1.5792443484012541e+18
14202.0	1.5789183536726013e+18
14203.0	1.5785851195752443e+18
14204.0	1.578276534563635e+18
14205.0	1.5779558951223293e+18
14206.0	1.5775509082275837e+18
14207.0	1.5773184565444603e+18
14208.0	1.576998152647475e+18
14209.0	1.5765710936473595e+18
14210.0	1.5763049768026104e+18
14211.0	1.5760306928091133e+18
14212.0	1.575715291214643e+18
14213.0	1.5753935193112576e+18
14214.0	1.5750750743298043e+18
14215.0	1.574744041403187e+18
14216.0	1.5744309097660416e+18
14217.0	1.574112546992947e+18
14218.0	1.573784824211046e+18
14219.0	1.573472935765606e+18
14220.0	1.5731522879356928e+18
14221.0	1.5728326349946877e+18
14222.0	1.5725003337105405e+18
14223.0	1.5722039927111677e+18
14224.0	1.5718850930671613e+18
14225.0	1.5712008427012096e+18
14226.0	1.5712479967444987e+18
14227.0	1.570926817076838e+18
14228.0	1.5695026344427525e+18
14229.0	1.5702619259404275e+18
14230.0	1.5699699335954432e+18
14231.0	1.569633278623744e+18
14232.0	1.569332448041369e+18
14233.0	1.569007701537587e+18
14234.0	1.5686949842976763e+18
14235.0	1.568374591481446e+18
14236.0	1.568057867842355e+18
14237.0	1.5677347738943485e+18
14238.0	1.567416635935948e+18
14239.0	1.5670922316873725e+18
14240.0	1.5656228847878157e+18
14241.0	1.5664593665785853e+18
14242.0	1.5661436747382781e+18
14243.0	1.5657179612708864e+18
14244.0	1.5655085228949504e+18
14245.0	1.5651779093987325e+18
14246.0	1.564849971868467e+18
14247.0	1.564553508395417e+18
14248.0	1.5642269482745856e+18
14249.0	1.56391784316928e+18
14250.0	1.5636027234320381e+18
14251.0	1.5632865517633533e+18
14252.0	1.5629659676868603e+18
14253.0	1.562647727387443e+18
14254.0	1.5623290643021821e+18
14255.0	1.5619897836961787e+18
14256.0	1.5613309357129728e+18
14257.0	1.5613826464481277e+18
14258.0	1.5610629918294016e+18
14259.0	1.5607331836395515e+18
14260.0	1.5604157369024507e+18
14261.0	1.5600991307038715e+18
14262.0	1.5598100005519363e+18
14263.0	1.5589461098233856e+18
14264.0	1.5591216766779392e+18
14265.0	1.558855239388365e+18
14266.0	1.5585426915983357e+18
14267.0	1.5582279157940221e+18
14268.0	1.5579098566885373e+18
14269.0	1.5575887239970816e+18
14270.0	1.5572797782753275e+18
14271.0	1.556960425646489e+18
14272.0	1.5566480254959613e+18
14273.0	1.556332238025523e+18
14274.0	1.5552508374024195e+18
14275.0	1.5556320610484221e+18
14276.0	1.5553693919215616e+18
14277.0	1.5550502590742525e+18
14278.0	1.5547284351614979e+18
14279.0	1.5544133187796987e+18
14280.0	1.5540914344689664e+18
14281.0	1.5537823914393595e+18
14282.0	1.553467531748966e+18
14283.0	1.553152458987929e+18
14284.0	1.5528374415917053e+18
14285.0	1.5525223570866168e+18
14286.0	1.552205804575129e+18
14287.0	1.5518927786344448e+18
14288.0	1.5515773485187067e+18
14289.0	1.55052248777359e+18
14290.0	1.5509464127897597e+18
14291.0	1.5506335680430077e+18
14292.0	1.5503154820939773e+18
14293.0	1.5500005167071232e+18
14294.0	1.5495906442870781e+18
14295.0	1.549363821359923e+18
14296.0	1.54845919051776e+18
14297.0	1.5486152454701053e+18
14298.0	1.548112860125593e+18
14299.0	1.547972678097305e+18
14300.0	1.5476647826292733e+18
14301.0	1.5473543219249147e+18
14302.0	1.547040088024678e+18
14303.0	1.546707003244544e+18
14304.0	1.5464098720382976e+18
14305.0	1.5461073922555904e+18
14306.0	1.5457626389217277e+18
14307.0	1.5454733443530755e+18
14308.0	1.5451682322251773e+18
14309.0	1.5448528390193147e+18
14310.0	1.544416077755187e+18
14311.0	1.5440478816174077e+18
14312.0	1.543889860375347e+18
14313.0	1.5435019409424381e+18
14314.0	1.543286283252531e+18
14315.0	1.5429773157203963e+18
14316.0	1.5426296431509501e+18
14317.0	1.5423338608328701e+18
14318.0	1.5420409742622715e+18
14319.0	1.5417278191370235e+18
14320.0	1.5414150666649597e+18
14321.0	1.5411009736933368e+18
14322.0	1.5407543429890048e+18
14323.0	1.540472557902233e+18
14324.0	1.540165799929446e+18
14325.0	1.539848427012096e+18
14326.0	1.5395405852311547e+18
14327.0	1.539222162060083e+18
14328.0	1.5389080204345341e+18
14329.0	1.5386029385056256e+18
14330.0	1.5382912379650043e+18
14331.0	1.5379769034014712e+18
14332.0	1.537667479529062e+18
14333.0	1.5373563242479613e+18
14334.0	1.537044965962547e+18
14335.0	1.5367194812612605e+18
14336.0	1.5363807794692093e+18
14337.0	1.5361078896623613e+18
14338.0	1.535796979328614e+18
14339.0	1.5354801986469888e+18
14340.0	1.535177131661721e+18
14341.0	1.5348589299499005e+18
14342.0	1.534549714114969e+18
14343.0	1.5342357033517053e+18
14344.0	1.5339247846293501e+18
14345.0	1.533619662435123e+18
14346.0	1.5333068948635643e+18
14347.0	1.5329748922138621e+18
14348.0	1.5326878189486075e+18
14349.0	1.5323776602341376e+18
14350.0	1.5320391111147515e+18
14351.0	1.531725504682393e+18
14352.0	1.5314413691076603e+18
14353.0	1.5311380001325053e+18
14354.0	1.530827757531955e+18
14355.0	1.5305106480168957e+18
14356.0	1.5302057959358464e+18
14357.0	1.529902586344243e+18
14358.0	1.5295930433535997e+18
14359.0	1.5292731404320765e+18
14360.0	1.5289702647070715e+18
14361.0	1.5286635201560573e+18
14362.0	1.528354398273536e+18
14363.0	1.5280447663636475e+18
14364.0	1.5276337514151936e+18
14365.0	1.527422435668787e+18
14366.0	1.5270988333711352e+18
14367.0	1.5268088794578941e+18
14368.0	1.5264987274543101e+18
14369.0	1.5261907816546304e+18
14370.0	1.5258818627764221e+18
14371.0	1.525573103281766e+18
14372.0	1.5252600286871555e+18
14373.0	1.524935715035545e+18
14374.0	1.5245953304887293e+18
14375.0	1.5242828212862973e+18
14376.0	1.5239774742773757e+18
14377.0	1.5236689026875387e+18
14378.0	1.5233590392520701e+18
14379.0	1.5230526738661373e+18
14380.0	1.5227448069193728e+18
14381.0	1.5224270816804864e+18
14382.0	1.5221232060334075e+18
14383.0	1.5218071450943483e+18
14384.0	1.5214950486114301e+18
14385.0	1.5211998400741376e+18
14386.0	1.5208791922442237e+18
14387.0	1.5205838041907197e+18
14388.0	1.5202727042744323e+18
14389.0	1.519968662532915e+18
14390.0	1.5196590155235325e+18
14391.0	1.5193534957092867e+18
14392.0	1.5190421038694397e+18
14393.0	1.5187386208092157e+18
14394.0	1.5184124029435901e+18
14395.0	1.5183349979021307e+18
14396.0	1.5180444987293693e+18
14397.0	1.517734522886553e+18
14398.0	1.5174261375238144e+18
14399.0	1.5171203643736064e+18
14400.0	1.5167967016779773e+18
14401.0	1.516502833640243e+18
14402.0	1.516197489986764e+18
14403.0	1.5139836960702413e+18
14404.0	1.5085420698140644e+18
14405.0	1.5143637838987185e+18
14406.0	1.5149715570032637e+18
14407.0	1.5114292340719634e+18
14408.0	1.5143535011430397e+18
14409.0	1.514039320929894e+18
14410.0	1.5137400506286075e+18
14411.0	1.513440387740467e+18
14412.0	1.5131327523192832e+18
14413.0	1.5128295142064125e+18
14414.0	1.5125216606814205e+18
14415.0	1.5122177128923136e+18
14416.0	1.511908837634867e+18
14417.0	1.5115895554703357e+18
14418.0	1.5112763684683776e+18
14419.0	1.5109943132684283e+18
14420.0	1.51068537257984e+18
14421.0	1.5103835370422272e+18
14422.0	1.5100761650233341e+18
14423.0	1.5097668971790336e+18
14424.0	1.4969759544115085e+18
14425.0	1.509160582014566e+18
14426.0	1.508857218072576e+18
14427.0	1.5085516965806075e+18
14428.0	1.5082282134011901e+18
14429.0	1.5079447354933243e+18
14430.0	1.5076484985126912e+18
14431.0	1.5071813335777283e+18
14432.0	1.5070304392970237e+18
14433.0	1.504355684660017e+18
14434.0	1.506420770367078e+18
14435.0	1.5060983156310013e+18
14436.0	1.5058206191517693e+18
14437.0	1.5055163928608765e+18
14438.0	1.5051383518527485e+18
14439.0	1.504894097398169e+18
14440.0	1.5046026603790336e+18
14441.0	1.5042938505527293e+18
14442.0	1.5039809605074941e+18
14443.0	1.5036489008152576e+18
14444.0	1.5033834147938304e+18
14445.0	1.5030825892446203e+18
14446.0	1.499904130573928e+18
14447.0	1.502471366744473e+18
14448.0	1.5021671068991485e+18
14449.0	1.5018634174791675e+18
14450.0	1.501555072381747e+18
14451.0	1.5012534331375616e+18
14452.0	1.5009509281890301e+18
14453.0	1.5006084901109757e+18
14454.0	1.500344255669862e+18
14455.0	1.5000354307440635e+18
14456.0	1.4997288875196413e+18
14457.0	1.4994198478454781e+18
14458.0	1.4991294023598075e+18
14459.0	1.4988241845354493e+18
14460.0	1.498523281811046e+18
14461.0	1.4981999043280893e+18
14462.0	1.4977562207846397e+18
14463.0	1.4976079252946944e+18
14464.0	1.4973089838268413e+18
14465.0	1.4969881782910976e+18
14466.0	1.496701393593958e+18
14467.0	1.4963612942598141e+18
14468.0	1.4960953468649472e+18
14469.0	1.495773915539046e+18
14470.0	1.4954679679057915e+18
14471.0	1.4951814113787901e+18
14472.0	1.4948837063917565e+18
14473.0	1.4945853001170941e+18
14474.0	1.4942854040256512e+18
14475.0	1.493981160957542e+18
14476.0	1.4935234751496195e+18
14477.0	1.4933787448180736e+18
14478.0	1.493075028554547e+18
14479.0	1.4927703157243904e+18
14480.0	1.4924609790935035e+18
14481.0	1.4921722817937403e+18
14482.0	1.4918686745821184e+18
14483.0	1.4913599843598336e+18
14484.0	1.491019723964416e+18
14485.0	1.4906831897886712e+18
14486.0	1.4902100169326592e+18
14487.0	1.4901161886744576e+18
14488.0	1.4897921233256448e+18
14489.0	1.4894975707774973e+18
14490.0	1.4892057948585981e+18
14491.0	1.4889104135159803e+18
14492.0	1.4886096013885435e+18
14493.0	1.488302774629171e+18
14494.0	1.4879943120912381e+18
14495.0	1.4877092520919035e+18
14496.0	1.4873077515026432e+18
14497.0	1.4871057840209915e+18
14498.0	1.4868049618272253e+18
14499.0	1.4865056814596093e+18
14500.0	1.4862051042131968e+18
14501.0	1.4858391562223613e+18
14502.0	1.4853728368590848e+18
14503.0	1.4852865684144123e+18
14504.0	1.484999142827622e+18
14505.0	1.4846510004961275e+18
14506.0	1.484263450161971e+18
14507.0	1.4839207839137792e+18
14508.0	1.4838025179627515e+18
14509.0	1.483502175597363e+18
14510.0	1.483200551452672e+18
14511.0	1.4829035242651645e+18
14512.0	1.482591835468595e+18
14513.0	1.4823036381298685e+18
14514.0	1.481972118663987e+18
14515.0	1.4817025004142592e+18
14516.0	1.479539816608565e+18
14517.0	1.4811047516962816e+18
14518.0	1.4808049495572477e+18
14519.0	1.4805047699308541e+18
14520.0	1.4802048167968763e+18
14521.0	1.4797973955280893e+18
14522.0	1.4794512312303613e+18
14523.0	1.4790020514709501e+18
14524.0	1.4787006370414587e+18
14525.0	1.4785468856008704e+18
14526.0	1.4782500916166653e+18
14527.0	1.4779533345423357e+18
14528.0	1.4775287082385405e+18
14529.0	1.4773481115746304e+18
14530.0	1.4770402312060925e+18
14531.0	1.476755599025766e+18
14532.0	1.4762395503165435e+18
14533.0	1.476160071611187e+18
14534.0	1.4758608717742075e+18
14535.0	1.4755541741993981e+18
14536.0	1.4752612490412032e+18
14537.0	1.474953504568115e+18
14538.0	1.4746672366092285e+18
14539.0	1.4743716556177403e+18
14540.0	1.474073715749683e+18
14541.0	1.4737591798595581e+18
14542.0	1.4734753714405376e+18
14543.0	1.4730823114686456e+18
14544.0	1.4728797618175997e+18
14545.0	1.4725766914768893e+18
14546.0	1.4559034640170867e+18
14547.0	1.4576656924540754e+18
14548.0	1.4716789158051835e+18
14549.0	1.471300539252736e+18
14550.0	1.4710862908489725e+18
14551.0	1.470794825308569e+18
14552.0	1.4704968082653181e+18
14553.0	1.4701907901677565e+18
14554.0	1.469901485532774e+18
14555.0	1.469603528887501e+18
14556.0	1.4693021866000384e+18
14557.0	1.469008578609152e+18
14558.0	1.4687108333567995e+18
14559.0	1.4670286456618941e+18
14560.0	1.4681031340720125e+18
14561.0	1.4678131348602877e+18
14562.0	1.4675011373629437e+18
14563.0	1.4672231053393915e+18
14564.0	1.4669110138896381e+18
14565.0	1.4666298613039101e+18
14566.0	1.4663327317753853e+18
14567.0	1.4660335654928381e+18
14568.0	1.4657753926598653e+18
14569.0	1.465700532722073e+18
14570.0	1.4649477658836992e+18
14571.0	1.4651042905980923e+18
14572.0	1.4647717930205184e+18
14573.0	1.464475604693811e+18
14574.0	1.464176992059392e+18
14575.0	1.4639178495033341e+18
14576.0	1.4636172588351485e+18
14577.0	1.4633202803015677e+18
14578.0	1.4630274893611005e+18
14579.0	1.4627338729816064e+18
14580.0	1.4624374229303293e+18
14581.0	1.4620941342474235e+18
14582.0	1.4617793131446267e+18
14583.0	1.4614874415955963e+18
14584.0	1.461179138441216e+18
14585.0	1.4608945784029181e+18
14586.0	1.460595135296307e+18
14587.0	1.4602983798996987e+18
14588.0	1.4600051829506045e+18
14589.0	1.4597185240825853e+18
14590.0	1.4594323349766141e+18
14591.0	1.4591409164124157e+18
14592.0	1.458853458948915e+18
14593.0	1.4584864623820797e+18
14594.0	1.4582857313812475e+18
14595.0	1.4579937340030976e+18
14596.0	1.4576196960387067e+18
14597.0	1.4573231033810941e+18
14598.0	1.4571342590377981e+18
14599.0	1.4568574869831675e+18
14600.0	1.4565689004130304e+18
14601.0	1.4562851842686976e+18
14602.0	1.4559857428398075e+18
14603.0	1.4557131416010747e+18
14604.0	1.4553908428931072e+18
14605.0	1.4551174044712957e+18
14606.0	1.4547877405655037e+18
14607.0	1.4545733831098365e+18
14608.0	1.454281877304115e+18
14609.0	1.4539868801597437e+18
14610.0	1.4536685878509565e+18
14611.0	1.453422509712998e+18
14612.0	1.4531403907596285e+18
14613.0	1.4528558642757624e+18
14614.0	1.4525656670928893e+18
14615.0	1.4522767902769147e+18
14616.0	1.451994948147609e+18
14617.0	1.4517085644259325e+18
14618.0	1.4514106732118013e+18
14619.0	1.4511131477409787e+18
14620.0	1.4506073767542781e+18
14621.0	1.4505665443659768e+18
14622.0	1.4502787748462587e+18
14623.0	1.449995422767513e+18
14624.0	1.4496667956936704e+18
14625.0	1.4494217409658877e+18
14626.0	1.449133503361843e+18
14627.0	1.4488431535063037e+18
14628.0	1.4485677068517373e+18
14629.0	1.4482816167313403e+18
14630.0	1.4479913557950464e+18
14631.0	1.4477071111684093e+18
14632.0	1.4463044469915653e+18
14633.0	1.447066297014681e+18
14634.0	1.4468458007756797e+18
14635.0	1.4464190924193766e+18
14636.0	1.445323515048755e+18
14637.0	1.4459949023231997e+18
14638.0	1.4457033159868413e+18
14639.0	1.4453264107962368e+18
14640.0	1.4449528862146557e+18
14641.0	1.4406758990610386e+18
14642.0	1.4443806707417085e+18
14643.0	1.4440978354012157e+18
14644.0	1.443803108370022e+18
14645.0	1.4435086917173245e+18
14646.0	1.4432214691348475e+18
14647.0	1.4429317165481981e+18
