# Flux units: erg / (cm m2 s)
# Wavelength units: Angstrom
wave	flux
14000.0	1.5015687223246848e+18
14001.0	1.5011851666456576e+18
14002.0	1.5009411839819773e+18
14003.0	1.5006265692389373e+18
14004.0	1.500312149111603e+18
14005.0	1.4999975729561597e+18
14006.0	1.499678732032409e+18
14007.0	1.4993637163139072e+18
14008.0	1.4990014106566653e+18
14009.0	1.4987398958022653e+18
14010.0	1.4984189677928443e+18
14011.0	1.4977612841484288e+18
14012.0	1.4977974424043523e+18
14013.0	1.4974835272712187e+18
14014.0	1.4970959282831357e+18
14015.0	1.496738563516006e+18
14016.0	1.496426175109529e+18
14017.0	1.4961125502222336e+18
14018.0	1.4957985025490941e+18
14019.0	1.4954852618600443e+18
14020.0	1.495171430612992e+18
14021.0	1.4948578325692413e+18
14022.0	1.4945445751029757e+18
14023.0	1.4942239004295165e+18
14024.0	1.4939110271614979e+18
14025.0	1.493605883156889e+18
14026.0	1.4932920149999613e+18
14027.0	1.4929802137960448e+18
14028.0	1.4926642904301565e+18
14029.0	1.492352794571571e+18
14030.0	1.4918488841781245e+18
14031.0	1.4917203371491325e+18
14032.0	1.4914169044205563e+18
14033.0	1.4910822996246525e+18
14034.0	1.490792253436723e+18
14035.0	1.4904800898449403e+18
14036.0	1.4901679178645501e+18
14037.0	1.489854774483353e+18
14038.0	1.489543808784793e+18
14039.0	1.4892297644670973e+18
14040.0	1.4889132035670013e+18
14041.0	1.4886060848840704e+18
14042.0	1.488291293980262e+18
14043.0	1.4879606301523963e+18
14044.0	1.487666329262489e+18
14045.0	1.487359895089971e+18
14046.0	1.487048043554406e+18
14047.0	1.486734264316723e+18
14048.0	1.4864270432927741e+18
14049.0	1.4861166312423421e+18
14050.0	1.4858055296483325e+18
14051.0	1.485488732189491e+18
14052.0	1.4851795331317757e+18
14053.0	1.4848688677453821e+18
14054.0	1.4845585580359677e+18
14055.0	1.484247300413849e+18
14056.0	1.4839371383439357e+18
14057.0	1.4836265836871677e+18
14058.0	1.4833161028501501e+18
14059.0	1.4830056186576888e+18
14060.0	1.4826953475358715e+18
14061.0	1.4823810532376576e+18
14062.0	1.4820748187140093e+18
14063.0	1.4817564760735741e+18
14064.0	1.481419066127155e+18
14065.0	1.481139893252915e+18
14066.0	1.4808336788619264e+18
14067.0	1.4805216679428093e+18
14068.0	1.4802151867940856e+18
14069.0	1.4799047076347904e+18
14070.0	1.4795932050653181e+18
14071.0	1.4792814760034301e+18
14072.0	1.4789736040235005e+18
14073.0	1.4786642288050176e+18
14074.0	1.4783549676716032e+18
14075.0	1.478036878367129e+18
14076.0	1.477732539668889e+18
14077.0	1.477382803501875e+18
14078.0	1.477115490441625e+18
14079.0	1.4768043385159675e+18
14080.0	1.4765007245934587e+18
14081.0	1.4761918476582907e+18
14082.0	1.4758776557010941e+18
14083.0	1.475573798508953e+18
14084.0	1.475266050680422e+18
14085.0	1.4748123695939584e+18
14086.0	1.474645922834022e+18
14087.0	1.4743408677486592e+18
14088.0	1.4740267043127293e+18
14089.0	1.4737205402533885e+18
14090.0	1.4734112170442744e+18
14091.0	1.4731050429186045e+18
14092.0	1.4727970836971512e+18
14093.0	1.4724891144093693e+18
14094.0	1.4721813833580541e+18
14095.0	1.4718736590176253e+18
14096.0	1.471557037719552e+18
14097.0	1.471248590281113e+18
14098.0	1.4709468403073021e+18
14099.0	1.4706434360999936e+18
14100.0	1.4703293397729275e+18
14101.0	1.4700288246022141e+18
14102.0	1.4697205214478336e+18
14103.0	1.4694059318706168e+18
14104.0	1.469105920016384e+18
14105.0	1.4687997408575485e+18
14106.0	1.4684934241255421e+18
14107.0	1.4681844549156864e+18
14108.0	1.4678740780974075e+18
14109.0	1.467570586648576e+18
14110.0	1.4672604312895488e+18
14111.0	1.4669441103036413e+18
14112.0	1.4666477105840128e+18
14113.0	1.4663423702859773e+18
14114.0	1.466030899593216e+18
14115.0	1.465730535417446e+18
14116.0	1.465402317707673e+18
14117.0	1.4647989637218304e+18
14118.0	1.4648126321197053e+18
14119.0	1.464500250424115e+18
14120.0	1.4641967019327485e+18
14121.0	1.4638878333861888e+18
14122.0	1.4635808858308603e+18
14123.0	1.463277241709363e+18
14124.0	1.4629698864676864e+18
14125.0	1.4624252393160701e+18
14126.0	1.462365903336243e+18
14127.0	1.4620621317079037e+18
14128.0	1.4617560733450237e+18
14129.0	1.4614458978533373e+18
14130.0	1.4611347358613501e+18
14131.0	1.4608414197940221e+18
14132.0	1.460533713908531e+18
14133.0	1.4599427297640438e+18
14134.0	1.4599264743194621e+18
14135.0	1.459614963361382e+18
14136.0	1.4593009089773565e+18
14137.0	1.4590103460511741e+18
14138.0	1.4587004457058301e+18
14139.0	1.4584000530087936e+18
14140.0	1.4580851295649787e+18
14141.0	1.4577912833376253e+18
14142.0	1.4574584720261115e+18
14143.0	1.457173480813363e+18
14144.0	1.4568790121512957e+18
14145.0	1.4565740241747965e+18
14146.0	1.456269557969715e+18
14147.0	1.4559665413160957e+18
14148.0	1.455661982836326e+18
14149.0	1.455357714602393e+18
14150.0	1.4550556206956544e+18
14151.0	1.4547478745448448e+18
14152.0	1.4544475992883197e+18
14153.0	1.454145025553203e+18
14154.0	1.453828951192371e+18
14155.0	1.4534236321087485e+18
14156.0	1.4532318970511357e+18
14157.0	1.4529319539834875e+18
14158.0	1.4526264224251904e+18
14159.0	1.4523252328103936e+18
14160.0	1.4520224426491901e+18
14161.0	1.451684718968832e+18
14162.0	1.4513612206899197e+18
14163.0	1.4511136477020157e+18
14164.0	1.4507965834854397e+18
14165.0	1.4503939034578941e+18
14166.0	1.4502030357823485e+18
14167.0	1.449894046439833e+18
14168.0	1.4495958112927741e+18
14169.0	1.449296569512755e+18
14170.0	1.4489920546537467e+18
14171.0	1.4486891017535485e+18
14172.0	1.4483901099540475e+18
14173.0	1.4480325019172864e+18
14174.0	1.4477845078212603e+18
14175.0	1.4474843080622075e+18
14176.0	1.447181997729382e+18
14177.0	1.446880653764198e+18
14178.0	1.446578059896422e+18
14179.0	1.446265757053747e+18
14180.0	1.4459761319739392e+18
14181.0	1.4456747041226747e+18
14182.0	1.4453729088503803e+18
14183.0	1.4450720765902845e+18
14184.0	1.4447681690664957e+18
14185.0	1.444469722526515e+18
14186.0	1.444103168878182e+18
14187.0	1.4438548258160635e+18
14188.0	1.4435646588321787e+18
14189.0	1.4432642409693181e+18
14190.0	1.4429645394935808e+18
14191.0	1.442663737432473e+18
14192.0	1.4423584860536832e+18
14193.0	1.4420538906640381e+18
14194.0	1.441761752357273e+18
14195.0	1.4414623461605373e+18
14196.0	1.441160287485952e+18
14197.0	1.4408575409455104e+18
14198.0	1.4405551081390075e+18
14199.0	1.4402550962847741e+18
14200.0	1.4399214125580288e+18
14201.0	1.4396578492055547e+18
14202.0	1.4393572115611645e+18
14203.0	1.4390451318554621e+18
14204.0	1.4387569814929403e+18
14205.0	1.438457387391385e+18
14206.0	1.4380927060803581e+18
14207.0	1.4378595564650493e+18
14208.0	1.437560269386547e+18
14209.0	1.437183931265843e+18
14210.0	1.436918426789478e+18
14211.0	1.436658519192371e+18
14212.0	1.4363624785051648e+18
14213.0	1.4360631058628608e+18
14214.0	1.4357643019681792e+18
14215.0	1.4354581446197248e+18
14216.0	1.4351662109949947e+18
14217.0	1.434868071478067e+18
14218.0	1.4345634257567741e+18
14219.0	1.434270601261875e+18
14220.0	1.4339720741912573e+18
14221.0	1.4336724532461565e+18
14222.0	1.4333653999943677e+18
14223.0	1.433076284941926e+18
14224.0	1.432778266220953e+18
14225.0	1.4323692980928512e+18
14226.0	1.4321817976045565e+18
14227.0	1.4318837084192765e+18
14228.0	1.4312671121768448e+18
14229.0	1.431257047524966e+18
14230.0	1.4309897596305408e+18
14231.0	1.4306863403237373e+18
14232.0	1.4303935409946621e+18
14233.0	1.4300889607045115e+18
14234.0	1.4297956748361725e+18
14235.0	1.4294966763257853e+18
14236.0	1.4292004695441408e+18
14237.0	1.428902491088486e+18
14238.0	1.4286056501280765e+18
14239.0	1.428305180255846e+18
14240.0	1.4271229284319235e+18
14241.0	1.4277141357133821e+18
14242.0	1.4274171907342336e+18
14243.0	1.4270379585437693e+18
14244.0	1.4268232756101115e+18
14245.0	1.4265157744066557e+18
14246.0	1.4262116454236157e+18
14247.0	1.4259304005631997e+18
14248.0	1.4256268822708221e+18
14249.0	1.425337279001395e+18
14250.0	1.4250418808815613e+18
14251.0	1.424746796495667e+18
14252.0	1.424450359866163e+18
14253.0	1.4241537336541181e+18
14254.0	1.4238565084954621e+18
14255.0	1.4235434137681917e+18
14256.0	1.4231603530170365e+18
14257.0	1.422965564506112e+18
14258.0	1.4226737214783485e+18
14259.0	1.422368002015232e+18
14260.0	1.422076397223936e+18
14261.0	1.4217762461188093e+18
14262.0	1.421500170318643e+18
14263.0	1.421047173742592e+18
14264.0	1.4208845001785341e+18
14265.0	1.4206104057675773e+18
14266.0	1.4203169907146747e+18
14267.0	1.4200228324311037e+18
14268.0	1.4197268370423808e+18
14269.0	1.4194278284656637e+18
14270.0	1.4191374081458173e+18
14271.0	1.4188398440873981e+18
14272.0	1.4185473819803648e+18
14273.0	1.4182500695801853e+18
14274.0	1.41772512559104e+18
14275.0	1.4176396423200765e+18
14276.0	1.417351017162342e+18
14277.0	1.4170579762413565e+18
14278.0	1.4167759076196347e+18
14279.0	1.4164813248724987e+18
14280.0	1.4161826434514941e+18
14281.0	1.415892620751667e+18
14282.0	1.4155985178329085e+18
14283.0	1.4153043226394621e+18
14284.0	1.4150101861662717e+18
14285.0	1.4147160983470077e+18
14286.0	1.4144215474765821e+18
14287.0	1.414128209598873e+18
14288.0	1.4138342861963264e+18
14289.0	1.412974069678078e+18
14290.0	1.4132444865232893e+18
14291.0	1.4129525730312192e+18
14292.0	1.4126584164253693e+18
14293.0	1.412364858766131e+18
14294.0	1.4119991976656899e+18
14295.0	1.4117717019721725e+18
14296.0	1.4110284729810944e+18
14297.0	1.4111927387029501e+18
14298.0	1.4108009386999808e+18
14299.0	1.4105982195990525e+18
14300.0	1.4103082019323901e+18
14301.0	1.4100175131770875e+18
14302.0	1.4097248111558653e+18
14303.0	1.409416974408089e+18
14304.0	1.4091322969292797e+18
14305.0	1.4088476127395837e+18
14306.0	1.4085296157097981e+18
14307.0	1.4082577912561664e+18
14308.0	1.4079716961026045e+18
14309.0	1.4076783011823613e+18
14310.0	1.4072732438233085e+18
14311.0	1.4070333816438781e+18
14312.0	1.4067840973799421e+18
14313.0	1.4064393583067136e+18
14314.0	1.4062170442563581e+18
14315.0	1.4059256407916544e+18
14316.0	1.4055927313334267e+18
14317.0	1.4052047657631741e+18
14318.0	1.4049228036767741e+18
14319.0	1.4046313725296637e+18
14320.0	1.4043394976251904e+18
14321.0	1.4040467394002941e+18
14322.0	1.4037290166779901e+18
14323.0	1.403455800554291e+18
14324.0	1.4031708252798973e+18
14325.0	1.4028751402696701e+18
14326.0	1.4025886500126717e+18
14327.0	1.4022941721231355e+18
14328.0	1.402001861849907e+18
14329.0	1.4017154798059517e+18
14330.0	1.4014245561696253e+18
14331.0	1.4011334916046845e+18
14332.0	1.400842879185715e+18
14333.0	1.4005522030133245e+18
14334.0	1.400261561234227e+18
14335.0	1.399958266917683e+18
14336.0	1.3996644324343805e+18
14337.0	1.3993883801223165e+18
14338.0	1.3990981921669117e+18
14339.0	1.3988036035477501e+18
14340.0	1.3985190971965437e+18
14341.0	1.398227185382195e+18
14342.0	1.397937411824025e+18
14343.0	1.3976435043598333e+18
14344.0	1.3973543893073917e+18
14345.0	1.3970690180907005e+18
14346.0	1.396777893966643e+18
14347.0	1.3964798744068093e+18
14348.0	1.3961996445679613e+18
14349.0	1.3959100907913213e+18
14350.0	1.3956120418713597e+18
14351.0	1.3953192375091197e+18
14352.0	1.3950361513492477e+18
14353.0	1.3947512297619453e+18
14354.0	1.3944612934647808e+18
14355.0	1.3941704998518781e+18
14356.0	1.393882570109747e+18
14357.0	1.3935954775506941e+18
14358.0	1.3933064497397757e+18
14359.0	1.393010087768883e+18
14360.0	1.3927275787452413e+18
14361.0	1.3924395961548795e+18
14362.0	1.3921510288785405e+18
14363.0	1.3918621797449725e+18
14364.0	1.3915448848416765e+18
14365.0	1.391282378453811e+18
14366.0	1.3909906906152957e+18
14367.0	1.3907082881269757e+18
14368.0	1.3904189927194621e+18
14369.0	1.3901316518576125e+18
14370.0	1.3898434520023037e+18
14371.0	1.3895553385496573e+18
14372.0	1.3892642270085117e+18
14373.0	1.3889788541140992e+18
14374.0	1.388691132409446e+18
14375.0	1.3884011541692413e+18
14376.0	1.3881152360153083e+18
14377.0	1.387826712359731e+18
14378.0	1.3875356922544125e+18
14379.0	1.3872495157313533e+18
14380.0	1.3869618653298685e+18
14381.0	1.3866680367185917e+18
14382.0	1.3863862507929595e+18
14383.0	1.3860918064578557e+18
14384.0	1.3858025462824957e+18
14385.0	1.3855251333382141e+18
14386.0	1.385229066646323e+18
14387.0	1.3849506814623741e+18
14388.0	1.3846616083529725e+18
14389.0	1.3843767740071936e+18
14390.0	1.3840885582135293e+18
14391.0	1.383802927788851e+18
14392.0	1.3835124604927997e+18
14393.0	1.3832294238257147e+18
14394.0	1.3829231918186493e+18
14395.0	1.3826495730417661e+18
14396.0	1.3823696258990077e+18
14397.0	1.382083280764928e+18
14398.0	1.381795487757107e+18
14399.0	1.3815105611366397e+18
14400.0	1.3812127647137792e+18
14401.0	1.3809350002868221e+18
14402.0	1.3806506810015741e+18
14403.0	1.3784229569626066e+18
14404.0	1.3738754858549228e+18
14405.0	1.379016500471394e+18
14406.0	1.379507322958643e+18
14407.0	1.3761381710954511e+18
14408.0	1.3789298906103803e+18
14409.0	1.378639869588275e+18
14410.0	1.3783628609748992e+18
14411.0	1.3780791792238592e+18
14412.0	1.3777924037541885e+18
14413.0	1.3775089778556925e+18
14414.0	1.3772224557219837e+18
14415.0	1.3769378277359613e+18
14416.0	1.3766515706822653e+18
14417.0	1.376360579937075e+18
14418.0	1.3760668998041597e+18
14419.0	1.3757970550620157e+18
14420.0	1.3755101143367677e+18
14421.0	1.3752276975878141e+18
14422.0	1.3749413205770237e+18
14423.0	1.3746548680687613e+18
14424.0	1.3622297927614367e+18
14425.0	1.3740871212072957e+18
14426.0	1.373804545913651e+18
14427.0	1.3735197384114173e+18
14428.0	1.3732222574002176e+18
14429.0	1.3729505101217787e+18
14430.0	1.372667344270131e+18
14431.0	1.3723348181712893e+18
14432.0	1.3720904789917693e+18
14433.0	1.3694971055964137e+18
14434.0	1.371522815177523e+18
14435.0	1.371235161420595e+18
14436.0	1.3709627363426301e+18
14437.0	1.3706790252314621e+18
14438.0	1.3703363589832701e+18
14439.0	1.3700985385910272e+18
14440.0	1.369827381031731e+18
14441.0	1.3695392340246523e+18
14442.0	1.3692479530336253e+18
14443.0	1.3689428870430717e+18
14444.0	1.3686881686388733e+18
14445.0	1.3684074832986112e+18
14446.0	1.365437087272142e+18
14447.0	1.3678369631633405e+18
14448.0	1.36755802013696e+18
14449.0	1.367274949915443e+18
14450.0	1.3669886953783293e+18
14451.0	1.3667071896322045e+18
14452.0	1.3664252107685885e+18
14453.0	1.3661053615341565e+18
14454.0	1.3658600249491453e+18
14455.0	1.365572775523123e+18
14456.0	1.3652867759996923e+18
14457.0	1.3649989267881981e+18
14458.0	1.3647282364743675e+18
14459.0	1.3644436848246781e+18
14460.0	1.3641641176858621e+18
14461.0	1.363873100935987e+18
14462.0	1.363550869336883e+18
14463.0	1.363316101559091e+18
14464.0	1.363035150299955e+18
14465.0	1.362739799156326e+18
14466.0	1.3624331963727872e+18
14467.0	1.3620358775046141e+18
14468.0	1.361784975078195e+18
14469.0	1.361494955733811e+18
14470.0	1.3612064689881085e+18
14471.0	1.3609347988848637e+18
14472.0	1.3606570394910717e+18
14473.0	1.360378872410931e+18
14474.0	1.3600984857051136e+18
14475.0	1.3598143350308861e+18
14476.0	1.3593836781567997e+18
14477.0	1.3592545950957565e+18
14478.0	1.3589714812534781e+18
14479.0	1.358688354828288e+18
14480.0	1.358401564259123e+18
14481.0	1.3581302003400701e+18
14482.0	1.3578474421747712e+18
14483.0	1.357562078507827e+18
14484.0	1.357284927288115e+18
14485.0	1.3569820591128573e+18
14486.0	1.3565589184315387e+18
14487.0	1.3564448518176765e+18
14488.0	1.3561581057081344e+18
14489.0	1.3558793765912573e+18
14490.0	1.3555996576186363e+18
14491.0	1.3553221364613117e+18
14492.0	1.3550420710391805e+18
14493.0	1.3547583221792765e+18
14494.0	1.3544705409155072e+18
14495.0	1.3542015971098621e+18
14496.0	1.353845967106867e+18
14497.0	1.353640140026675e+18
14498.0	1.3533601257750528e+18
14499.0	1.3530811475165181e+18
14500.0	1.352801191146291e+18
14501.0	1.3524590877736957e+18
14502.0	1.352057982287872e+18
14503.0	1.3519496492875773e+18
14504.0	1.3516788574715901e+18
14505.0	1.351349642356326e+18
14506.0	1.350991311221555e+18
14507.0	1.3507065288851456e+18
14508.0	1.350563852923699e+18
14509.0	1.3502841641500667e+18
14510.0	1.3500034293170173e+18
14511.0	1.3497261430407165e+18
14512.0	1.3494382225260541e+18
14513.0	1.34916775870464e+18
14514.0	1.3488618622418941e+18
14515.0	1.348608215062937e+18
14516.0	1.3469085379592202e+18
14517.0	1.3480516342775805e+18
14518.0	1.3477728154025981e+18
14519.0	1.3474932423917565e+18
14520.0	1.3472118163374077e+18
14521.0	1.3469311318360061e+18
14522.0	1.3466545661411323e+18
14523.0	1.3462408139898877e+18
14524.0	1.345954560291635e+18
14525.0	1.3458163613302781e+18
14526.0	1.3455396916166653e+18
14527.0	1.345255599662694e+18
14528.0	1.3448980109197312e+18
14529.0	1.344700534698803e+18
14530.0	1.3444168420425725e+18
14531.0	1.3441485533872128e+18
14532.0	1.3436557822263293e+18
14533.0	1.3435932879355901e+18
14534.0	1.343315785233203e+18
14535.0	1.3430316882460672e+18
14536.0	1.3427579377680381e+18
14537.0	1.3424740337188861e+18
14538.0	1.3422043265499133e+18
14539.0	1.3419261150101501e+18
14540.0	1.3416491441455101e+18
14541.0	1.3413597757571072e+18
14542.0	1.3410930096340992e+18
14543.0	1.3407252438319101e+18
14544.0	1.3405389764689917e+18
14545.0	1.3402574799503357e+18
14546.0	1.3237540697931658e+18
14547.0	1.3253782997565297e+18
14548.0	1.3394225794121725e+18
14549.0	1.3390854051856381e+18
14550.0	1.3388711685259261e+18
14551.0	1.338598824817459e+18
14552.0	1.3383210629070848e+18
14553.0	1.3380388609064957e+18
14554.0	1.337768063218483e+18
14555.0	1.3374723840802813e+18
14556.0	1.3370683434205181e+18
14557.0	1.336795433481011e+18
14558.0	1.3365187427958781e+18
14559.0	1.3352119293706202e+18
14560.0	1.3359602896732157e+18
14561.0	1.3356851869515773e+18
14562.0	1.3353995187781632e+18
14563.0	1.3351357490659328e+18
14564.0	1.334855778435072e+18
14565.0	1.3345840697442301e+18
14566.0	1.3343078773424125e+18
14567.0	1.3340307647102973e+18
14568.0	1.3337442845196285e+18
14569.0	1.3334795543117821e+18
14570.0	1.3329105382539261e+18
14571.0	1.3329257384116224e+18
14572.0	1.332627616510771e+18
14573.0	1.3323487766642685e+18
14574.0	1.332088044466995e+18
14575.0	1.3318234669318141e+18
14576.0	1.3315462519586813e+18
14577.0	1.3312684640436221e+18
14578.0	1.330995726070579e+18
14579.0	1.330721812014694e+18
14580.0	1.3304463888482301e+18
14581.0	1.3301673619357693e+18
14582.0	1.329895388164915e+18
14583.0	1.329620153742131e+18
14584.0	1.3293384324087808e+18
14585.0	1.3290695146078203e+18
14586.0	1.3287923331891197e+18
14587.0	1.3285162271899645e+18
14588.0	1.3282438826426365e+18
14589.0	1.327978557682483e+18
14590.0	1.3277136127262717e+18
14591.0	1.327446560551731e+18
14592.0	1.3271796551778301e+18
14593.0	1.326853669676646e+18
14594.0	1.3266529999126525e+18
14595.0	1.3263842322677757e+18
14596.0	1.326088565712486e+18
14597.0	1.3258284173623293e+18
14598.0	1.325591998706483e+18
14599.0	1.3253303018192893e+18
14600.0	1.3250650531954685e+18
14601.0	1.3248012163743741e+18
14602.0	1.3245309337468923e+18
14603.0	1.3242719698681853e+18
14604.0	1.323983432790835e+18
14605.0	1.323735863997235e+18
14606.0	1.323433048670208e+18
14607.0	1.3232129710227453e+18
14608.0	1.3229481812557821e+18
14609.0	1.3226753426194427e+18
14610.0	1.3224060355870717e+18
14611.0	1.322152551985971e+18
14612.0	1.321889752835686e+18
14613.0	1.3216264252030973e+18
14614.0	1.3213598981554176e+18
14615.0	1.321096263499776e+18
14616.0	1.3208340549074941e+18
14617.0	1.3205693733535741e+18
14618.0	1.3203010335277053e+18
14619.0	1.3200307089571837e+18
14620.0	1.3197090813378557e+18
14621.0	1.3195140462018555e+18
14622.0	1.3192484813275136e+18
14623.0	1.318986221564723e+18
14624.0	1.3186900332380157e+18
14625.0	1.3184566932013053e+18
14626.0	1.3181903590916093e+18
14627.0	1.3179218774982653e+18
14628.0	1.3176670718525437e+18
14629.0	1.3174033029791744e+18
14630.0	1.3171389016047613e+18
14631.0	1.3168749758644221e+18
14632.0	1.315549349308007e+18
14633.0	1.3162615261888504e+18
14634.0	1.3160812457754621e+18
14635.0	1.3157253850857462e+18
14636.0	1.3151586951888893e+18
14637.0	1.315293953104281e+18
14638.0	1.3150283009884157e+18
14639.0	1.314760376398643e+18
14640.0	1.314501113885491e+18
14641.0	1.310281968700617e+18
14642.0	1.313973441082163e+18
14643.0	1.313712484070195e+18
14644.0	1.313443067147059e+18
14645.0	1.3131717451710461e+18
14646.0	1.312914304663552e+18
14647.0	1.3126504275771392e+18
