# Flux units: erg / (cm m2 s)
# Wavelength units: Angstrom
wave	flux
14000.0	1.7492798370480125e+18
14001.0	1.7489642156720128e+18
14002.0	1.7488356250222587e+18
14003.0	1.7485290935418877e+18
14004.0	1.7482202300284925e+18
14005.0	1.7479100344041464e+18
14006.0	1.7475918964457472e+18
14007.0	1.7472782732361728e+18
14008.0	1.7468920785010688e+18
14009.0	1.74664873672704e+18
14010.0	1.746328370754355e+18
14011.0	1.745379191370547e+18
14012.0	1.7457093384601597e+18
14013.0	1.7454290129911805e+18
14014.0	1.7451167604801533e+18
14015.0	1.7448128227573752e+18
14016.0	1.744505415506329e+18
14017.0	1.7441969395466237e+18
14018.0	1.7438804390445056e+18
14019.0	1.7435788568428536e+18
14020.0	1.7432691007815677e+18
14021.0	1.7429594873266176e+18
14022.0	1.7426506187800576e+18
14023.0	1.7423303148830715e+18
14024.0	1.7420224546471933e+18
14025.0	1.74172449800192e+18
14026.0	1.7414148845469693e+18
14027.0	1.7411067609088e+18
14028.0	1.7407900523692027e+18
14029.0	1.740475212811468e+18
14030.0	1.7397758210080765e+18
14031.0	1.7397751666966525e+18
14032.0	1.739558082943385e+18
14033.0	1.739213837959168e+18
14034.0	1.7389488837754875e+18
14035.0	1.7386422180773885e+18
14036.0	1.7383348745797627e+18
14037.0	1.7380273582768123e+18
14038.0	1.7377197295665152e+18
14039.0	1.737407696837017e+18
14040.0	1.7371023145959421e+18
14041.0	1.7367955717226496e+18
14042.0	1.7364781367295997e+18
14043.0	1.7361422971305981e+18
14044.0	1.735857252230758e+18
14045.0	1.7355588342120443e+18
14046.0	1.7352554870472704e+18
14047.0	1.734945267934822e+18
14048.0	1.734645571492249e+18
14049.0	1.734339310125056e+18
14050.0	1.7340322585509885e+18
14051.0	1.7337184608583677e+18
14052.0	1.733413266522112e+18
14053.0	1.7331120701964288e+18
14054.0	1.7328056276353021e+18
14055.0	1.732499091121766e+18
14056.0	1.7321925646745597e+18
14057.0	1.7318861707673597e+18
14058.0	1.731579758405222e+18
14059.0	1.73126666200023e+18
14060.0	1.7309669420695547e+18
14061.0	1.7306536862810107e+18
14062.0	1.7303530587029504e+18
14063.0	1.730031709585408e+18
14064.0	1.72964438909911e+18
14065.0	1.7294266577453053e+18
14066.0	1.7291285299724288e+18
14067.0	1.7288253942005757e+18
14068.0	1.7285196713820157e+18
14069.0	1.7282133160624128e+18
14070.0	1.7279083297636347e+18
14071.0	1.7276001021067261e+18
14072.0	1.7272976877551613e+18
14073.0	1.7269923675897853e+18
14074.0	1.726686951794278e+18
14075.0	1.726362666663936e+18
14076.0	1.7260733569957885e+18
14077.0	1.725676792263475e+18
14078.0	1.7254512544710653e+18
14079.0	1.7251508349304827e+18
14080.0	1.7248557874544637e+18
14081.0	1.724551400102297e+18
14082.0	1.7242459373305856e+18
14083.0	1.7239384294162427e+18
14084.0	1.7236239421800443e+18
14085.0	1.7230880292470781e+18
14086.0	1.7229946791395328e+18
14087.0	1.722715320038195e+18
14088.0	1.7224066930835453e+18
14089.0	1.7221156855611387e+18
14090.0	1.721811481080627e+18
14091.0	1.7215081020391421e+18
14092.0	1.7212043220221952e+18
14093.0	1.7209003222237181e+18
14094.0	1.720596075800166e+18
14095.0	1.720290777445171e+18
14096.0	1.7199767046062075e+18
14097.0	1.7196630360981504e+18
14098.0	1.7193755417247741e+18
14099.0	1.719075987888537e+18
14100.0	1.7187616315146237e+18
14101.0	1.7184710719438843e+18
14102.0	1.7181655420633085e+18
14103.0	1.7178478419902461e+18
14104.0	1.717558309185126e+18
14105.0	1.7172585976430587e+18
14106.0	1.7169555172360187e+18
14107.0	1.7166466117795837e+18
14108.0	1.716336927860326e+18
14109.0	1.716042365245849e+18
14110.0	1.7157417041133565e+18
14111.0	1.7154339395076093e+18
14112.0	1.7151279096659965e+18
14113.0	1.7148331339808765e+18
14114.0	1.7145145816252413e+18
14115.0	1.714217987289907e+18
14116.0	1.71385287648215e+18
14117.0	1.7128502683762685e+18
14118.0	1.7132857075957757e+18
14119.0	1.7129975186456576e+18
14120.0	1.7127061319581693e+18
14121.0	1.7123994192838653e+18
14122.0	1.7121040178085885e+18
14123.0	1.7117999693561853e+18
14124.0	1.7114693894143997e+18
14125.0	1.7107712189923325e+18
14126.0	1.710880448734822e+18
14127.0	1.710599740745318e+18
14128.0	1.7103003261599741e+18
14129.0	1.709988249809715e+18
14130.0	1.70967547552727e+18
14131.0	1.7093933448298496e+18
14132.0	1.709057179752857e+18
14133.0	1.7082857465839613e+18
14134.0	1.7084539683733504e+18
14135.0	1.708176919494656e+18
14136.0	1.7078889436151803e+18
14137.0	1.7075889804148739e+18
14138.0	1.707287121389158e+18
14139.0	1.7069893945917435e+18
14140.0	1.7066869399748605e+18
14141.0	1.7063736623759357e+18
14142.0	1.7060591298412541e+18
14143.0	1.7057837855277053e+18
14144.0	1.705487999854182e+18
14145.0	1.7051863522213885e+18
14146.0	1.7048859058372605e+18
14147.0	1.7045880129454077e+18
14148.0	1.7042884473651197e+18
14149.0	1.7039890243911677e+18
14150.0	1.7036887944331261e+18
14151.0	1.703386935407411e+18
14152.0	1.70308715675648e+18
14153.0	1.7027893410398205e+18
14154.0	1.70246207963136e+18
14155.0	1.702178311477657e+18
14156.0	1.7018887400849405e+18
14157.0	1.701589508371251e+18
14158.0	1.701286946380185e+18
14159.0	1.7009892632035325e+18
14160.0	1.7006701471334397e+18
14161.0	1.7003360171327485e+18
14162.0	1.69999347000279e+18
14163.0	1.6997753477398525e+18
14164.0	1.699467489181696e+18
14165.0	1.6991786962518013e+18
14166.0	1.6988936261861376e+18
14167.0	1.698581798138675e+18
14168.0	1.6982958774681597e+18
14169.0	1.6980004290166781e+18
14170.0	1.697698762928947e+18
14171.0	1.6973972595802112e+18
14172.0	1.6971037119873021e+18
14173.0	1.6967904729759744e+18
14174.0	1.696498963814809e+18
14175.0	1.6962088186413053e+18
14176.0	1.6959110264127485e+18
14177.0	1.6956128734740477e+18
14178.0	1.6953142457401341e+18
14179.0	1.6950128363438077e+18
14180.0	1.6947182837956603e+18
14181.0	1.694420206354432e+18
14182.0	1.694121345417216e+18
14183.0	1.6938234223263741e+18
14184.0	1.6935198067261435e+18
14185.0	1.693218263112089e+18
14186.0	1.6927934052827133e+18
14187.0	1.6925853409607677e+18
14188.0	1.6923283073007613e+18
14189.0	1.6920361320841213e+18
14190.0	1.6917389354467325e+18
14191.0	1.6914405543378944e+18
14192.0	1.6911336185266176e+18
14193.0	1.6908298200547328e+18
14194.0	1.6905491019988987e+18
14195.0	1.690254551128473e+18
14196.0	1.689957718556672e+18
14197.0	1.6896606393597952e+18
14198.0	1.6893587350355965e+18
14199.0	1.6890595737862144e+18
14200.0	1.688692761768755e+18
14201.0	1.6884522603773944e+18
14202.0	1.6881728576552957e+18
14203.0	1.6878749513416704e+18
14204.0	1.687579635430195e+18
14205.0	1.687278522990592e+18
14206.0	1.686873306247987e+18
14207.0	1.6866810628407293e+18
14208.0	1.6863910770507776e+18
14209.0	1.6859731515670528e+18
14210.0	1.6856989363601405e+18
14211.0	1.6854969672007677e+18
14212.0	1.6852121404047357e+18
14213.0	1.6849180811067387e+18
14214.0	1.6846210807627779e+18
14215.0	1.684313606402867e+18
14216.0	1.6840315663024123e+18
14217.0	1.6837362352914432e+18
14218.0	1.683427693900595e+18
14219.0	1.683144989422387e+18
14220.0	1.6828494755397632e+18
14221.0	1.6825534868619261e+18
14222.0	1.682249381366988e+18
14223.0	1.681961220938137e+18
14224.0	1.6816602276167683e+18
14225.0	1.6810956826869763e+18
14226.0	1.6810446682062848e+18
14227.0	1.68076679053312e+18
14228.0	1.679710164824883e+18
14229.0	1.6799578116325368e+18
14230.0	1.679890269916364e+18
14231.0	1.6795995006304253e+18
14232.0	1.6793077549105147e+18
14233.0	1.679012235994726e+18
14234.0	1.6787187135676413e+18
14235.0	1.67842161927127e+18
14236.0	1.6781285984829437e+18
14237.0	1.677830776055398e+18
14238.0	1.6775308564758525e+18
14239.0	1.6771945655697405e+18
14240.0	1.6751638614114304e+18
14241.0	1.6765654367469563e+18
14242.0	1.6763304265383933e+18
14243.0	1.6759269261049853e+18
14244.0	1.6757682119639037e+18
14245.0	1.6754615093559293e+18
14246.0	1.6751644804907003e+18
14247.0	1.67487104698286e+18
14248.0	1.674564805748326e+18
14249.0	1.67428502889431e+18
14250.0	1.673994645484339e+18
14251.0	1.6737029534515195e+18
14252.0	1.6734089243525115e+18
14253.0	1.673113073247846e+18
14254.0	1.672814911920537e+18
14255.0	1.672475171618816e+18
14256.0	1.6719767943512061e+18
14257.0	1.6718372062363643e+18
14258.0	1.6716377251381243e+18
14259.0	1.671329551168307e+18
14260.0	1.6710432865648637e+18
14261.0	1.6707394276950016e+18
14262.0	1.670470745613926e+18
14263.0	1.6698097400807424e+18
14264.0	1.6696790657007608e+18
14265.0	1.6695755754438653e+18
14266.0	1.6693036956254205e+18
14267.0	1.669015098988953e+18
14268.0	1.6687219355942907e+18
14269.0	1.668421908640563e+18
14270.0	1.6681377126678525e+18
14271.0	1.6678409874702333e+18
14272.0	1.6675420460023803e+18
14273.0	1.667203973355929e+18
14274.0	1.6663211814158333e+18
14275.0	1.6665100375031805e+18
14276.0	1.6663529255862272e+18
14277.0	1.666082223528345e+18
14278.0	1.6657998831157248e+18
14279.0	1.6655082816798715e+18
14280.0	1.665214390154035e+18
14281.0	1.6649289996435453e+18
14282.0	1.6646380894289915e+18
14283.0	1.6643338664935421e+18
14284.0	1.664035191783424e+18
14285.0	1.6637428857044992e+18
14286.0	1.6634496635895803e+18
14287.0	1.6631535692152832e+18
14288.0	1.6628267373035515e+18
14289.0	1.6614281097248755e+18
14290.0	1.6622471113342976e+18
14291.0	1.6619868296052733e+18
14292.0	1.661697127350272e+18
14293.0	1.661402101684633e+18
14294.0	1.660992907064115e+18
14295.0	1.6607758618984448e+18
14296.0	1.6596452184686595e+18
14297.0	1.660157254067814e+18
14298.0	1.6597527335796733e+18
14299.0	1.6596335532703744e+18
14300.0	1.659365597642752e+18
14301.0	1.6590817103708157e+18
14302.0	1.65879223460823e+18
14303.0	1.658465305388646e+18
14304.0	1.6581970360270843e+18
14305.0	1.6579224701763584e+18
14306.0	1.6576149236744187e+18
14307.0	1.657317237142323e+18
14308.0	1.6570289223630848e+18
14309.0	1.6567342959951867e+18
14310.0	1.6564293499617275e+18
14311.0	1.656127747627417e+18
14312.0	1.655829574556057e+18
14313.0	1.6554219838373888e+18
14314.0	1.655287063144038e+18
14315.0	1.6549953291681792e+18
14316.0	1.6546673362731003e+18
14317.0	1.6544174933278715e+18
14318.0	1.6541354481942525e+18
14319.0	1.6538482323226621e+18
14320.0	1.6535590132514813e+18
14321.0	1.6532657173168125e+18
14322.0	1.652946092897075e+18
14323.0	1.6526675340689403e+18
14324.0	1.652402507743232e+18
14325.0	1.6521044739227643e+18
14326.0	1.6518262674161661e+18
14327.0	1.651529570739814e+18
14328.0	1.6512399439822843e+18
14329.0	1.6509599037259768e+18
14330.0	1.6506713490325504e+18
14331.0	1.65037330179031e+18
14332.0	1.6500736791674877e+18
14333.0	1.6497849432801277e+18
14334.0	1.6494959272132605e+18
14335.0	1.6491932075163648e+18
14336.0	1.648890762965811e+18
14337.0	1.6486262869327867e+18
14338.0	1.6483392321224704e+18
14339.0	1.64804165632e+18
14340.0	1.647764961440563e+18
14341.0	1.647474794456678e+18
14342.0	1.6471863504928765e+18
14343.0	1.6469000171028475e+18
14344.0	1.6466052917493752e+18
14345.0	1.6463224614420477e+18
14346.0	1.6460332960579581e+18
14347.0	1.6457376546684925e+18
14348.0	1.6454583391879165e+18
14349.0	1.645171584689766e+18
14350.0	1.644861088753254e+18
14351.0	1.6445678582497275e+18
14352.0	1.6442971897462784e+18
14353.0	1.644019988194918e+18
14354.0	1.6437317052923904e+18
14355.0	1.6434399058853885e+18
14356.0	1.6431523511140347e+18
14357.0	1.6428719031713792e+18
14358.0	1.64258691195863e+18
14359.0	1.6422704768876541e+18
14360.0	1.6419901698736125e+18
14361.0	1.6417035898585085e+18
14362.0	1.6414169964216315e+18
14363.0	1.64112700056535e+18
14364.0	1.6407793246404603e+18
14365.0	1.640521910137651e+18
14366.0	1.6402522985988093e+18
14367.0	1.6399827491356672e+18
14368.0	1.6396965315084285e+18
14369.0	1.639410604127027e+18
14370.0	1.639124225438515e+18
14371.0	1.638837861849497e+18
14372.0	1.638545302434611e+18
14373.0	1.638263482115686e+18
14374.0	1.6379774054170621e+18
14375.0	1.6376877266501624e+18
14376.0	1.6374060539707392e+18
14377.0	1.6371190897573885e+18
14378.0	1.6368310081814525e+18
14379.0	1.636547246738636e+18
14380.0	1.6362601919283197e+18
14381.0	1.6359626027040765e+18
14382.0	1.635687604001177e+18
14383.0	1.635402421528166e+18
14384.0	1.6350976952762365e+18
14385.0	1.6348320851034107e+18
14386.0	1.6345263304081403e+18
14387.0	1.6342601665871872e+18
14388.0	1.633971511230464e+18
14389.0	1.633688130630451e+18
14390.0	1.6334016831553528e+18
14391.0	1.6331075349381115e+18
14392.0	1.63281141539799e+18
14393.0	1.63252653827031e+18
14394.0	1.6321970287149053e+18
14395.0	1.6319440282976246e+18
14396.0	1.63166976779223e+18
14397.0	1.63138400986071e+18
14398.0	1.6310978056552448e+18
14399.0	1.6308109169393661e+18
14400.0	1.6305041237344253e+18
14401.0	1.6302241942077437e+18
14402.0	1.6299264388890621e+18
14403.0	1.6293801693806587e+18
14404.0	1.6264792914264054e+18
14405.0	1.6269110648242148e+18
14406.0	1.6287406269399035e+18
14407.0	1.628245177296486e+18
14408.0	1.6282123828723707e+18
14409.0	1.627936115811942e+18
14410.0	1.6276716817219581e+18
14411.0	1.6273934349500413e+18
14412.0	1.6271082893869053e+18
14413.0	1.6268288564658176e+18
14414.0	1.6265429240512507e+18
14415.0	1.6262597095456763e+18
14416.0	1.6259744331202557e+18
14417.0	1.6256896700776443e+18
14418.0	1.6254035094929403e+18
14419.0	1.6251211774689275e+18
14420.0	1.6248328962441213e+18
14421.0	1.624551810767257e+18
14422.0	1.6242559479185405e+18
14423.0	1.623924977067622e+18
14424.0	1.6226340273389563e+18
14425.0	1.62335184388096e+18
14426.0	1.6231269671108603e+18
14427.0	1.6228495189344256e+18
14428.0	1.6225273108234237e+18
14429.0	1.622261730849587e+18
14430.0	1.6219718507560957e+18
14431.0	1.6215761064296443e+18
14432.0	1.6213989977489405e+18
14433.0	1.620913679866265e+18
14434.0	1.6208204555878395e+18
14435.0	1.620546931602227e+18
14436.0	1.6202812140552187e+18
14437.0	1.6200004339236861e+18
14438.0	1.6197038110670848e+18
14439.0	1.6194271765856253e+18
14440.0	1.6191518138171387e+18
14441.0	1.618856568369971e+18
14442.0	1.6185657118425088e+18
14443.0	1.6182405006098432e+18
14444.0	1.6180042740531197e+18
14445.0	1.6177129695739901e+18
14446.0	1.6164325928468483e+18
14447.0	1.6170840873762813e+18
14448.0	1.6168822188802048e+18
14449.0	1.6166066363301885e+18
14450.0	1.6163192174542843e+18
14451.0	1.6160402509398008e+18
14452.0	1.6157616199696381e+18
14453.0	1.6154780917301243e+18
14454.0	1.6151967629836288e+18
14455.0	1.6149057890156544e+18
14456.0	1.6146305101332475e+18
14457.0	1.6143470372585467e+18
14458.0	1.6140655256403963e+18
14459.0	1.613780477385113e+18
14460.0	1.6134941305733115e+18
14461.0	1.613191571937689e+18
14462.0	1.6129115937570813e+18
14463.0	1.6126423261511675e+18
14464.0	1.6123679951814656e+18
14465.0	1.6120642201976832e+18
14466.0	1.6118084481843197e+18
14467.0	1.6115106978988032e+18
14468.0	1.6112436935393277e+18
14469.0	1.6109219417686013e+18
14470.0	1.6106335733022712e+18
14471.0	1.610375017948774e+18
14472.0	1.6100992844038141e+18
14473.0	1.6098231230398461e+18
14474.0	1.6095456094322685e+18
14475.0	1.6092626281299965e+18
14476.0	1.6089716558397437e+18
14477.0	1.6087018647846907e+18
14478.0	1.608418531160883e+18
14479.0	1.6081377426407421e+18
14480.0	1.6078385428037624e+18
14481.0	1.6075781906104315e+18
14482.0	1.6072910586249208e+18
14483.0	1.6070051530539005e+18
14484.0	1.6067114561437693e+18
14485.0	1.6063898100695037e+18
14486.0	1.6058673507860477e+18
14487.0	1.6058778147356667e+18
14488.0	1.6056080723345403e+18
14489.0	1.6053217674657784e+18
14490.0	1.605047265368473e+18
14491.0	1.6047711241371643e+18
14492.0	1.6044928421330944e+18
14493.0	1.6042045743300605e+18
14494.0	1.6039052570525693e+18
14495.0	1.6036347445772285e+18
14496.0	1.6032396461735933e+18
14497.0	1.6030809873973248e+18
14498.0	1.6028106426941435e+18
14499.0	1.602531176218624e+18
14500.0	1.6022495035391995e+18
14501.0	1.6019408883286013e+18
14502.0	1.6014486833987584e+18
14503.0	1.6013892652105725e+18
14504.0	1.6011193533595643e+18
14505.0	1.6008416401031165e+18
14506.0	1.600537298049433e+18
14507.0	1.6000400230449147e+18
14508.0	1.5999989490647037e+18
14509.0	1.5997297687003133e+18
14510.0	1.5994481513857021e+18
14511.0	1.5991703643095035e+18
14512.0	1.598878737707827e+18
14513.0	1.5986035628441597e+18
14514.0	1.598292043497472e+18
14515.0	1.597983990323609e+18
14516.0	1.594808855219406e+18
14517.0	1.597309917016883e+18
14518.0	1.5971929915654141e+18
14519.0	1.596908419783065e+18
14520.0	1.5966365399646203e+18
14521.0	1.596360628581171e+18
14522.0	1.5960812493471741e+18
14523.0	1.5957881664831485e+18
14524.0	1.595511142770278e+18
14525.0	1.5952402343526395e+18
14526.0	1.5949626435698685e+18
14527.0	1.5946383466954747e+18
14528.0	1.5942692613652475e+18
14529.0	1.5941163420745725e+18
14530.0	1.5938340654153725e+18
14531.0	1.5935717117001723e+18
14532.0	1.593283061376614e+18
14533.0	1.593016682807296e+18
14534.0	1.5927408385327104e+18
14535.0	1.5924495877406715e+18
14536.0	1.592178300157952e+18
14537.0	1.591892040587673e+18
14538.0	1.591626524367257e+18
14539.0	1.5913489570725888e+18
14540.0	1.5910702992588795e+18
14541.0	1.5907660343803896e+18
14542.0	1.5905088245596157e+18
14543.0	1.590211156482457e+18
14544.0	1.5899471619555325e+18
14545.0	1.589640682484531e+18
14546.0	1.5876920826658806e+18
14547.0	1.5873918107647987e+18
14548.0	1.5887818735747067e+18
14549.0	1.588429038655897e+18
14550.0	1.5882638485094397e+18
14551.0	1.588008527803187e+18
14552.0	1.587730737371545e+18
14553.0	1.5874454173253632e+18
14554.0	1.5871783458570237e+18
14555.0	1.586899688043315e+18
14556.0	1.5866177687388157e+18
14557.0	1.5863305058910203e+18
14558.0	1.5859881902866424e+18
14559.0	1.583577903294052e+18
14560.0	1.5854270981079037e+18
14561.0	1.5852128044056576e+18
14562.0	1.5849215116705792e+18
14563.0	1.5846735494512637e+18
14564.0	1.5843921368186875e+18
14565.0	1.5841256223539195e+18
14566.0	1.583849318383616e+18
14567.0	1.5835693871792125e+18
14568.0	1.5832855720493053e+18
14569.0	1.5829899373707264e+18
14570.0	1.5821360592846843e+18
14571.0	1.5824421193252864e+18
14572.0	1.5821424077832192e+18
14573.0	1.5818516284309501e+18
14574.0	1.5816231781138432e+18
14575.0	1.581335695484518e+18
14576.0	1.5810521940885504e+18
14577.0	1.5807732896497664e+18
14578.0	1.5805046428008443e+18
14579.0	1.5802313721511928e+18
14580.0	1.579955145356083e+18
14581.0	1.5796754758762493e+18
14582.0	1.5793989605130237e+18
14583.0	1.579124201724313e+18
14584.0	1.5788366486306813e+18
14585.0	1.578570407634534e+18
14586.0	1.578293133941145e+18
14587.0	1.5780191620038653e+18
14588.0	1.577743572742963e+18
14589.0	1.5774678979182584e+18
14590.0	1.577191911037337e+18
14591.0	1.576912379130675e+18
14592.0	1.5766202106249216e+18
14593.0	1.576245278434918e+18
14594.0	1.5760770985885693e+18
14595.0	1.575802240814284e+18
14596.0	1.5754594218934267e+18
14597.0	1.5751723167514621e+18
14598.0	1.5749735570735096e+18
14599.0	1.5747114600497147e+18
14600.0	1.574436773403033e+18
14601.0	1.5741614324449277e+18
14602.0	1.573882757854003e+18
14603.0	1.5736079487336443e+18
14604.0	1.5732923021918203e+18
14605.0	1.5730424978341888e+18
14606.0	1.5726807173038077e+18
14607.0	1.5725035197038592e+18
14608.0	1.5722268265021437e+18
14609.0	1.5719500963905533e+18
14610.0	1.5716711231651835e+18
14611.0	1.5713944165416957e+18
14612.0	1.5711360876806141e+18
14613.0	1.5708628975615997e+18
14614.0	1.5705792988577787e+18
14615.0	1.5703073200537597e+18
14616.0	1.5700392503410685e+18
14617.0	1.5697504171458557e+18
14618.0	1.5694713986220032e+18
14619.0	1.569117330577817e+18
14620.0	1.568777895621427e+18
14621.0	1.5686571281874944e+18
14622.0	1.568386030187315e+18
14623.0	1.568113700739481e+18
14624.0	1.5677879056596992e+18
14625.0	1.5675588882726907e+18
14626.0	1.5672871745486843e+18
14627.0	1.5670141018701821e+18
14628.0	1.5667469062504443e+18
14629.0	1.5664728269389821e+18
14630.0	1.5661931826249725e+18
14631.0	1.5659173719048187e+18
14632.0	1.5655503585607677e+18
14633.0	1.5653485051641856e+18
14634.0	1.5650985196126205e+18
14635.0	1.5648150802923515e+18
14636.0	1.5645119126437888e+18
14637.0	1.5642790885064696e+18
14638.0	1.5639982865645565e+18
14639.0	1.5637150317936637e+18
14640.0	1.5634189508411387e+18
14641.0	1.5628180412956667e+18
14642.0	1.562864160184729e+18
14643.0	1.5626087253934077e+18
14644.0	1.562322767813017e+18
14645.0	1.562037409179238e+18
14646.0	1.561773928035123e+18
14647.0	1.5615035699101693e+18
14648.0	1.5612369128390653e+18
