# Flux units: erg / (cm m2 s)
# Wavelength units: Angstrom
wave	flux
14000.0	9.852145721409535e+17
14001.0	9.84858339835904e+17
14002.0	9.84849787650048e+17
14003.0	9.846667171856383e+17
14004.0	9.844835611574271e+17
14005.0	9.843002633617405e+17
14006.0	9.841108594982911e+17
14007.0	9.839281522606077e+17
14008.0	9.836858741620736e+17
14009.0	9.835674261782527e+17
14010.0	9.833766927204351e+17
14011.0	9.827064546852867e+17
14012.0	9.830176879804413e+17
14013.0	9.828352005242877e+17
14014.0	9.826482486509565e+17
14015.0	9.82467808015155e+17
14016.0	9.822865285185535e+17
14017.0	9.821030033915903e+17
14018.0	9.819204052058111e+17
14019.0	9.817381534695421e+17
14020.0	9.815543808786431e+17
14021.0	9.813719387209727e+17
14022.0	9.811893078196223e+17
14023.0	9.809985785561087e+17
14024.0	9.808158092427263e+17
14025.0	9.806422942416895e+17
14026.0	9.804587288494077e+17
14027.0	9.802768260792317e+17
14028.0	9.800916509130751e+17
14029.0	9.799107942023167e+17
14030.0	9.794947913875455e+17
14031.0	9.795381470691327e+17
14032.0	9.793653459386365e+17
14033.0	9.791581062168575e+17
14034.0	9.790014414127103e+17
14035.0	9.788181763325951e+17
14036.0	9.786372156030975e+17
14037.0	9.784536233672701e+17
14038.0	9.782732984942591e+17
14039.0	9.780889940656127e+17
14040.0	9.77901024654131e+17
14041.0	9.777250526298111e+17
14042.0	9.775390797070335e+17
14043.0	9.773297797431293e+17
14044.0	9.771711159336957e+17
14045.0	9.769968862232576e+17
14046.0	9.768163407298557e+17
14047.0	9.76630645470003e+17
14048.0	9.764544519864317e+17
14049.0	9.762737655644159e+17
14050.0	9.760922260209663e+17
14051.0	9.759031962894335e+17
14052.0	9.757273526108159e+17
14053.0	9.755471938322431e+17
14054.0	9.753664436568063e+17
14055.0	9.751846490996735e+17
14056.0	9.750037613510653e+17
14057.0	9.748225162477567e+17
14058.0	9.746412795330557e+17
14059.0	9.744598070984701e+17
14060.0	9.742789361270783e+17
14061.0	9.740921990021117e+17
14062.0	9.73916381328179e+17
14063.0	9.737259171446783e+17
14064.0	9.735003315372032e+17
14065.0	9.733671825178621e+17
14066.0	9.731916609617919e+17
14067.0	9.730092783632381e+17
14068.0	9.72831088390963e+17
14069.0	9.726493676535808e+17
14070.0	9.724694655664127e+17
14071.0	9.722864915709948e+17
14072.0	9.721070147862527e+17
14073.0	9.71926670619443e+17
14074.0	9.717461075099647e+17
14075.0	9.715553774075901e+17
14076.0	9.713814975021055e+17
14077.0	9.711506849529853e+17
14078.0	9.710196288913405e+17
14079.0	9.708372513259517e+17
14080.0	9.706630971129855e+17
14081.0	9.704826615103487e+17
14082.0	9.702984065744893e+17
14083.0	9.701211846475775e+17
14084.0	9.69942051795763e+17
14085.0	9.695853958660095e+17
14086.0	9.695770609451005e+17
14087.0	9.69401401815859e+17
14088.0	9.692144725917695e+17
14089.0	9.690387195101181e+17
14090.0	9.688586119020541e+17
14091.0	9.686807985782783e+17
14092.0	9.684999586447357e+17
14093.0	9.683208484421631e+17
14094.0	9.681411342598141e+17
14095.0	9.67961325286195e+17
14096.0	9.677719340056573e+17
14097.0	9.675921359372287e+17
14098.0	9.67417928876032e+17
14099.0	9.672424417132541e+17
14100.0	9.670533591334911e+17
14101.0	9.668832549404672e+17
14102.0	9.667024603054077e+17
14103.0	9.665112654741503e+17
14104.0	9.66342869201715e+17
14105.0	9.661647002009596e+17
14106.0	9.659856428466175e+17
14107.0	9.658046754062335e+17
14108.0	9.656196571070463e+17
14109.0	9.654445558202367e+17
14110.0	9.65263179854643e+17
14111.0	9.650750175051775e+17
14112.0	9.649047556063231e+17
14113.0	9.647286686580736e+17
14114.0	9.64543617643315e+17
14115.0	9.64371043005235e+17
14116.0	9.641736112439295e+17
14117.0	9.636174171734016e+17
14118.0	9.638348465373183e+17
14119.0	9.636489684058111e+17
14120.0	9.634725207474175e+17
14121.0	9.632915742785536e+17
14122.0	9.631094324330493e+17
14123.0	9.629352295661567e+17
14124.0	9.627543837605885e+17
14125.0	9.622735168733184e+17
14126.0	9.624038255099903e+17
14127.0	9.622265155026941e+17
14128.0	9.620469531541503e+17
14129.0	9.618628223696892e+17
14130.0	9.616776128102399e+17
14131.0	9.615125023555583e+17
14132.0	9.613302791405567e+17
14133.0	9.607931204993007e+17
14134.0	9.609762161295357e+17
14135.0	9.607895310139392e+17
14136.0	9.606054245564413e+17
14137.0	9.604417393262591e+17
14138.0	9.602586948665341e+17
14139.0	9.600852033535996e+17
14140.0	9.598992539189247e+17
14141.0	9.597291614699519e+17
14142.0	9.595214519861248e+17
14143.0	9.593668709122047e+17
14144.0	9.591953893097472e+17
14145.0	9.590157229424639e+17
14146.0	9.58837704097792e+17
14147.0	9.586610978947071e+17
14148.0	9.584828382969856e+17
14149.0	9.583048135802876e+17
14150.0	9.581284003151868e+17
14151.0	9.57946422047539e+17
14152.0	9.577719809441792e+17
14153.0	9.57595368030208e+17
14154.0	9.574032663904255e+17
14155.0	9.57005044908032e+17
14156.0	9.570577194942463e+17
14157.0	9.568849938612221e+17
14158.0	9.567043158278141e+17
14159.0	9.565285828788221e+17
14160.0	9.563519632539645e+17
14161.0	9.561313395081216e+17
14162.0	9.559285449097213e+17
14163.0	9.558190073053183e+17
14164.0	9.556269417365501e+17
14165.0	9.553788914368511e+17
14166.0	9.552877357891583e+17
14167.0	9.551037316726781e+17
14168.0	9.549317098438653e+17
14169.0	9.547578886586367e+17
14170.0	9.545781132394495e+17
14171.0	9.543996112109567e+17
14172.0	9.542270046961664e+17
14173.0	9.540032637435901e+17
14174.0	9.538711876272128e+17
14175.0	9.536963673587711e+17
14176.0	9.535192494505983e+17
14177.0	9.533427741097981e+17
14178.0	9.531655337279485e+17
14179.0	9.529795708715005e+17
14180.0	9.528130511306748e+17
14181.0	9.526364726099967e+17
14182.0	9.524592112566271e+17
14183.0	9.522830857207807e+17
14184.0	9.521036248743935e+17
14185.0	9.51817357754368e+17
14186.0	9.514712379162621e+17
14187.0	9.513315919200255e+17
14188.0	9.511681566703616e+17
14189.0	9.509934186102783e+17
14190.0	9.508175313108992e+17
14191.0	9.506410316431357e+17
14192.0	9.504597169143808e+17
14193.0	9.502793668755455e+17
14194.0	9.50112724661043e+17
14195.0	9.499377693360128e+17
14196.0	9.497614835777536e+17
14197.0	9.495844277452799e+17
14198.0	9.494052068130816e+17
14199.0	9.492309443870719e+17
14200.0	9.490120948318207e+17
14201.0	9.488816771432445e+17
14202.0	9.487047907606525e+17
14203.0	9.485191005339647e+17
14204.0	9.483526437076992e+17
14205.0	9.481770005168128e+17
14206.0	9.479205473484799e+17
14207.0	9.478273272643583e+17
14208.0	9.476518124191744e+17
14209.0	9.473794485780477e+17
14210.0	9.472480544555003e+17
14211.0	9.471210324754433e+17
14212.0	9.469492430110719e+17
14213.0	9.467737784975359e+17
14214.0	9.46598313984e+17
14215.0	9.464125860085761e+17
14216.0	9.462474529046525e+17
14217.0	9.460723834945535e+17
14218.0	9.458905377669119e+17
14219.0	9.457219712057341e+17
14220.0	9.455464270004223e+17
14221.0	9.453707896815612e+17
14222.0	9.451875397009404e+17
14223.0	9.450213194334204e+17
14224.0	9.448466040225791e+17
14225.0	9.445248296026111e+17
14226.0	9.444966682066941e+17
14227.0	9.443209889447935e+17
14228.0	9.436524798017537e+17
14229.0	9.439304338112506e+17
14230.0	9.437972629815292e+17
14231.0	9.436175865479167e+17
14232.0	9.434477591789565e+17
14233.0	9.432680575795199e+17
14234.0	9.430983728168957e+17
14235.0	9.429218312060927e+17
14236.0	9.427490476916736e+17
14237.0	9.425732132405245e+17
14238.0	9.423998517510144e+17
14239.0	9.422210544435199e+17
14240.0	9.407682297462794e+17
14241.0	9.418758498025471e+17
14242.0	9.417022106501119e+17
14243.0	9.414254796996609e+17
14244.0	9.413538409873407e+17
14245.0	9.41167029203763e+17
14246.0	9.409834327736319e+17
14247.0	9.408284045869055e+17
14248.0	9.406426346684413e+17
14249.0	9.404801615921152e+17
14250.0	9.403072463765501e+17
14251.0	9.401340719529983e+17
14252.0	9.39960743179059e+17
14253.0	9.397857433944063e+17
14254.0	9.396104189706237e+17
14255.0	9.394125115752447e+17
14256.0	9.391349560246273e+17
14257.0	9.39083803131904e+17
14258.0	9.389168203399165e+17
14259.0	9.387317995241468e+17
14260.0	9.385598313824253e+17
14261.0	9.383845354799103e+17
14262.0	9.382298310934525e+17
14263.0	9.378626189393921e+17
14264.0	9.378528235618303e+17
14265.0	9.377060581539837e+17
14266.0	9.375341051117565e+17
14267.0	9.373622904815613e+17
14268.0	9.371877696864255e+17
14269.0	9.370099874004991e+17
14270.0	9.368421279989757e+17
14271.0	9.366665250734076e+17
14272.0	9.36495488906035e+17
14273.0	9.36322020881203e+17
14274.0	9.358678800990209e+17
14275.0	9.359509835218941e+17
14276.0	9.357903861383167e+17
14277.0	9.356146448007167e+17
14278.0	9.354563484123135e+17
14279.0	9.35283226836992e+17
14280.0	9.351047927562237e+17
14281.0	9.349372487663613e+17
14282.0	9.347645524934655e+17
14283.0	9.345916506996736e+17
14284.0	9.344187858157567e+17
14285.0	9.342459427422207e+17
14286.0	9.340719445573631e+17
14287.0	9.338999193731068e+17
14288.0	9.337269957689341e+17
14289.0	9.32736495779837e+17
14290.0	9.333803323490303e+17
14291.0	9.332090478788608e+17
14292.0	9.330358289956861e+17
14293.0	9.328626981928957e+17
14294.0	9.325998445166591e+17
14295.0	9.325104269885437e+17
14296.0	9.316878056947715e+17
14297.0	9.321740689735676e+17
14298.0	9.318694039584767e+17
14299.0	9.318200613273599e+17
14300.0	9.316508329050111e+17
14301.0	9.31482033140531e+17
14302.0	9.313085022011392e+17
14303.0	9.311196486303741e+17
14304.0	9.309552000368637e+17
14305.0	9.307943518339071e+17
14306.0	9.306024951414781e+17
14307.0	9.304465291083773e+17
14308.0	9.30280058860339e+17
14309.0	9.301074741559295e+17
14310.0	9.298494313463804e+17
14311.0	9.296948192346111e+17
14312.0	9.295720670560253e+17
14313.0	9.292544567410688e+17
14314.0	9.292472928698367e+17
14315.0	9.29075908575232e+17
14316.0	9.288706745696255e+17
14317.0	9.287256799969277e+17
14318.0	9.285613765263356e+17
14319.0	9.283902799609855e+17
14320.0	9.282183453736956e+17
14321.0	9.280447204818941e+17
14322.0	9.278445448069117e+17
14323.0	9.276964925865981e+17
14324.0	9.275324625846271e+17
14325.0	9.27356314399539e+17
14326.0	9.271899062271999e+17
14327.0	9.27014789002035e+17
14328.0	9.268414442897407e+17
14329.0	9.266759706083327e+17
14330.0	9.26504275096371e+17
14331.0	9.26333273322291e+17
14332.0	9.261617556488191e+17
14333.0	9.259910365708285e+17
14334.0	9.258201027444735e+17
14335.0	9.256297492905983e+17
14336.0	9.254599588315135e+17
14337.0	9.253052217294847e+17
14338.0	9.251343306850301e+17
14339.0	9.249587151765503e+17
14340.0	9.247942221234173e+17
14341.0	9.246214109265917e+17
14342.0	9.244505014271999e+17
14343.0	9.242770577293311e+17
14344.0	9.241062824476672e+17
14345.0	9.239396167450623e+17
14346.0	9.237674221109245e+17
14347.0	9.235863816896511e+17
14348.0	9.234273529757695e+17
14349.0	9.232571590246399e+17
14350.0	9.230760657551359e+17
14351.0	9.229018427555837e+17
14352.0	9.227378312085501e+17
14353.0	9.225729204027391e+17
14354.0	9.224025553240063e+17
14355.0	9.222304940687359e+17
14356.0	9.22061630550835e+17
14357.0	9.218936797134847e+17
14358.0	9.217234765348861e+17
14359.0	9.21545325150208e+17
14360.0	9.213817481330688e+17
14361.0	9.212126186962941e+17
14362.0	9.210425656737791e+17
14363.0	9.208724488978431e+17
14364.0	9.206686275338239e+17
14365.0	9.205296492707839e+17
14366.0	9.203546637467647e+17
14367.0	9.201919734054912e+17
14368.0	9.200216083267581e+17
14369.0	9.198528312115199e+17
14370.0	9.196829929373695e+17
14371.0	9.195131999617023e+17
14372.0	9.193390650425341e+17
14373.0	9.191729529880573e+17
14374.0	9.19000301174784e+17
14375.0	9.188249641680895e+17
14376.0	9.1865892257792e+17
14377.0	9.184898317287421e+17
14378.0	9.183188567982077e+17
14379.0	9.181511811071999e+17
14380.0	9.179815366098943e+17
14381.0	9.178047173361663e+17
14382.0	9.176417333936127e+17
14383.0	9.17466934096691e+17
14384.0	9.172932437737471e+17
14385.0	9.171345917083647e+17
14386.0	9.16955292762112e+17
14387.0	9.16795073704755e+17
14388.0	9.166242959065085e+17
14389.0	9.164574683037695e+17
14390.0	9.162864497524736e+17
14391.0	9.161188973740031e+17
14392.0	9.159461658689535e+17
14393.0	9.157810445090816e+17
14394.0	9.155886131970047e+17
14395.0	9.154362416824319e+17
14396.0	9.152739539943423e+17
14397.0	9.151051030593535e+17
14398.0	9.149347597910013e+17
14399.0	9.147659617042431e+17
14400.0	9.145822184734719e+17
14401.0	9.144251568881661e+17
14402.0	9.142588518957055e+17
14403.0	9.124653171736538e+17
14404.0	9.077516048269289e+17
14405.0	9.126493120626623e+17
14406.0	9.13584522736435e+17
14407.0	9.107564386058254e+17
14408.0	9.132429084196861e+17
14409.0	9.130639903162367e+17
14410.0	9.129081593397247e+17
14411.0	9.127417578782719e+17
14412.0	9.125713022025725e+17
14413.0	9.124055751852031e+17
14414.0	9.122359751475199e+17
14415.0	9.120684085084159e+17
14416.0	9.118987891769344e+17
14417.0	9.117258211131391e+17
14418.0	9.115496762834943e+17
14419.0	9.113948670394365e+17
14420.0	9.112233770483711e+17
14421.0	9.110592790986752e+17
14422.0	9.108894928338943e+17
14423.0	9.107186361827325e+17
14424.0	9.002887870939049e+17
14425.0	9.103855681798144e+17
14426.0	9.10219545883443e+17
14427.0	9.100503677927421e+17
14428.0	9.098681907150848e+17
14429.0	9.097149560127485e+17
14430.0	9.095483280588796e+17
14431.0	9.093189088575488e+17
14432.0	9.092064125911039e+17
14433.0	9.070365582032877e+17
14434.0	9.088676906663932e+17
14435.0	9.08695205786419e+17
14436.0	9.085415365541885e+17
14437.0	9.083743172034557e+17
14438.0	9.081601015152639e+17
14439.0	9.080292643962876e+17
14440.0	9.078712045666303e+17
14441.0	9.076958658822144e+17
14442.0	9.075183251881981e+17
14443.0	9.073228135792637e+17
14444.0	9.071982804991996e+17
14445.0	9.070346036576255e+17
14446.0	9.04311258847643e+17
14447.0	9.066960084008957e+17
14448.0	9.065329799987199e+17
14449.0	9.06365798396723e+17
14450.0	9.061949039968256e+17
14451.0	9.060294210879485e+17
14452.0	9.058632905785343e+17
14453.0	9.056681849782271e+17
14454.0	9.055296739606525e+17
14455.0	9.053570355691517e+17
14456.0	9.051899470807037e+17
14457.0	9.050187825676285e+17
14458.0	9.048614366085119e+17
14459.0	9.046926267777021e+17
14460.0	9.045278032134143e+17
14461.0	9.043518253170685e+17
14462.0	9.041380181540863e+17
14463.0	9.040250907131901e+17
14464.0	9.038600591114239e+17
14465.0	9.036721568088063e+17
14466.0	9.035251430981631e+17
14467.0	9.033296809820159e+17
14468.0	9.031908159651837e+17
14469.0	9.030114566209532e+17
14470.0	9.028356246863871e+17
14471.0	9.026840014356477e+17
14472.0	9.02523178398515e+17
14473.0	9.023599998402557e+17
14474.0	9.021950319919104e+17
14475.0	9.020259369484288e+17
14476.0	9.017296815128575e+17
14477.0	9.016958217355263e+17
14478.0	9.015282634850303e+17
14479.0	9.013573229477885e+17
14480.0	9.01185341384294e+17
14481.0	9.010319414263807e+17
14482.0	9.008636852436992e+17
14483.0	9.006920425799677e+17
14484.0	9.005310282825727e+17
14485.0	9.003374980628477e+17
14486.0	8.999877920948224e+17
14487.0	9.00035624776499e+17
14488.0	8.9986466578432e+17
14489.0	8.996981997305855e+17
14490.0	8.995339818237948e+17
14491.0	8.99370978587443e+17
14492.0	8.99205785924403e+17
14493.0	8.990366699094012e+17
14494.0	8.988613572296701e+17
14495.0	8.987088078766077e+17
14496.0	8.984481083949055e+17
14497.0	8.983766886252543e+17
14498.0	8.982113139294207e+17
14499.0	8.98046681625395e+17
14500.0	8.978810946977791e+17
14501.0	8.976657188651007e+17
14502.0	8.972435596509185e+17
14503.0	8.971015505838076e+17
14504.0	8.969452062244861e+17
14505.0	8.967439215755263e+17
14506.0	8.965159200489468e+17
14507.0	8.962941697130495e+17
14508.0	8.962875712339965e+17
14509.0	8.961218987425791e+17
14510.0	8.959542297624572e+17
14511.0	8.957920771309567e+17
14512.0	8.956164196794367e+17
14513.0	8.954617597526013e+17
14514.0	8.952660031963135e+17
14515.0	8.951300372824061e+17
14516.0	8.929277063987215e+17
14517.0	8.948013514883072e+17
14518.0	8.946364381659135e+17
14519.0	8.944706205515773e+17
14520.0	8.943052861210621e+17
14521.0	8.941368210620416e+17
14522.0	8.9397551735767e+17
14523.0	8.937054125686781e+17
14524.0	8.93534495519539e+17
14525.0	8.934785116274685e+17
14526.0	8.933160217739263e+17
14527.0	8.931463865040893e+17
14528.0	8.92865806860288e+17
14529.0	8.928168761098237e+17
14530.0	8.926452888109055e+17
14531.0	8.924929718222845e+17
14532.0	8.921470264672255e+17
14533.0	8.92164900913152e+17
14534.0	8.920009422143488e+17
14535.0	8.918292399915008e+17
14536.0	8.916697834586111e+17
14537.0	8.914977649852413e+17
14538.0	8.91343068148531e+17
14539.0	8.911781892194301e+17
14540.0	8.910142598807552e+17
14541.0	8.908362427138047e+17
14542.0	8.90683706782515e+17
14543.0	8.904477872488445e+17
14544.0	8.903561198960639e+17
14545.0	8.901882932101119e+17
14546.0	8.74701781991413e+17
14547.0	8.763111817346934e+17
14548.0	8.896913050959868e+17
14549.0	8.894505738567681e+17
14550.0	8.893672833679357e+17
14551.0	8.89208632980275e+17
14552.0	8.890441046949888e+17
14553.0	8.888703749455871e+17
14554.0	8.887163517140991e+17
14555.0	8.88552836772659e+17
14556.0	8.883863111598077e+17
14557.0	8.882254570848256e+17
14558.0	8.880615931772927e+17
14559.0	8.863718087589829e+17
14560.0	8.877303228530688e+17
14561.0	8.875647778684927e+17
14562.0	8.873908056883199e+17
14563.0	8.872424456060927e+17
14564.0	8.870739218268159e+17
14565.0	8.86916231934771e+17
14566.0	8.867527111213053e+17
14567.0	8.865882012909567e+17
14568.0	8.864149715025919e+17
14569.0	8.86262289609523e+17
14570.0	8.856734110056448e+17
14571.0	8.859331910959101e+17
14572.0	8.857418318479361e+17
14573.0	8.855742979244033e+17
14574.0	8.854327594582013e+17
14575.0	8.852815522824191e+17
14576.0	8.851159057956864e+17
14577.0	8.849507231989757e+17
14578.0	8.84790114910208e+17
14579.0	8.846293690482685e+17
14580.0	8.844664731860991e+17
14581.0	8.843001606438911e+17
14582.0	8.84140181500723e+17
14583.0	8.839773116432383e+17
14584.0	8.838056278753277e+17
14585.0	8.836512783269885e+17
14586.0	8.834858667212799e+17
14587.0	8.833228735512575e+17
14588.0	8.831622333857791e+17
14589.0	8.830041735561213e+17
14590.0	8.828469282603008e+17
14591.0	8.826868459372544e+17
14592.0	8.825267854245885e+17
14593.0	8.822913817903101e+17
14594.0	8.822152442675199e+17
14595.0	8.820527024046076e+17
14596.0	8.818592183222268e+17
14597.0	8.817016777474045e+17
14598.0	8.815808440434685e+17
14599.0	8.814283089510399e+17
14600.0	8.812701954342911e+17
14601.0	8.811131799863295e+17
14602.0	8.809504166641661e+17
14603.0	8.807986952667136e+17
14604.0	8.806113977827328e+17
14605.0	8.804750141161471e+17
14606.0	8.802579706281983e+17
14607.0	8.801674114105343e+17
14608.0	8.800081092280319e+17
14609.0	8.798471419068416e+17
14610.0	8.796817529503743e+17
14611.0	8.795378035982336e+17
14612.0	8.793825346584573e+17
14613.0	8.79226353876992e+17
14614.0	8.790656499580927e+17
14615.0	8.789100974833663e+17
14616.0	8.787550281924607e+17
14617.0	8.785966378516479e+17
14618.0	8.784366033436672e+17
14619.0	8.782714685620221e+17
14620.0	8.780443537113088e+17
14621.0	8.779701019475964e+17
14622.0	8.778112586219517e+17
14623.0	8.776562732171264e+17
14624.0	8.77459331350528e+17
14625.0	8.773405805379584e+17
14626.0	8.771817875439613e+17
14627.0	8.770209200472063e+17
14628.0	8.768721011081213e+17
14629.0	8.767153322852348e+17
14630.0	8.765576658812925e+17
14631.0	8.764005866799103e+17
14632.0	8.753023811584006e+17
14633.0	8.76018096354099e+17
14634.0	8.759276797427711e+17
14635.0	8.755865007947759e+17
14636.0	8.747813269667839e+17
14637.0	8.75461294109491e+17
14638.0	8.753021806706685e+17
14639.0	8.751391413633024e+17
14640.0	8.749892033839103e+17
14641.0	8.713806591033308e+17
14642.0	8.746750340759552e+17
14643.0	8.745218908094461e+17
14644.0	8.743586048770047e+17
14645.0	8.741917336535039e+17
14646.0	8.740443583938559e+17
14647.0	8.738872775147519e+17
14648.0	8.737395423838208e+17
14649.0	8.735838674354173e+17
14650.0	8.734244025139199e+17
14651.0	8.732706133245952e+17
14652.0	8.730783841779708e+17
14653.0	8.729291349032959e+17
14654.0	8.727804401156093e+17
14655.0	8.723217057316852e+17
14656.0	8.724325242765311e+17
14657.0	8.718984006336512e+17
14658.0	8.721574676922369e+17
14659.0	8.720207493201919e+17
14660.0	8.718576252878845e+17
14661.0	8.717089883815936e+17
14662.0	8.715525475532799e+17
14663.0	8.713920281837567e+17
14664.0	8.712406029041664e+17
14665.0	8.710842207961085e+17
14666.0	8.709264537288705e+17
