# Flux units: erg / (cm m2 s)
# Wavelength units: Angstrom
wave	flux
14000.0	1.8084257729609723e+18
14001.0	1.8079918420131835e+18
14002.0	1.8076024830951421e+18
14003.0	1.8071905437220867e+18
14004.0	1.8067787972870144e+18
14005.0	1.8063669233451003e+18
14006.0	1.8059530210377725e+18
14007.0	1.8055406689452032e+18
14008.0	1.805102778574438e+18
14009.0	1.8047204493099005e+18
14010.0	1.804305203147571e+18
14011.0	1.8037251611033597e+18
14012.0	1.8034867249872893e+18
14013.0	1.803075768759091e+18
14014.0	1.8026632304394237e+18
14015.0	1.8022534150619133e+18
14016.0	1.80184347049984e+18
14017.0	1.801432918602547e+18
14018.0	1.80102213182423e+18
14019.0	1.8006121537077248e+18
14020.0	1.8002016974405627e+18
14021.0	1.7997914290782203e+18
14022.0	1.7993812177584128e+18
14023.0	1.7989656008196093e+18
14024.0	1.7985570537996288e+18
14025.0	1.7981524074823675e+18
14026.0	1.7977423790342144e+18
14027.0	1.7973335300243453e+18
14028.0	1.79692422299648e+18
14029.0	1.796514625722777e+18
14030.0	1.7959351373266941e+18
14031.0	1.7956899248930813e+18
14032.0	1.7952816630857725e+18
14033.0	1.7948592127868925e+18
14034.0	1.7944641848475643e+18
14035.0	1.794055767012147e+18
14036.0	1.7936473307217915e+18
14037.0	1.7932386595504125e+18
14038.0	1.792830768519577e+18
14039.0	1.7924214010937341e+18
14040.0	1.7920109028835325e+18
14041.0	1.7916055250796541e+18
14042.0	1.7911961341657088e+18
14043.0	1.7907792841015293e+18
14044.0	1.7903805064544253e+18
14045.0	1.789975333332582e+18
14046.0	1.789567388614656e+18
14047.0	1.789159254314188e+18
14048.0	1.7887541566898176e+18
14049.0	1.7883450425999355e+18
14050.0	1.787934457148211e+18
14051.0	1.787525109855027e+18
14052.0	1.7871197404397565e+18
14053.0	1.786714273716633e+18
14054.0	1.786307929545113e+18
14055.0	1.7859010652798968e+18
14056.0	1.7854953032777723e+18
14057.0	1.7850891403001853e+18
14058.0	1.7846831350284285e+18
14059.0	1.7842772186759165e+18
14060.0	1.7838714046644221e+18
14061.0	1.783463711604736e+18
14062.0	1.783060113863475e+18
14063.0	1.7826500552163323e+18
14064.0	1.782222882131148e+18
14065.0	1.7818415980871675e+18
14066.0	1.781438755320627e+18
14067.0	1.7810297402163197e+18
14068.0	1.7806288738058237e+18
14069.0	1.780218581955379e+18
14070.0	1.7798131202654203e+18
14071.0	1.779407754205593e+18
14072.0	1.779004037346099e+18
14073.0	1.778599637653913e+18
14074.0	1.7781953688240125e+18
14075.0	1.7777860047536125e+18
14076.0	1.777382343258931e+18
14077.0	1.776943030180249e+18
14078.0	1.7765763926458365e+18
14079.0	1.7761725919002621e+18
14080.0	1.775771923460915e+18
14081.0	1.7753683492077565e+18
14082.0	1.7749599984812027e+18
14083.0	1.7745612426444797e+18
14084.0	1.774158458598195e+18
14085.0	1.7736663358767104e+18
14086.0	1.7733493605793787e+18
14087.0	1.772949549455769e+18
14088.0	1.772543272393113e+18
14089.0	1.772139974964019e+18
14090.0	1.771740885260697e+18
14091.0	1.7713378780774397e+18
14092.0	1.7709307420213243e+18
14093.0	1.7705284696801275e+18
14094.0	1.7701263802105853e+18
14095.0	1.7697243763048448e+18
14096.0	1.769314027411865e+18
14097.0	1.768914491434598e+18
14098.0	1.768514913514291e+18
14099.0	1.768117342149017e+18
14100.0	1.7677125767135227e+18
14101.0	1.7673145775292413e+18
14102.0	1.7669131843141624e+18
14103.0	1.766508165542707e+18
14104.0	1.7661111276929021e+18
14105.0	1.7657093704122365e+18
14106.0	1.7653093311184893e+18
14107.0	1.764906099120537e+18
14108.0	1.7645046471852027e+18
14109.0	1.7641061128077312e+18
14110.0	1.7637015939973115e+18
14111.0	1.7632951340630013e+18
14112.0	1.7629044094795776e+18
14113.0	1.7625066065887232e+18
14114.0	1.762102710213017e+18
14115.0	1.7617064206270461e+18
14116.0	1.7612835274096635e+18
14117.0	1.7606248002224125e+18
14118.0	1.7605015128506365e+18
14119.0	1.7600967574814715e+18
14120.0	1.7596988203728893e+18
14121.0	1.7592983012507648e+18
14122.0	1.7588977552850941e+18
14123.0	1.7584979592609787e+18
14124.0	1.758097562612531e+18
14125.0	1.75757505635287e+18
14126.0	1.757307476534886e+18
14127.0	1.7569108564377597e+18
14128.0	1.756511988193689e+18
14129.0	1.7561107426181115e+18
14130.0	1.755709409801011e+18
14131.0	1.7553176416747515e+18
14132.0	1.754918041944064e+18
14133.0	1.7543662007222262e+18
14134.0	1.7541237330411517e+18
14135.0	1.753721828120985e+18
14136.0	1.7533101387284475e+18
14137.0	1.7529307689648125e+18
14138.0	1.752529707938611e+18
14139.0	1.7521361865932797e+18
14140.0	1.7517295605645312e+18
14141.0	1.7513417250177024e+18
14142.0	1.7509176120967163e+18
14143.0	1.7505375108464635e+18
14144.0	1.7501461067857915e+18
14145.0	1.749748912907878e+18
14146.0	1.7493518213709821e+18
14147.0	1.748955471387033e+18
14148.0	1.748558228855193e+18
14149.0	1.7481613168345085e+18
14150.0	1.7477671327891453e+18
14151.0	1.7473677125746688e+18
14152.0	1.7469752901369853e+18
14153.0	1.7465794216591357e+18
14154.0	1.7461764144758784e+18
14155.0	1.7457017786466307e+18
14156.0	1.7453896184102907e+18
14157.0	1.744997194294886e+18
14158.0	1.7446003359612923e+18
14159.0	1.7442064891379707e+18
14160.0	1.743811422611046e+18
14161.0	1.7433982366908413e+18
14162.0	1.7429914512785405e+18
14163.0	1.742626754868019e+18
14164.0	1.7422204996157437e+18
14165.0	1.7417393475158008e+18
14166.0	1.7414429259857917e+18
14167.0	1.7410451264503803e+18
14168.0	1.740653089888665e+18
14169.0	1.7402609358864381e+18
14170.0	1.7398651982708739e+18
14171.0	1.7394718782521341e+18
14172.0	1.7390792360329213e+18
14173.0	1.7386395488223227e+18
14174.0	1.7382908108996605e+18
14175.0	1.737896883545702e+18
14176.0	1.737498426343424e+18
14177.0	1.7371056499064832e+18
14178.0	1.7367116856426493e+18
14179.0	1.7363098327318525e+18
14180.0	1.7359267082272763e+18
14181.0	1.7355338428710907e+18
14182.0	1.7351408684630013e+18
14183.0	1.7347484309258235e+18
14184.0	1.7343544062640128e+18
14185.0	1.733963416600576e+18
14186.0	1.7335150857682944e+18
14187.0	1.7331718809714685e+18
14188.0	1.7327864110120957e+18
14189.0	1.732393173201715e+18
14190.0	1.7320022909124603e+18
14191.0	1.7316103214596096e+18
14192.0	1.7312168068251648e+18
14193.0	1.7308190223892477e+18
14194.0	1.7304353626914816e+18
14195.0	1.730044732060467e+18
14196.0	1.7296533414215677e+18
14197.0	1.7292621521092605e+18
14198.0	1.728869526667264e+18
14199.0	1.7284785705582587e+18
14200.0	1.728057584910336e+18
14201.0	1.7276981632565243e+18
14202.0	1.7273078597812221e+18
14203.0	1.7269064044904443e+18
14204.0	1.726525903942451e+18
14205.0	1.7261356340215805e+18
14206.0	1.7257102191886333e+18
14207.0	1.7253559833722875e+18
14208.0	1.7249660355739648e+18
14209.0	1.7245349332647928e+18
14210.0	1.7241626938179581e+18
14211.0	1.7237948634234877e+18
14212.0	1.7234007850745853e+18
14213.0	1.7230106493714427e+18
14214.0	1.722621854167859e+18
14215.0	1.7222288009068541e+18
14216.0	1.7218435775725563e+18
14217.0	1.7214544199811067e+18
14218.0	1.7210619958657021e+18
14219.0	1.7206764923518976e+18
14220.0	1.7202877223141376e+18
14221.0	1.7198979322216443e+18
14222.0	1.7195014832521216e+18
14223.0	1.7191215480963072e+18
14224.0	1.7187334978011133e+18
14225.0	1.7182544948625405e+18
14226.0	1.717957007979315e+18
14227.0	1.7175689694281723e+18
14228.0	1.7169500612853757e+18
14229.0	1.716768154320896e+18
14230.0	1.7164053319254013e+18
14231.0	1.7160111814344696e+18
14232.0	1.715630078584422e+18
14233.0	1.7152404428423168e+18
14234.0	1.7148552497070075e+18
14235.0	1.7144672245776381e+18
14236.0	1.714080571824537e+18
14237.0	1.7136933754896381e+18
14238.0	1.7133066942152704e+18
14239.0	1.7129179426324475e+18
14240.0	1.7121062592446461e+18
14241.0	1.7121465430179837e+18
14242.0	1.711760061392486e+18
14243.0	1.71132924765143e+18
14244.0	1.710987294434918e+18
14245.0	1.7105950716461053e+18
14246.0	1.7102050282176507e+18
14247.0	1.709827324431565e+18
14248.0	1.7094386215026685e+18
14249.0	1.7090564918870016e+18
14250.0	1.7086665440886781e+18
14251.0	1.7082732660129787e+18
14252.0	1.7078841419759613e+18
14253.0	1.7074964188364795e+18
14254.0	1.70711058481152e+18
14255.0	1.7067170819211261e+18
14256.0	1.7062555558084603e+18
14257.0	1.705954654761779e+18
14258.0	1.705571060495155e+18
14259.0	1.705180600991744e+18
14260.0	1.704798197907456e+18
14261.0	1.7044109847953403e+18
14262.0	1.704039300674355e+18
14263.0	1.703527916031181e+18
14264.0	1.7032516422598653e+18
14265.0	1.7028838387089405e+18
14266.0	1.702502281196339e+18
14267.0	1.702118175224627e+18
14268.0	1.7017344031195133e+18
14269.0	1.701348946581913e+18
14270.0	1.7009669293735933e+18
14271.0	1.700581779859046e+18
14272.0	1.7001997727170557e+18
14273.0	1.6998163009241088e+18
14274.0	1.6992477042966525e+18
14275.0	1.6990335750111227e+18
14276.0	1.6986556883533821e+18
14277.0	1.6982762984570875e+18
14278.0	1.697900948514406e+18
14279.0	1.6975180857343997e+18
14280.0	1.6971331576791037e+18
14281.0	1.6967528769126397e+18
14282.0	1.6963704822169597e+18
14283.0	1.695988097587609e+18
14284.0	1.6956058136215547e+18
14285.0	1.6952236135415805e+18
14286.0	1.6948410678509565e+18
14287.0	1.6944595908689915e+18
14288.0	1.6940776458027003e+18
14289.0	1.6934232756584438e+18
14290.0	1.6933121349910523e+18
14291.0	1.6929323575410685e+18
14292.0	1.6925511640940544e+18
14293.0	1.6921691754070013e+18
14294.0	1.6917489363451904e+18
14295.0	1.6914035253444603e+18
14296.0	1.6908054259826685e+18
14297.0	1.6906453159772157e+18
14298.0	1.6902034812829693e+18
14299.0	1.6898791676313595e+18
14300.0	1.689500601496371e+18
14301.0	1.6891155442565123e+18
14302.0	1.6887352282578941e+18
14303.0	1.6883456126484475e+18
14304.0	1.6879706066386944e+18
14305.0	1.687594095712665e+18
14306.0	1.6871914458841085e+18
14307.0	1.686829576434483e+18
14308.0	1.6864551811153923e+18
14309.0	1.6860742410043387e+18
14310.0	1.6855937297940477e+18
14311.0	1.6852634619084795e+18
14312.0	1.6849234464604157e+18
14313.0	1.6845329450139648e+18
14314.0	1.684176734519296e+18
14315.0	1.6837987891412987e+18
14316.0	1.6834049406402557e+18
14317.0	1.6830305503543293e+18
14318.0	1.6826619230420987e+18
14319.0	1.6822832629547005e+18
14320.0	1.6819044166402043e+18
14321.0	1.6815259713011712e+18
14322.0	1.6811343155822587e+18
14323.0	1.680765309104947e+18
14324.0	1.680390417180262e+18
14325.0	1.6800097421492221e+18
14326.0	1.6796344945475581e+18
14327.0	1.6792545006714875e+18
14328.0	1.6788767264210936e+18
14329.0	1.6784823829921787e+18
14330.0	1.6780908078039035e+18
14331.0	1.6777130536861693e+18
14332.0	1.6773357022216187e+18
14333.0	1.6769583037808637e+18
14334.0	1.6765810026479616e+18
14335.0	1.6761968715104253e+18
14336.0	1.675813208457216e+18
14337.0	1.675449498546995e+18
14338.0	1.6750721940586493e+18
14339.0	1.6746925927694333e+18
14340.0	1.6743192359600123e+18
14341.0	1.673941812353433e+18
14342.0	1.673566081567948e+18
14343.0	1.673185148167782e+18
14344.0	1.6728099324428288e+18
14345.0	1.6724372433666048e+18
14346.0	1.672060356630937e+18
14347.0	1.671678297479577e+18
14348.0	1.6713090460549115e+18
14349.0	1.6709333270134781e+18
14350.0	1.6705503769919485e+18
14351.0	1.6701727302483968e+18
14352.0	1.6698036751171581e+18
14353.0	1.6694305649328128e+18
14354.0	1.6690544600154112e+18
14355.0	1.6686777376964603e+18
14356.0	1.6683018374610936e+18
14357.0	1.6679246269251581e+18
14358.0	1.667549652792115e+18
14359.0	1.6671702981279744e+18
14360.0	1.666799216309043e+18
14361.0	1.6664251531788285e+18
14362.0	1.6660507343716347e+18
14363.0	1.665676137725952e+18
14364.0	1.665276189029171e+18
14365.0	1.6649248120504315e+18
14366.0	1.6645492037386237e+18
14367.0	1.664179274514432e+18
14368.0	1.6638051224649723e+18
14369.0	1.6634313596469243e+18
14370.0	1.663057569985331e+18
14371.0	1.6626838776315904e+18
14372.0	1.662308520978022e+18
14373.0	1.6619366455967741e+18
14374.0	1.6615632451665915e+18
14375.0	1.6611895310024704e+18
14376.0	1.6608167127416832e+18
14377.0	1.6604433928421376e+18
14378.0	1.6600697625640957e+18
14379.0	1.6596975633825787e+18
14380.0	1.6593246478139387e+18
14381.0	1.6589483147263997e+18
14382.0	1.6585788015771643e+18
14383.0	1.6581998545993723e+18
14384.0	1.6578282057105405e+18
14385.0	1.6574618450001915e+18
14386.0	1.657085233410867e+18
14387.0	1.65671727047639e+18
14388.0	1.656344567978393e+18
14389.0	1.6559731791364093e+18
14390.0	1.6556006460882944e+18
14391.0	1.6552293511987195e+18
14392.0	1.6548547176431613e+18
14393.0	1.6544862010605565e+18
14394.0	1.6541037476446203e+18
14395.0	1.653736657125376e+18
14396.0	1.6533717124120576e+18
14397.0	1.6530006876356605e+18
14398.0	1.6526279012515837e+18
14399.0	1.6522583813914621e+18
14400.0	1.6518801826775037e+18
14401.0	1.6515148856426493e+18
14402.0	1.651145642606592e+18
14403.0	1.6491752407957468e+18
14404.0	1.6458724663099382e+18
14405.0	1.649653643109988e+18
14406.0	1.6496635433451515e+18
14407.0	1.6468185687523338e+18
14408.0	1.6489157962498043e+18
14409.0	1.648547454150246e+18
14410.0	1.6481807495069693e+18
14411.0	1.6478125567246333e+18
14412.0	1.6474422651125757e+18
14413.0	1.6470735740469243e+18
14414.0	1.64670317002752e+18
14415.0	1.6463339706122235e+18
14416.0	1.6459637947629565e+18
14417.0	1.6455877720539133e+18
14418.0	1.6452126653808637e+18
14419.0	1.644856496829235e+18
14420.0	1.6444850341675005e+18
14421.0	1.644113173885747e+18
14422.0	1.643743345324851e+18
14423.0	1.6433733926125565e+18
14424.0	1.633088871963026e+18
14425.0	1.642636804043571e+18
14426.0	1.6422695793065981e+18
14427.0	1.6419013949128704e+18
14428.0	1.64152484036608e+18
14429.0	1.6411640933122043e+18
14430.0	1.6407966051729403e+18
14431.0	1.64038780649472e+18
14432.0	1.6400529382965243e+18
14433.0	1.6378404211261425e+18
14434.0	1.6393203661930493e+18
14435.0	1.6389486384513021e+18
14436.0	1.6385894533562365e+18
14437.0	1.6382219115298808e+18
14438.0	1.6378022529597437e+18
14439.0	1.63747615253463e+18
14440.0	1.6371195477753853e+18
14441.0	1.63675057988567e+18
14442.0	1.636381635484057e+18
14443.0	1.6360035810541565e+18
14444.0	1.6356502260416512e+18
14445.0	1.6352847058698237e+18
14446.0	1.632896036320052e+18
14447.0	1.6345484880773115e+18
14448.0	1.6341849643941885e+18
14449.0	1.6338185281863675e+18
14450.0	1.63345033372631e+18
14451.0	1.6330856272494587e+18
14452.0	1.6327188034879485e+18
14453.0	1.6323197490167805e+18
14454.0	1.631987382301491e+18
14455.0	1.6316190318133248e+18
14456.0	1.6312486949027837e+18
14457.0	1.630878852920115e+18
14458.0	1.630521741488947e+18
14459.0	1.630154746599833e+18
14460.0	1.6297925332172797e+18
14461.0	1.6294203625570304e+18
14462.0	1.6290183502626816e+18
14463.0	1.6286954123427837e+18
14464.0	1.6283321352847357e+18
14465.0	1.627960875627315e+18
14466.0	1.6276012811681787e+18
14467.0	1.6272107226791933e+18
14468.0	1.6268698029391872e+18
14469.0	1.6265007914287101e+18
14470.0	1.6261342193254397e+18
14471.0	1.625773814526771e+18
14472.0	1.6254114467938301e+18
14473.0	1.6250496444530685e+18
14474.0	1.624686045272473e+18
14475.0	1.6243199529975805e+18
14476.0	1.6238369319157757e+18
14477.0	1.6235939860840443e+18
14478.0	1.6232297946677243e+18
14479.0	1.6228649220964344e+18
14480.0	1.6224976872931325e+18
14481.0	1.6221392286515197e+18
14482.0	1.621774755377971e+18
14483.0	1.6214089768370176e+18
14484.0	1.6210474982965248e+18
14485.0	1.6206728026652672e+18
14486.0	1.620234628759552e+18
14487.0	1.6199591233847293e+18
14488.0	1.6195884677070848e+18
14489.0	1.61922968190976e+18
14490.0	1.6188686613872637e+18
14491.0	1.6185074982584315e+18
14492.0	1.6181449107439613e+18
14493.0	1.617780786436505e+18
14494.0	1.6174137965805565e+18
14495.0	1.6170577370808315e+18
14496.0	1.6166553573654525e+18
14497.0	1.616332976449126e+18
14498.0	1.6159675670069248e+18
14499.0	1.615603628926566e+18
14500.0	1.6152415262736381e+18
14501.0	1.6148264210399224e+18
14502.0	1.6144027795587072e+18
14503.0	1.6141487238545405e+18
14504.0	1.613792994865971e+18
14505.0	1.6133853974364157e+18
14506.0	1.6129568016433147e+18
14507.0	1.612637839923609e+18
14508.0	1.6123486292410363e+18
14509.0	1.611987375515238e+18
14510.0	1.611625361781555e+18
14511.0	1.611265195219353e+18
14512.0	1.6108994082897915e+18
14513.0	1.6105432263163901e+18
14514.0	1.6101650427019261e+18
14515.0	1.6098204873392125e+18
14516.0	1.6087854337753093e+18
14517.0	1.6091002347454461e+18
14518.0	1.608739725928038e+18
14519.0	1.6083793194516472e+18
14520.0	1.608018954918297e+18
14521.0	1.607657313638809e+18
14522.0	1.607297786288537e+18
14523.0	1.6068193369980925e+18
14524.0	1.606453801726771e+18
14525.0	1.6062165903474685e+18
14526.0	1.6058583716200443e+18
14527.0	1.6054922474684413e+18
14528.0	1.6050951995523072e+18
14529.0	1.6047760818044925e+18
14530.0	1.6044135865647104e+18
14531.0	1.6040593339711485e+18
14532.0	1.603517439960678e+18
14533.0	1.6033410191458301e+18
14534.0	1.6029820336996355e+18
14535.0	1.602619280090726e+18
14536.0	1.6022624639385595e+18
14537.0	1.6019008360808443e+18
14538.0	1.6015454996791293e+18
14539.0	1.6011868145451005e+18
14540.0	1.600827996871065e+18
14541.0	1.600462439789363e+18
14542.0	1.60010994712576e+18
14543.0	1.5996745615933435e+18
14544.0	1.5993933452541944e+18
14545.0	1.599032299565875e+18
14546.0	1.5866810221985702e+18
14547.0	1.5877373610164116e+18
14548.0	1.5979560763916285e+18
14549.0	1.5975664624599037e+18
14550.0	1.597242101832089e+18
14551.0	1.5968860087779325e+18
14552.0	1.5965271709712381e+18
14553.0	1.5961671822475264e+18
14554.0	1.5958124515033085e+18
14555.0	1.5954545079222267e+18
14556.0	1.595093982327603e+18
14557.0	1.594739650881126e+18
14558.0	1.5943820696879104e+18
14559.0	1.5935211552374766e+18
14560.0	1.5936585254043648e+18
14561.0	1.593308047684403e+18
14562.0	1.5929451346919421e+18
14563.0	1.592595685415321e+18
14564.0	1.5922344283340797e+18
14565.0	1.5918816454246397e+18
14566.0	1.591524698410188e+18
14567.0	1.5911676758982653e+18
14568.0	1.5907991073062907e+18
14569.0	1.590454184522547e+18
14570.0	1.5899546362052605e+18
14571.0	1.589739882807296e+18
14572.0	1.5893694301339648e+18
14573.0	1.5890140450783224e+18
14574.0	1.588659725375897e+18
14575.0	1.5883139905748987e+18
14576.0	1.5879569798070272e+18
14577.0	1.5876004371234813e+18
14578.0	1.5872456627585021e+18
14579.0	1.5868901518737405e+18
14580.0	1.5865341997481981e+18
14581.0	1.5861747042746363e+18
14582.0	1.5858221562462205e+18
14583.0	1.585466392025497e+18
14584.0	1.585106700258508e+18
14585.0	1.5847547964751867e+18
14586.0	1.5843980507873275e+18
14587.0	1.5840308528939003e+18
14588.0	1.5836740518412285e+18
14589.0	1.583327038616371e+18
14590.0	1.5829858621849595e+18
14591.0	1.58264415223808e+18
14592.0	1.58230189703168e+18
14593.0	1.581927842290073e+18
14594.0	1.5816214685155323e+18
14595.0	1.5812785371873277e+18
14596.0	1.580910522243481e+18
14597.0	1.580573603869491e+18
14598.0	1.5802553669255163e+18
14599.0	1.5799165812473853e+18
14600.0	1.5795751095369728e+18
14601.0	1.5792349682597885e+18
14602.0	1.578890362565427e+18
14603.0	1.5785534777458685e+18
14604.0	1.5781992318631933e+18
14605.0	1.5778660380311547e+18
14606.0	1.5775094936698877e+18
14607.0	1.5771906594570237e+18
14608.0	1.57684980514816e+18
14609.0	1.5765001042132992e+18
14610.0	1.5761579043717115e+18
14611.0	1.5758280156512256e+18
14612.0	1.5754892417171456e+18
14613.0	1.5751490769518592e+18
14614.0	1.5748076186632187e+18
14615.0	1.5744669455482883e+18
14616.0	1.5741282185904125e+18
14617.0	1.573787886052966e+18
14618.0	1.573442986757324e+18
14619.0	1.5730969365446653e+18
14620.0	1.5727072957693947e+18
14621.0	1.572427240413593e+18
14622.0	1.5720864616022016e+18
14623.0	1.5717473437351933e+18
14624.0	1.5713899001151488e+18
14625.0	1.571066140111667e+18
14626.0	1.5707241768288253e+18
14627.0	1.5703798647357437e+18
14628.0	1.5700470735568893e+18
14629.0	1.5697070513979387e+18
14630.0	1.5693664974012416e+18
14631.0	1.569026138020249e+18
14632.0	1.5678543031697413e+18
14633.0	1.5682719316967416e+18
14634.0	1.5680046018592765e+18
14635.0	1.5675920316628984e+18
14636.0	1.5670340399136763e+18
14637.0	1.5669872449028093e+18
14638.0	1.5666461976559613e+18
14639.0	1.5663037461561341e+18
14640.0	1.565966017442611e+18
14641.0	1.5624851712638948e+18
14642.0	1.5652937392979965e+18
14643.0	1.564955039183667e+18
14644.0	1.564611530719232e+18
14645.0	1.5642669669679104e+18
14646.0	1.5639282215550976e+18
14647.0	1.5635880618229757e+18
14648.0	1.563254314342809e+18
