# Flux units: erg / (cm m2 s)
# Wavelength units: Angstrom
wave	flux
14000.0	1.9580482819719163e+18
14001.0	1.9576198002638845e+18
14002.0	1.957316313848217e+18
14003.0	1.9569273055739896e+18
14004.0	1.9565372084584443e+18
14005.0	1.9561469788028925e+18
14006.0	1.9557500382609405e+18
14007.0	1.9553584865607677e+18
14008.0	1.954886278394675e+18
14009.0	1.954585469622681e+18
14010.0	1.954184368331161e+18
14011.0	1.9532473507512317e+18
14012.0	1.9534167989551101e+18
14013.0	1.952992553494118e+18
14014.0	1.952361282220851e+18
14015.0	1.9519751092961277e+18
14016.0	1.9515881142878205e+18
14017.0	1.9511990741368827e+18
14018.0	1.9508099182231547e+18
14019.0	1.9504211599294461e+18
14020.0	1.950031639950131e+18
14021.0	1.9496421837242365e+18
14022.0	1.949246796752486e+18
14023.0	1.94884064551895e+18
14024.0	1.9484550883180544e+18
14025.0	1.9480875850792955e+18
14026.0	1.947699283125862e+18
14027.0	1.9473128954527736e+18
14028.0	1.946918837236531e+18
14029.0	1.946532327089766e+18
14030.0	1.9441728012419087e+18
14031.0	1.945707289038028e+18
14032.0	1.9453698354708477e+18
14033.0	1.9449308344483837e+18
14034.0	1.944593187943219e+18
14035.0	1.944210197656371e+18
14036.0	1.9438174614847488e+18
14037.0	1.9434362965590008e+18
14038.0	1.9430492260532221e+18
14039.0	1.94265832530903e+18
14040.0	1.9422683288567805e+18
14041.0	1.9418853603803133e+18
14042.0	1.9414909917855736e+18
14043.0	1.941078646403891e+18
14044.0	1.9407175738720253e+18
14045.0	1.940338113511424e+18
14046.0	1.9399509171765243e+18
14047.0	1.9395557415976955e+18
14048.0	1.939178843117977e+18
14049.0	1.9387963494367227e+18
14050.0	1.9384103560282107e+18
14051.0	1.9380164035084283e+18
14052.0	1.9376348761948155e+18
14053.0	1.9372524898877437e+18
14054.0	1.936867066904576e+18
14055.0	1.9364814409170944e+18
14056.0	1.9360958904270845e+18
14057.0	1.935710472477081e+18
14058.0	1.9353251065364477e+18
14059.0	1.9349398597140475e+18
14060.0	1.9345546514792443e+18
14061.0	1.9341634554560507e+18
14062.0	1.9337844547911675e+18
14063.0	1.9333848701599741e+18
14064.0	1.9326736554524672e+18
14065.0	1.9326221963755515e+18
14066.0	1.9322453717155837e+18
14067.0	1.931840289190707e+18
14068.0	1.9314763829870587e+18
14069.0	1.9310872203624445e+18
14070.0	1.9307063557488635e+18
14071.0	1.930320959609241e+18
14072.0	1.9299394490728445e+18
14073.0	1.9295554353758203e+18
14074.0	1.9291714669772797e+18
14075.0	1.9287701593260024e+18
14076.0	1.928379324012953e+18
14077.0	1.9275723550228477e+18
14078.0	1.9276027503050747e+18
14079.0	1.9272436356743165e+18
14080.0	1.9268698963443707e+18
14081.0	1.926486694664601e+18
14082.0	1.9260998825279483e+18
14083.0	1.925718965904998e+18
14084.0	1.92533647893463e+18
14085.0	1.9245208260575227e+18
14086.0	1.9245339441627133e+18
14087.0	1.9241885214179325e+18
14088.0	1.923790361172377e+18
14089.0	1.923404783838822e+18
14090.0	1.9230337288634365e+18
14091.0	1.922658603735449e+18
14092.0	1.9222765110296573e+18
14093.0	1.9218942740398075e+18
14094.0	1.921512003495526e+18
14095.0	1.9211292397010941e+18
14096.0	1.920656578550169e+18
14097.0	1.9203364843683837e+18
14098.0	1.919942852293427e+18
14099.0	1.919602747926118e+18
14100.0	1.9192108673925115e+18
14101.0	1.9188404717617147e+18
14102.0	1.9184588823724027e+18
14103.0	1.9180644802232315e+18
14104.0	1.9176939587633147e+18
14105.0	1.9173150654726144e+18
14106.0	1.9169342797119483e+18
14107.0	1.9165522205605883e+18
14108.0	1.9161617895784443e+18
14109.0	1.915786640962355e+18
14110.0	1.915404966009241e+18
14111.0	1.91501929807872e+18
14112.0	1.9146422385377277e+18
14113.0	1.9142581610872832e+18
14114.0	1.913875513055641e+18
14115.0	1.9135031796563965e+18
14116.0	1.9130621502685181e+18
14117.0	1.9093657286082565e+18
14118.0	1.9123619145711616e+18
14119.0	1.9119273075015677e+18
14120.0	1.9115588211179515e+18
14121.0	1.9112069575999488e+18
14122.0	1.9107867386707963e+18
14123.0	1.9104192001998843e+18
14124.0	1.910032371286016e+18
14125.0	1.909283090753126e+18
14126.0	1.9093197993017341e+18
14127.0	1.908951728993075e+18
14128.0	1.9085718055813117e+18
14129.0	1.9081831949271037e+18
14130.0	1.9077960405352443e+18
14131.0	1.9074366071373821e+18
14132.0	1.907052185754009e+18
14133.0	1.906181978403634e+18
14134.0	1.9062993568399355e+18
14135.0	1.9058981716623355e+18
14136.0	1.9054612258488317e+18
14137.0	1.9051565750943741e+18
14138.0	1.9047462731775997e+18
14139.0	1.9044079153184768e+18
14140.0	1.904022539311513e+18
14141.0	1.9036275113721853e+18
14142.0	1.9030081754103805e+18
14143.0	1.9028895554600955e+18
14144.0	1.902519386321715e+18
14145.0	1.90214101312471e+18
14146.0	1.9017585848745981e+18
14147.0	1.901383370827366e+18
14148.0	1.9009999443329021e+18
14149.0	1.9006234317291517e+18
14150.0	1.9002560912293883e+18
14151.0	1.8998625665286136e+18
14152.0	1.8995021348864e+18
14153.0	1.8991250954780664e+18
14154.0	1.89872505618432e+18
14155.0	1.8982027411849216e+18
14156.0	1.8979708834152443e+18
14157.0	1.8976181541928955e+18
14158.0	1.897237432185651e+18
14159.0	1.8968655987474432e+18
14160.0	1.8964833600798717e+18
14161.0	1.8960580358438907e+18
14162.0	1.895639023196569e+18
14163.0	1.8953573790384125e+18
14164.0	1.8948712843706365e+18
14165.0	1.8945294284619773e+18
14166.0	1.8942308225384445e+18
14167.0	1.893844038923059e+18
14168.0	1.893473019179827e+18
14169.0	1.8931064470765565e+18
14170.0	1.8927238678315003e+18
14171.0	1.8923532473860093e+18
14172.0	1.8919806153523197e+18
14173.0	1.891558988814745e+18
14174.0	1.891224615544422e+18
14175.0	1.890855488271155e+18
14176.0	1.8904794353631227e+18
14177.0	1.8901053873324027e+18
14178.0	1.889730010546176e+18
14179.0	1.8893472886947837e+18
14180.0	1.888981968171827e+18
14181.0	1.8886074939998203e+18
14182.0	1.8882323588055037e+18
14183.0	1.887858691617587e+18
14184.0	1.88747952989143e+18
14185.0	1.8871085806125053e+18
14186.0	1.8861092021207037e+18
14187.0	1.8863357364797435e+18
14188.0	1.8859843376906237e+18
14189.0	1.8856084039008253e+18
14190.0	1.8852358356205565e+18
14191.0	1.8845120732332027e+18
14192.0	1.8840338722455547e+18
14193.0	1.883563204227891e+18
14194.0	1.8832884219510781e+18
14195.0	1.8829212743892987e+18
14196.0	1.8825476541775864e+18
14197.0	1.882174283946393e+18
14198.0	1.881796445942579e+18
14199.0	1.881425349024153e+18
14200.0	1.8806719094194173e+18
14201.0	1.8806624688799736e+18
14202.0	1.8803077381357563e+18
14203.0	1.8799258383679483e+18
14204.0	1.8795603165184e+18
14205.0	1.8791877096505344e+18
14206.0	1.878702056223539e+18
14207.0	1.8784446735974397e+18
14208.0	1.87807271265239e+18
14209.0	1.877517457267097e+18
14210.0	1.8771624245329915e+18
14211.0	1.8768709422153725e+18
14212.0	1.8765023887228925e+18
14213.0	1.8761265606295547e+18
14214.0	1.875757914862387e+18
14215.0	1.87537569129431e+18
14216.0	1.875014818411315e+18
14217.0	1.8746428306227197e+18
14218.0	1.8742599963639803e+18
14219.0	1.8738989355761661e+18
14220.0	1.8735237768937472e+18
14221.0	1.8731497238298624e+18
14222.0	1.8727413798141947e+18
14223.0	1.8724116437663736e+18
14224.0	1.8720402045927421e+18
14225.0	1.870521411882189e+18
14226.0	1.8712918786834424e+18
14227.0	1.8709262377156603e+18
14228.0	1.8677527283236872e+18
14229.0	1.8695790037827558e+18
14230.0	1.8697343457034235e+18
14231.0	1.869327592167833e+18
14232.0	1.868992827988377e+18
14233.0	1.8686177649360893e+18
14234.0	1.8682512616194043e+18
14235.0	1.8678782084775933e+18
14236.0	1.8675097271271421e+18
14237.0	1.8671379926745083e+18
14238.0	1.8667681926348797e+18
14239.0	1.866387621622579e+18
14240.0	1.8645975950163968e+18
14241.0	1.8656455922024443e+18
14242.0	1.8652822413246456e+18
14243.0	1.8647742456791037e+18
14244.0	1.864547035198259e+18
14245.0	1.8641627346108416e+18
14246.0	1.8637887671107581e+18
14247.0	1.8634331991834621e+18
14248.0	1.8630533747572733e+18
14249.0	1.8626963774111744e+18
14250.0	1.8623265907933181e+18
14251.0	1.861952316270182e+18
14252.0	1.8615109765038075e+18
14253.0	1.861140545640857e+18
14254.0	1.8607691433771003e+18
14255.0	1.8603701610479613e+18
14256.0	1.8588186812874757e+18
14257.0	1.8596045093076984e+18
14258.0	1.859293246652416e+18
14259.0	1.8588009075048445e+18
14260.0	1.8581958137217021e+18
14261.0	1.8578470858653693e+18
14262.0	1.8575158130245627e+18
14263.0	1.8553830849380362e+18
14264.0	1.8564387845439478e+18
14265.0	1.8564052049461245e+18
14266.0	1.8560436643299325e+18
14267.0	1.8556770569945083e+18
14268.0	1.855308995074457e+18
14269.0	1.8549323750965243e+18
14270.0	1.8545725994434555e+18
14271.0	1.8542031299149821e+18
14272.0	1.8538351065825277e+18
14273.0	1.85346044282798e+18
14274.0	1.850428702588929e+18
14275.0	1.852476952359731e+18
14276.0	1.852347180593971e+18
14277.0	1.8519132261580797e+18
14278.0	1.8515533632634875e+18
14279.0	1.8511850161307645e+18
14280.0	1.8508118405152765e+18
14281.0	1.8504510599069693e+18
14282.0	1.8500839056343037e+18
14283.0	1.8497164896370683e+18
14284.0	1.8493490652512253e+18
14285.0	1.8489810570182653e+18
14286.0	1.848610721785446e+18
14287.0	1.8482472031354875e+18
14288.0	1.847879696541286e+18
14289.0	1.8465973434580972e+18
14290.0	1.8471444920926205e+18
14291.0	1.8467788695797755e+18
14292.0	1.8464131145269243e+18
14293.0	1.8460442422673405e+18
14294.0	1.845552169877504e+18
14295.0	1.8453002901782523e+18
14296.0	1.8442051540484104e+18
14297.0	1.844577722328678e+18
14298.0	1.8437824504135675e+18
14299.0	1.84382991147991e+18
14300.0	1.8434746975518717e+18
14301.0	1.843111304731033e+18
14302.0	1.8427469539311613e+18
14303.0	1.8423499697684475e+18
14304.0	1.8419852666470397e+18
14305.0	1.8415711630131197e+18
14306.0	1.8411706908671997e+18
14307.0	1.8408158175166461e+18
14308.0	1.8404628265697275e+18
14309.0	1.840080290945433e+18
14310.0	1.839575008175718e+18
14311.0	1.8390102099099643e+18
14312.0	1.8388928969048061e+18
14313.0	1.8385350120439803e+18
14314.0	1.8382564230168579e+18
14315.0	1.8379118928199677e+18
14316.0	1.837501961679667e+18
14317.0	1.8371387164983293e+18
14318.0	1.8368231118995456e+18
14319.0	1.8364601821298683e+18
14320.0	1.8360954722975741e+18
14321.0	1.8357290579001341e+18
14322.0	1.8353298960547837e+18
14323.0	1.83498547658752e+18
14324.0	1.8346387385090045e+18
14325.0	1.8342653246570493e+18
14326.0	1.8339101342171133e+18
14327.0	1.8335396999987197e+18
14328.0	1.833175537103667e+18
14329.0	1.832817460982579e+18
14330.0	1.8324532997652475e+18
14331.0	1.8320850029641725e+18
14332.0	1.8317251350364155e+18
14333.0	1.8313612019892221e+18
14334.0	1.830997255520256e+18
14335.0	1.8306209794752507e+18
14336.0	1.8301316199612416e+18
14337.0	1.8298285932412925e+18
14338.0	1.8294645544976381e+18
14339.0	1.829092875409817e+18
14340.0	1.8287387805220861e+18
14341.0	1.8283674118127613e+18
14342.0	1.8280103960117243e+18
14343.0	1.827644751688499e+18
14344.0	1.8272793909002237e+18
14345.0	1.8269210379550717e+18
14346.0	1.8265508872716285e+18
14347.0	1.8261410886713344e+18
14348.0	1.825827488949862e+18
14349.0	1.8254680085757947e+18
14350.0	1.8250091752062976e+18
14351.0	1.824634224561356e+18
14352.0	1.8243715302686715e+18
14353.0	1.8240155462664187e+18
14354.0	1.82364133214126e+18
14355.0	1.8232552196145147e+18
14356.0	1.8229016783749115e+18
14357.0	1.8225664679215096e+18
14358.0	1.821814727848755e+18
14359.0	1.82133472666583e+18
14360.0	1.8209772947898365e+18
14361.0	1.8206200759844861e+18
14362.0	1.8202612482441213e+18
14363.0	1.8198982429769725e+18
14364.0	1.8192307127844867e+18
14365.0	1.8191138594750456e+18
14366.0	1.8187581472636923e+18
14367.0	1.818450493387571e+18
14368.0	1.8180880199581693e+18
14369.0	1.817726543095398e+18
14370.0	1.8173648632283133e+18
14371.0	1.8170034316640253e+18
14372.0	1.8166362220265464e+18
14373.0	1.8162380584255488e+18
14374.0	1.8158429482778621e+18
14375.0	1.8154798658355197e+18
14376.0	1.815119586865971e+18
14377.0	1.814757207388979e+18
14378.0	1.8143935629099005e+18
14379.0	1.8140343912366075e+18
14380.0	1.8136717852671997e+18
14381.0	1.8133002538188797e+18
14382.0	1.8129482913153021e+18
14383.0	1.8125826889351163e+18
14384.0	1.8122093707132925e+18
14385.0	1.8118656676331515e+18
14386.0	1.8114905039175675e+18
14387.0	1.8111429487886333e+18
14388.0	1.810779992175411e+18
14389.0	1.810420599042867e+18
14390.0	1.810057858855731e+18
14391.0	1.8096987643576315e+18
14392.0	1.809336282539622e+18
14393.0	1.8089771913969667e+18
14394.0	1.8085809991188477e+18
14395.0	1.8082389452390397e+18
14396.0	1.8078944083312635e+18
14397.0	1.8075344078635003e+18
14398.0	1.807172989720985e+18
14399.0	1.8066854740230141e+18
14400.0	1.8062431762776061e+18
14401.0	1.8058961211097085e+18
14402.0	1.8055397143216128e+18
14403.0	1.803846044300081e+18
14404.0	1.799971275800574e+18
14405.0	1.8029417389359068e+18
14406.0	1.8040986068320253e+18
14407.0	1.801839858365236e+18
14408.0	1.803346895280537e+18
14409.0	1.8030039454973947e+18
14410.0	1.8026395124891643e+18
14411.0	1.8023019851022333e+18
14412.0	1.8019403438227453e+18
14413.0	1.8015842625126397e+18
14414.0	1.801173197232537e+18
14415.0	1.8007924920025085e+18
14416.0	1.8004256128761853e+18
14417.0	1.800045971321651e+18
14418.0	1.799668457118105e+18
14419.0	1.7993525891170304e+18
14420.0	1.798989810342297e+18
14421.0	1.7986342155714555e+18
14422.0	1.798269348033331e+18
14423.0	1.7978860305907712e+18
14424.0	1.789775877400162e+18
14425.0	1.7971798926688253e+18
14426.0	1.7968372398424061e+18
14427.0	1.7964792207638525e+18
14428.0	1.7961006110081024e+18
14429.0	1.7957579699257341e+18
14430.0	1.7954026066804733e+18
14431.0	1.7945215763480576e+18
14432.0	1.794678184948531e+18
14433.0	1.7928907705548787e+18
14434.0	1.7939502148354048e+18
14435.0	1.7935347438583803e+18
14436.0	1.7932500361805821e+18
14437.0	1.792892694901555e+18
14438.0	1.7924474594656253e+18
14439.0	1.7921612401606653e+18
14440.0	1.7918165338030077e+18
14441.0	1.7914510253752317e+18
14442.0	1.7910875906113533e+18
14443.0	1.790690965481062e+18
14444.0	1.7903784613117952e+18
14445.0	1.7900237154680827e+18
14446.0	1.787605192540161e+18
14447.0	1.7892936398143488e+18
14448.0	1.7889500306866176e+18
14449.0	1.78859214414807e+18
14450.0	1.7882286338867197e+18
14451.0	1.787874210165555e+18
14452.0	1.7875152515629053e+18
14453.0	1.78713437184983e+18
14454.0	1.7867992989696e+18
14455.0	1.7864334214430717e+18
14456.0	1.7860730434879485e+18
14457.0	1.7857155109486587e+18
14458.0	1.78535972995072e+18
14459.0	1.7849967464939517e+18
14460.0	1.7846272920649725e+18
14461.0	1.7841883833171965e+18
14462.0	1.7835816671772675e+18
14463.0	1.7835043359555581e+18
14464.0	1.783136280746393e+18
14465.0	1.782765977390284e+18
14466.0	1.782431432992358e+18
14467.0	1.7820446191779835e+18
14468.0	1.7817164585107453e+18
14469.0	1.781306047542067e+18
14470.0	1.7809778264768507e+18
14471.0	1.7806410087661565e+18
14472.0	1.780288373496217e+18
14473.0	1.7799350704930813e+18
14474.0	1.779580702136729e+18
14475.0	1.7792203560583163e+18
14476.0	1.7787740988899328e+18
14477.0	1.778507490472755e+18
14478.0	1.778150295155507e+18
14479.0	1.777792546190131e+18
14480.0	1.7774214022955003e+18
14481.0	1.7770825562193917e+18
14482.0	1.7767220239138813e+18
14483.0	1.7763583240699904e+18
14484.0	1.7760016975003643e+18
14485.0	1.775617301282816e+18
14486.0	1.7750059747639296e+18
14487.0	1.7749371378466808e+18
14488.0	1.774539031288217e+18
14489.0	1.7741767709294587e+18
14490.0	1.7738577102241784e+18
14491.0	1.773018354496307e+18
14492.0	1.7725310199922685e+18
14493.0	1.772163756667699e+18
14494.0	1.7717951360663547e+18
14495.0	1.7714598551486461e+18
14496.0	1.7709720223612928e+18
14497.0	1.7707455853101053e+18
14498.0	1.7703897590136824e+18
14499.0	1.770033179420262e+18
14500.0	1.769675913638707e+18
14501.0	1.769273252066099e+18
14502.0	1.7687086937145341e+18
14503.0	1.7685771905400827e+18
14504.0	1.7682429061890043e+18
14505.0	1.7678512336928765e+18
14506.0	1.7674507145707517e+18
14507.0	1.766938903786291e+18
14508.0	1.7668218457948152e+18
14509.0	1.7664654809497597e+18
14510.0	1.766105827770368e+18
14511.0	1.765751882199859e+18
14512.0	1.7653799531315197e+18
14513.0	1.7650386374492157e+18
14514.0	1.7646480605052925e+18
14515.0	1.7643239565688827e+18
14516.0	1.7616508259663887e+18
14517.0	1.76360885625815e+18
14518.0	1.763255825045913e+18
14519.0	1.762888021494988e+18
14520.0	1.762474239983616e+18
14521.0	1.7621167678423037e+18
14522.0	1.7617563227783163e+18
14523.0	1.7612652654100477e+18
14524.0	1.7609496322899968e+18
14525.0	1.7606852434984957e+18
14526.0	1.7603319404953595e+18
14527.0	1.7599553809154043e+18
14528.0	1.7594892075139072e+18
14529.0	1.7592534993731581e+18
14530.0	1.7588901082300413e+18
14531.0	1.758548708661657e+18
14532.0	1.7580658855510016e+18
14533.0	1.7578366970363904e+18
14534.0	1.757481855562547e+18
14535.0	1.7571144747974653e+18
14536.0	1.7567645624696824e+18
14537.0	1.756399632855859e+18
14538.0	1.756055141246566e+18
14539.0	1.7556985801080827e+18
14540.0	1.7553418662969344e+18
14541.0	1.7549628706652157e+18
14542.0	1.754626088186675e+18
14543.0	1.754202503747993e+18
14544.0	1.7539134541266941e+18
14545.0	1.7535469038338048e+18
14546.0	1.7437729675542477e+18
14547.0	1.7442583592566717e+18
14548.0	1.7524711906869248e+18
14549.0	1.752012335507046e+18
14550.0	1.7517655309156347e+18
14551.0	1.7514179522985981e+18
14552.0	1.751059946641817e+18
14553.0	1.7506970084835328e+18
14554.0	1.750347898106675e+18
14555.0	1.7499906776236027e+18
14556.0	1.749631744186777e+18
14557.0	1.7492769245233147e+18
14558.0	1.7489179910864893e+18
14559.0	1.7468423273447393e+18
14560.0	1.7481874674810877e+18
14561.0	1.7478418400542715e+18
14562.0	1.7474586450853885e+18
14563.0	1.7471306337353725e+18
14564.0	1.746730950118604e+18
14565.0	1.7464214809477117e+18
14566.0	1.746064614463897e+18
14567.0	1.7457037751353341e+18
14568.0	1.7453039103246333e+18
14569.0	1.7449902703378432e+18
14570.0	1.7441312701677563e+18
14571.0	1.7442740560199677e+18
14572.0	1.74386475738071e+18
14573.0	1.7435090636242941e+18
14574.0	1.7430972920233984e+18
14575.0	1.7428321381908475e+18
14576.0	1.7424718877425661e+18
14577.0	1.7421284195434493e+18
14578.0	1.7417738817372157e+18
14579.0	1.7414208874348544e+18
14580.0	1.7410635746770944e+18
14581.0	1.7406971535687677e+18
14582.0	1.7403394029256704e+18
14583.0	1.7399898294976507e+18
14584.0	1.7395791148613632e+18
14585.0	1.7392093735419904e+18
14586.0	1.7388485342134272e+18
14587.0	1.7384919697195005e+18
14588.0	1.738135536087859e+18
14589.0	1.7377848184537085e+18
14590.0	1.7374343122124797e+18
14591.0	1.7370776671879163e+18
14592.0	1.7367251694911485e+18
14593.0	1.7359060537966595e+18
14594.0	1.7352637045276664e+18
14595.0	1.7349065343762427e+18
14596.0	1.7342843429322747e+18
14597.0	1.7338790523699195e+18
14598.0	1.7338263266131963e+18
14599.0	1.733504745970073e+18
14600.0	1.7331448713314304e+18
14601.0	1.7327963682897915e+18
14602.0	1.73242760340439e+18
14603.0	1.7320912504225787e+18
14604.0	1.7316793076940797e+18
14605.0	1.7313284172546043e+18
14606.0	1.7309638047301632e+18
14607.0	1.7306759496466424e+18
14608.0	1.7303294162501624e+18
14609.0	1.7299646913183744e+18
14610.0	1.7295355720761344e+18
14611.0	1.7292526629158907e+18
14612.0	1.728921579657625e+18
14613.0	1.7285731269476347e+18
14614.0	1.7282183743930363e+18
14615.0	1.7278668279644157e+18
14616.0	1.7275175229718525e+18
14617.0	1.727164453172019e+18
14618.0	1.7267895008493565e+18
14619.0	1.726255357912677e+18
14620.0	1.7253811928170493e+18
14621.0	1.7257516404572152e+18
14622.0	1.7253959618002936e+18
14623.0	1.7250453951610877e+18
14624.0	1.7246340949999613e+18
14625.0	1.724334445533593e+18
14626.0	1.7239812331274237e+18
14627.0	1.7236227275096061e+18
14628.0	1.723263705153536e+18
14629.0	1.7228904875950075e+18
14630.0	1.7225288916140027e+18
14631.0	1.722180319785779e+18
14632.0	1.7212058000949248e+18
14633.0	1.7213761777565693e+18
14634.0	1.7211040915783672e+18
14635.0	1.7205296715792374e+18
14636.0	1.7198290147737597e+18
14637.0	1.720048974141849e+18
14638.0	1.719676249833472e+18
14639.0	1.719311946009804e+18
14640.0	1.718974801143398e+18
14641.0	1.7162129106796526e+18
14642.0	1.7182598132400123e+18
14643.0	1.7179072970883067e+18
14644.0	1.7175369937321981e+18
14645.0	1.7171712823001088e+18
14646.0	1.7168064785154043e+18
14647.0	1.716417027322675e+18
14648.0	1.716107642037862e+18
