# Flux units: erg / (cm m2 s)
# Wavelength units: Angstrom
wave	flux
14000.0	1.2037595672346621e+18
14001.0	1.2035050224746493e+18
14002.0	1.203432261366579e+18
14003.0	1.203270818411315e+18
14004.0	1.2031074343321595e+18
14005.0	1.202944082129715e+18
14006.0	1.202778717500211e+18
14007.0	1.2026161697652736e+18
14008.0	1.202431588512563e+18
14009.0	1.2022907051966461e+18
14010.0	1.2021277464199165e+18
14011.0	1.2018005168881661e+18
14012.0	1.201801444668211e+18
14013.0	1.2016385538392061e+18
14014.0	1.2014755296313341e+18
14015.0	1.2013121153531901e+18
14016.0	1.2011496053669883e+18
14017.0	1.2009868344950781e+18
14018.0	1.2008223229870077e+18
14019.0	1.2006635685806077e+18
14020.0	1.2005006551023616e+18
14021.0	1.200337770984243e+18
14022.0	1.2001750630268925e+18
14023.0	1.200012350036377e+18
14024.0	1.199848225243136e+18
14025.0	1.1996872688271357e+18
14026.0	1.199524383031296e+18
14027.0	1.199362180068147e+18
14028.0	1.1991996658876413e+18
14029.0	1.1990371575791613e+18
14030.0	1.1988109495369725e+18
14031.0	1.1987109229363197e+18
14032.0	1.1985498910228477e+18
14033.0	1.1983806365958141e+18
14034.0	1.1982253173243901e+18
14035.0	1.1980631185555453e+18
14036.0	1.1979009038483453e+18
14037.0	1.1977387218567165e+18
14038.0	1.1975765750972416e+18
14039.0	1.1974144660865021e+18
14040.0	1.1972517472239613e+18
14041.0	1.1970900534493181e+18
14042.0	1.1969259680825341e+18
14043.0	1.1967566608072701e+18
14044.0	1.1965984474660861e+18
14045.0	1.1964390446202877e+18
14046.0	1.1962807079665661e+18
14047.0	1.196118687036211e+18
14048.0	1.1959570209439744e+18
14049.0	1.1957953573683197e+18
14050.0	1.195633645138739e+18
14051.0	1.1954702652538877e+18
14052.0	1.1953103028879357e+18
14053.0	1.1951487282315261e+18
14054.0	1.1949871586082813e+18
14055.0	1.1948256267337728e+18
14056.0	1.1946641242193917e+18
14057.0	1.194502672036659e+18
14058.0	1.194341214820761e+18
14059.0	1.1941761186267133e+18
14060.0	1.1940185101041661e+18
14061.0	1.193855415431987e+18
14062.0	1.1936959052120061e+18
14063.0	1.1935318383001597e+18
14064.0	1.1933549326237693e+18
14065.0	1.1932101687377917e+18
14066.0	1.1930511517679613e+18
14067.0	1.1928900527456253e+18
14068.0	1.1927289855999997e+18
14069.0	1.1925677322272765e+18
14070.0	1.1924069393891325e+18
14071.0	1.192245251486515e+18
14072.0	1.1920850550783997e+18
14073.0	1.1919241355722752e+18
14074.0	1.1917632999522301e+18
14075.0	1.1915996549873661e+18
14076.0	1.1914416891101181e+18
14077.0	1.1912668990406653e+18
14078.0	1.1911194013073405e+18
14079.0	1.1909584750903293e+18
14080.0	1.1907989438988288e+18
14081.0	1.190638346515251e+18
14082.0	1.1904776442740733e+18
14083.0	1.190316936999731e+18
14084.0	1.1901566961319933e+18
14085.0	1.1899465522741248e+18
14086.0	1.1898335401082877e+18
14087.0	1.1896728127012861e+18
14088.0	1.1895149684588544e+18
14089.0	1.1893548097994752e+18
14090.0	1.189194344117043e+18
14091.0	1.189034281926656e+18
14092.0	1.1888740788076541e+18
14093.0	1.1887139008544765e+18
14094.0	1.188553760650035e+18
14095.0	1.1883936498057213e+18
14096.0	1.1882313344352253e+18
14097.0	1.188073454121779e+18
14098.0	1.1879125295824893e+18
14099.0	1.1877535788826624e+18
14100.0	1.1875905202814973e+18
14101.0	1.1874337632026621e+18
14102.0	1.1872738914336763e+18
14103.0	1.187109531759411e+18
14104.0	1.1869543307673597e+18
14105.0	1.1867945630171133e+18
14106.0	1.1866348321767421e+18
14107.0	1.186471905276723e+18
14108.0	1.1863155332349952e+18
14109.0	1.1861549786333181e+18
14110.0	1.1859961218859008e+18
14111.0	1.1858359565156352e+18
14112.0	1.1856768632094717e+18
14113.0	1.1855177665478653e+18
14114.0	1.18535837712384e+18
14115.0	1.1851985665916925e+18
14116.0	1.1850387233439744e+18
14117.0	1.1847656909307904e+18
14118.0	1.1847208395603965e+18
14119.0	1.1845603914940413e+18
14120.0	1.1844013334200317e+18
14121.0	1.1842431033016317e+18
14122.0	1.1840813944274941e+18
14123.0	1.1839243873681405e+18
14124.0	1.1837649132191741e+18
14125.0	1.183512822127001e+18
14126.0	1.1834477223346173e+18
14127.0	1.1832888295161853e+18
14128.0	1.1831295843762173e+18
14129.0	1.1829688989122555e+18
14130.0	1.1828095975686141e+18
14131.0	1.182653233915494e+18
14132.0	1.1824942907654141e+18
14133.0	1.1822254509785083e+18
14134.0	1.182173695783731e+18
14135.0	1.1820158112759805e+18
14136.0	1.1818588251881472e+18
14137.0	1.1817007469035515e+18
14138.0	1.1815412819820541e+18
14139.0	1.1813836155781117e+18
14140.0	1.1812249282805757e+18
14141.0	1.181066298864435e+18
14142.0	1.180901482849894e+18
14143.0	1.1807495961968637e+18
14144.0	1.180591411376947e+18
14145.0	1.1804330352967677e+18
14146.0	1.180274373165056e+18
14147.0	1.180116234482483e+18
14148.0	1.1799580354019325e+18
14149.0	1.1797999478898685e+18
14150.0	1.179641753842483e+18
14151.0	1.1794830531231741e+18
14152.0	1.179325477316198e+18
14153.0	1.179167357088563e+18
14154.0	1.1790051834855424e+18
14155.0	1.178839559648051e+18
14156.0	1.1786915367878653e+18
14157.0	1.1785353711058941e+18
14158.0	1.1783766863249408e+18
14159.0	1.1782195643416576e+18
14160.0	1.1780601816285181e+18
14161.0	1.1778923658477565e+18
14162.0	1.1777252647763963e+18
14163.0	1.1775854342307837e+18
14164.0	1.1774278642958333e+18
14165.0	1.1772687835725821e+18
14166.0	1.177115261140992e+18
14167.0	1.1769577289547773e+18
14168.0	1.1767998746460157e+18
14169.0	1.1766426100563965e+18
14170.0	1.176484353094451e+18
14171.0	1.1763268334911485e+18
14172.0	1.1761701695258621e+18
14173.0	1.1760083851542525e+18
14174.0	1.1758544508420096e+18
14175.0	1.1756980561510397e+18
14176.0	1.1755407454240765e+18
14177.0	1.175383486706483e+18
14178.0	1.1752262028230653e+18
14179.0	1.1750680607850496e+18
14180.0	1.1749118724538365e+18
14181.0	1.1747547345321981e+18
14182.0	1.174597440582451e+18
14183.0	1.1744405576744955e+18
14184.0	1.1742825171386365e+18
14185.0	1.1741264923852797e+18
14186.0	1.1739466758619136e+18
14187.0	1.1738078150393853e+18
14188.0	1.173655438491648e+18
14189.0	1.1734910033199101e+18
14190.0	1.173331587052339e+18
14191.0	1.1731665520951296e+18
14192.0	1.172995539415859e+18
14193.0	1.1728375357898747e+18
14194.0	1.172683381696102e+18
14195.0	1.1725270088155133e+18
14196.0	1.1723703003906045e+18
14197.0	1.1722136792072192e+18
14198.0	1.1720558861352957e+18
14199.0	1.1719001667272701e+18
14200.0	1.1717314709815293e+18
14201.0	1.1715868857729024e+18
14202.0	1.171431139521331e+18
14203.0	1.1712736887046141e+18
14204.0	1.1711177654534141e+18
14205.0	1.1709614018002941e+18
14206.0	1.1707813361352701e+18
14207.0	1.1706492801515517e+18
14208.0	1.1704931119529981e+18
14209.0	1.170311013728256e+18
14210.0	1.170161527894835e+18
14211.0	1.1700243900923901e+18
14212.0	1.1698682848083965e+18
14213.0	1.1697123875618813e+18
14214.0	1.1695560784347133e+18
14215.0	1.1693969624793088e+18
14216.0	1.1692443711832061e+18
14217.0	1.1690884202495997e+18
14218.0	1.1689324760268797e+18
14219.0	1.1687765829746685e+18
14220.0	1.1686207637422077e+18
14221.0	1.1684648455241725e+18
14222.0	1.1683090908839933e+18
14223.0	1.1681533463101437e+18
14224.0	1.167997652906803e+18
14225.0	1.167796523447091e+18
14226.0	1.167686083228467e+18
14227.0	1.167530659099443e+18
14228.0	1.1672187127726077e+18
14229.0	1.1671866750009341e+18
14230.0	1.167064009225011e+18
14231.0	1.166908538958643e+18
14232.0	1.1667530879860733e+18
14233.0	1.1665976646959101e+18
14234.0	1.166442266571571e+18
14235.0	1.1662863231877117e+18
14236.0	1.166131569308467e+18
14237.0	1.1659759639855101e+18
14238.0	1.1658208728842237e+18
14239.0	1.1656644253450237e+18
14240.0	1.1650557454319616e+18
14241.0	1.1653549117145085e+18
14242.0	1.165200127636275e+18
14243.0	1.1650137688375293e+18
14244.0	1.1648901031395325e+18
14245.0	1.164733981078323e+18
14246.0	1.1645782348267517e+18
14247.0	1.1644251033042944e+18
14248.0	1.1642648867635197e+18
14249.0	1.1641148145663997e+18
14250.0	1.1639599130476544e+18
14251.0	1.1638055542718464e+18
14252.0	1.1636507341225981e+18
14253.0	1.1634957873053693e+18
14254.0	1.1633406785880061e+18
14255.0	1.1631776812236797e+18
14256.0	1.162992959881216e+18
14257.0	1.1628742006800381e+18
14258.0	1.1627225078038525e+18
14259.0	1.1625679401517053e+18
14260.0	1.1624093694558205e+18
14261.0	1.1622592376995837e+18
14262.0	1.1621237692301312e+18
14263.0	1.161911932551168e+18
14264.0	1.161802208719667e+18
14265.0	1.1616605217751037e+18
14266.0	1.161504643822387e+18
14267.0	1.1613300735344637e+18
14268.0	1.161175764251443e+18
14269.0	1.1610208652492797e+18
14270.0	1.1608672228605952e+18
14271.0	1.1607129639092224e+18
14272.0	1.1605587997491197e+18
14273.0	1.1604043235327997e+18
14274.0	1.1601633876115453e+18
14275.0	1.160088387584e+18
14276.0	1.1599420466397181e+18
14277.0	1.1597866132832253e+18
14278.0	1.1596342921003005e+18
14279.0	1.1594800901914624e+18
14280.0	1.1593249797963773e+18
14281.0	1.159172518523699e+18
14282.0	1.1590187251400701e+18
14283.0	1.1588648898134013e+18
14284.0	1.1587110687473661e+18
14285.0	1.1585555640877053e+18
14286.0	1.1584015987376125e+18
14287.0	1.1582480242966525e+18
14288.0	1.1580941386383355e+18
14289.0	1.1576504391565307e+18
14290.0	1.1577868161122301e+18
14291.0	1.1576332576096253e+18
14292.0	1.1574799004336125e+18
14293.0	1.1573258268704765e+18
14294.0	1.1571445213691901e+18
14295.0	1.1570192291201024e+18
14296.0	1.1566336341704704e+18
14297.0	1.1567117488881664e+18
14298.0	1.1565169729601533e+18
14299.0	1.1564051276496893e+18
14300.0	1.156252607656755e+18
14301.0	1.1560993243004925e+18
14302.0	1.15594531700736e+18
14303.0	1.1557865458237437e+18
14304.0	1.1556361305325565e+18
14305.0	1.1554843353153533e+18
14306.0	1.1553304865669117e+18
14307.0	1.1551775916031997e+18
14308.0	1.1550253593395197e+18
14309.0	1.1548721665802237e+18
14310.0	1.1547152434069501e+18
14311.0	1.1545512326987776e+18
14312.0	1.1544012938805245e+18
14313.0	1.154179364028416e+18
14314.0	1.154107229549363e+18
14315.0	1.153954678518579e+18
14316.0	1.1537912189419517e+18
14317.0	1.153648003593011e+18
14318.0	1.1534963895697403e+18
14319.0	1.1533437538140157e+18
14320.0	1.1531909536415741e+18
14321.0	1.1530383942221824e+18
14322.0	1.152878083728998e+18
14323.0	1.1527293100883967e+18
14324.0	1.152580583424e+18
14325.0	1.1524280458149887e+18
14326.0	1.1522755342106623e+18
14327.0	1.1521229278150655e+18
14328.0	1.1519672620941311e+18
14329.0	1.1518163879460861e+18
14330.0	1.1516639954599933e+18
14331.0	1.1515115551588351e+18
14332.0	1.1513592750800893e+18
14333.0	1.1512069757075452e+18
14334.0	1.1510547006619647e+18
14335.0	1.1508988596191228e+18
14336.0	1.1507460804182012e+18
14337.0	1.1505979359231997e+18
14338.0	1.1504454578733055e+18
14339.0	1.1502932885241856e+18
14340.0	1.1501416434630652e+18
14341.0	1.1499893650620412e+18
14342.0	1.149837558100787e+18
14343.0	1.1496854684434431e+18
14344.0	1.1495315995623421e+18
14345.0	1.1493806079737855e+18
14346.0	1.1492291902439423e+18
14347.0	1.1490744313315325e+18
14348.0	1.1489259731025919e+18
14349.0	1.1487741955014655e+18
14350.0	1.1486192277127165e+18
14351.0	1.1484672974389247e+18
14352.0	1.1483173628149757e+18
14353.0	1.148164894831411e+18
14354.0	1.148013014050406e+18
14355.0	1.1478609822744573e+18
14356.0	1.1477087969869821e+18
14357.0	1.1475579572322303e+18
14358.0	1.1474073255149567e+18
14359.0	1.147255666193203e+18
14360.0	1.1471039506677757e+18
14361.0	1.146952711615283e+18
14362.0	1.1468013769326591e+18
14363.0	1.1466499038380031e+18
14364.0	1.1464893911793661e+18
14365.0	1.1463453210312703e+18
14366.0	1.1461937103634431e+18
14367.0	1.146044628022067e+18
14368.0	1.1458932639793151e+18
14369.0	1.1457421348175868e+18
14370.0	1.1455909343526911e+18
14371.0	1.1454397699588095e+18
14372.0	1.1452885963374591e+18
14373.0	1.1451374344601597e+18
14374.0	1.1449857701052413e+18
14375.0	1.1448331234443261e+18
14376.0	1.1446843657420797e+18
14377.0	1.1445332122533885e+18
14378.0	1.1443817550970877e+18
14379.0	1.1442314245308415e+18
14380.0	1.1440804513972223e+18
14381.0	1.1439274440261631e+18
14382.0	1.1437765891719168e+18
14383.0	1.1436257368342525e+18
14384.0	1.1434723687530495e+18
14385.0	1.1433245757407231e+18
14386.0	1.1431738324549631e+18
14387.0	1.1430230379986941e+18
14388.0	1.142872035504947e+18
14389.0	1.1427216588013567e+18
14390.0	1.1425705808101375e+18
14391.0	1.1424204985466879e+18
14392.0	1.142269741839155e+18
14393.0	1.1421194188226557e+18
14394.0	1.1419619537453055e+18
14395.0	1.1418164181073919e+18
14396.0	1.1416679657504767e+18
14397.0	1.1415175429095421e+18
14398.0	1.1413671167131644e+18
14399.0	1.1412167601422333e+18
14400.0	1.1410613578235901e+18
14401.0	1.140914678818406e+18
14402.0	1.1407655100743679e+18
14403.0	1.140543857046323e+18
14404.0	1.1396568783519739e+18
14405.0	1.139804590833663e+18
14406.0	1.1401645342588928e+18
14407.0	1.1399107050471421e+18
14408.0	1.1398638823538685e+18
14409.0	1.139709098275635e+18
14410.0	1.1395636893057021e+18
14411.0	1.1394142579982333e+18
14412.0	1.1392634945798141e+18
14413.0	1.1391133544349693e+18
14414.0	1.1389623846567933e+18
14415.0	1.1388127000133631e+18
14416.0	1.1386630858342397e+18
14417.0	1.1385130958454783e+18
14418.0	1.1383619431956479e+18
14419.0	1.1382131041239037e+18
14420.0	1.1380624346578941e+18
14421.0	1.1379138388557821e+18
14422.0	1.1377640728428541e+18
14423.0	1.1376129604583423e+18
14424.0	1.1370461396991996e+18
14425.0	1.1373142270279679e+18
14426.0	1.1371656412921852e+18
14427.0	1.1370152478113791e+18
14428.0	1.1368626623873023e+18
14429.0	1.1367159733157887e+18
14430.0	1.1365675293474815e+18
14431.0	1.136399091132006e+18
14432.0	1.1362683286716413e+18
14433.0	1.1360390462046205e+18
14434.0	1.1359667036880893e+18
14435.0	1.1358160954589183e+18
14436.0	1.1356711554121725e+18
14437.0	1.1355218658721788e+18
14438.0	1.1353692821258239e+18
14439.0	1.1352227708927997e+18
14440.0	1.1350739133661183e+18
14441.0	1.1349202315509759e+18
14442.0	1.1347685764235261e+18
14443.0	1.1346099470073855e+18
14444.0	1.134476078245478e+18
14445.0	1.1343282323849213e+18
14446.0	1.1338885736955904e+18
14447.0	1.1340281047678975e+18
14448.0	1.1338812437299197e+18
14449.0	1.133732315738931e+18
14450.0	1.1335817276424188e+18
14451.0	1.1334325555429371e+18
14452.0	1.133283667817267e+18
14453.0	1.1331337659088893e+18
14454.0	1.1329859267592188e+18
14455.0	1.1328356884676607e+18
14456.0	1.1326881714405376e+18
14457.0	1.132539304686387e+18
14458.0	1.1323906711355391e+18
14459.0	1.1322416819077116e+18
14460.0	1.1320930928164864e+18
14461.0	1.1319406416101375e+18
14462.0	1.1317823888424957e+18
14463.0	1.1316465454022655e+18
14464.0	1.131498832081715e+18
14465.0	1.1313420070551551e+18
14466.0	1.1312019290456061e+18
14467.0	1.1310507394859004e+18
14468.0	1.130904805389107e+18
14469.0	1.130748575114854e+18
14470.0	1.130600475079475e+18
14471.0	1.1304565827698687e+18
14472.0	1.130311319761715e+18
14473.0	1.1301629940727805e+18
14474.0	1.1300147304595455e+18
14475.0	1.1298663192068093e+18
14476.0	1.1297130962485247e+18
14477.0	1.1295698062409725e+18
14478.0	1.1294217271771133e+18
14479.0	1.1292732194553855e+18
14480.0	1.1291223704731647e+18
14481.0	1.1289772727205885e+18
14482.0	1.1288283212414975e+18
14483.0	1.1286787850764285e+18
14484.0	1.1285306372259835e+18
14485.0	1.1283771760312316e+18
14486.0	1.128167338357555e+18
14487.0	1.1280889728204796e+18
14488.0	1.1279410875334655e+18
14489.0	1.1277914616102911e+18
14490.0	1.127644655937126e+18
14491.0	1.127495595406131e+18
14492.0	1.1273477285740541e+18
14493.0	1.1271998290264064e+18
14494.0	1.1270478282883068e+18
14495.0	1.1269042295799805e+18
14496.0	1.126725911262003e+18
14497.0	1.1266084699111423e+18
14498.0	1.1264611298836479e+18
14499.0	1.1263134710890493e+18
14500.0	1.1261657569296383e+18
14501.0	1.1260163516268543e+18
14502.0	1.1258063369535485e+18
14503.0	1.1257200290824188e+18
14504.0	1.1255740765306876e+18
14505.0	1.1254261979545597e+18
14506.0	1.1252767112822783e+18
14507.0	1.1250753880457213e+18
14508.0	1.1249854672011264e+18
14509.0	1.1248380936191997e+18
14510.0	1.1246906999046141e+18
14511.0	1.124543304512307e+18
14512.0	1.1243926845390845e+18
14513.0	1.1242485808365567e+18
14514.0	1.124094274070118e+18
14515.0	1.1239535283273728e+18
14516.0	1.1230196061437956e+18
14517.0	1.1236583801880575e+18
14518.0	1.1235122372149245e+18
14519.0	1.1233628939878397e+18
14520.0	1.1232180353105916e+18
14521.0	1.1230706474680319e+18
14522.0	1.1229237822357501e+18
14523.0	1.1227716607016957e+18
14524.0	1.1226251989614588e+18
14525.0	1.1224813402062847e+18
14526.0	1.1223318652780541e+18
14527.0	1.1221663899189247e+18
14528.0	1.1219889238835197e+18
14529.0	1.1218771549093885e+18
14530.0	1.1217293728022524e+18
14531.0	1.1215855081750524e+18
14532.0	1.1214323548422143e+18
14533.0	1.1212919253499903e+18
14534.0	1.1211453444915197e+18
14535.0	1.1209983475580927e+18
14536.0	1.1208516190601215e+18
14537.0	1.1207023714631676e+18
14538.0	1.1205582635663357e+18
14539.0	1.1204115552010239e+18
14540.0	1.1202645825945597e+18
14541.0	1.120115251950387e+18
14542.0	1.1199696735305724e+18
14543.0	1.1198205442129916e+18
14544.0	1.1196763633352703e+18
14545.0	1.1195295543066623e+18
14546.0	1.1185985664581624e+18
14547.0	1.1184961600094199e+18
14548.0	1.1190876046884861e+18
14549.0	1.1189163873271805e+18
14550.0	1.1187971390701567e+18
14551.0	1.1186508585238527e+18
14552.0	1.1185037516996607e+18
14553.0	1.118354126615347e+18
14554.0	1.118211678824038e+18
14555.0	1.118065302647603e+18
14556.0	1.1179188576845823e+18
14557.0	1.1177725981097983e+18
14558.0	1.1176259182657533e+18
14559.0	1.1169032807907318e+18
14560.0	1.1173331583631357e+18
14561.0	1.1171855431892991e+18
14562.0	1.1170363752841215e+18
14563.0	1.1168950691823613e+18
14564.0	1.116744583426867e+18
14565.0	1.1166029401030656e+18
14566.0	1.1164568214568959e+18
14567.0	1.1163106650619903e+18
14568.0	1.1161642469425148e+18
14569.0	1.1160184067981311e+18
14570.0	1.1157155537223677e+18
14571.0	1.115725729103872e+18
14572.0	1.1155713602617341e+18
14573.0	1.1154254882406397e+18
14574.0	1.1152856576950272e+18
14575.0	1.115142447379251e+18
14576.0	1.1149962641408e+18
14577.0	1.1148507989671933e+18
14578.0	1.1147043128999933e+18
14579.0	1.1145590775742461e+18
14580.0	1.1144132860837885e+18
14581.0	1.1142667639455741e+18
14582.0	1.1141215856623613e+18
14583.0	1.1139758830911484e+18
14584.0	1.1138274819047423e+18
14585.0	1.1136843437309953e+18
14586.0	1.1135378475974655e+18
14587.0	1.1133925678120957e+18
14588.0	1.1132473509412861e+18
14589.0	1.1131029058224127e+18
14590.0	1.1129586335088639e+18
14591.0	1.1128142001340415e+18
14592.0	1.1126697407545345e+18
14593.0	1.1124985762414591e+18
14594.0	1.1123815081836543e+18
14595.0	1.1122360908251133e+18
14596.0	1.1120816901062655e+18
14597.0	1.1119340866764797e+18
14598.0	1.1118015105990655e+18
14599.0	1.1116589059407872e+18
14600.0	1.1115146403381247e+18
14601.0	1.1113707379621885e+18
14602.0	1.1112258549579775e+18
14603.0	1.1110826026991613e+18
14604.0	1.1109279335448575e+18
14605.0	1.1107889057890301e+18
14606.0	1.1106280265482239e+18
14607.0	1.110502305641267e+18
14608.0	1.1103586826059775e+18
14609.0	1.1102145747091455e+18
14610.0	1.1100667833745405e+18
14611.0	1.1099248170893311e+18
14612.0	1.1097867422793727e+18
14613.0	1.1096429867040767e+18
14614.0	1.1094953060990973e+18
14615.0	1.1093534245388285e+18
14616.0	1.1092113743675391e+18
14617.0	1.1090618600128511e+18
14618.0	1.1089196890456064e+18
14619.0	1.1087727583821821e+18
14620.0	1.1086125728792575e+18
14621.0	1.1084922911457277e+18
14622.0	1.1083485364092928e+18
14623.0	1.1082047623790591e+18
14624.0	1.108047971745792e+18
14625.0	1.1079172436787197e+18
14626.0	1.1077710814117885e+18
14627.0	1.1076267520557055e+18
14628.0	1.1074861455638527e+18
14629.0	1.1073424596140031e+18
14630.0	1.1071964986736637e+18
14631.0	1.1070528924155903e+18
14632.0	1.1068700182446077e+18
14633.0	1.1067621633949695e+18
14634.0	1.1066236918038527e+18
14635.0	1.1064612422156287e+18
14636.0	1.1062931143786493e+18
14637.0	1.1061932932988928e+18
14638.0	1.106049157719654e+18
14639.0	1.1059030340403197e+18
14640.0	1.10576164405248e+18
14641.0	1.1054793304834045e+18
14642.0	1.1054741597454332e+18
14643.0	1.105331651556147e+18
14644.0	1.1051879999995903e+18
14645.0	1.1050370537095165e+18
14646.0	1.1048974135853055e+18
