# Flux units: erg / (cm m2 s)
# Wavelength units: Angstrom
wave	flux
14000.0	1.964399035364147e+18
14001.0	1.963883463127859e+18
14002.0	1.9634252488376317e+18
14003.0	1.9629516330631158e+18
14004.0	1.9624741954387968e+18
14005.0	1.9619938754887677e+18
14006.0	1.961503886829158e+18
14007.0	1.9610181058953216e+18
14008.0	1.960448336540467e+18
14009.0	1.9600614136741883e+18
14010.0	1.9595634961022973e+18
14011.0	1.9586003379421184e+18
14012.0	1.9586139761410043e+18
14013.0	1.9581375082397693e+18
14014.0	1.9576494858698747e+18
14015.0	1.957173155541811e+18
14016.0	1.9566938455801853e+18
14017.0	1.9562126095941627e+18
14018.0	1.955720889525862e+18
14019.0	1.9552527850668027e+18
14020.0	1.9547692287918077e+18
14021.0	1.9542912039649277e+18
14022.0	1.9538099545571325e+18
14023.0	1.9532883525894136e+18
14024.0	1.9528291232776184e+18
14025.0	1.9523716857724925e+18
14026.0	1.95189183390679e+18
14027.0	1.9514095577333755e+18
14028.0	1.950929249527398e+18
14029.0	1.9504422287572987e+18
14030.0	1.9485466684293128e+18
14031.0	1.9494731650170877e+18
14032.0	1.949017836408012e+18
14033.0	1.9484789891399677e+18
14034.0	1.9480607499223035e+18
14035.0	1.9475793428086781e+18
14036.0	1.9471014538772477e+18
14037.0	1.9466073145344e+18
14038.0	1.946148199307673e+18
14039.0	1.9456678575472635e+18
14040.0	1.945180791478681e+18
14041.0	1.9447146247880696e+18
14042.0	1.9442324543111163e+18
14043.0	1.9437300723220477e+18
14044.0	1.9432795772289021e+18
14045.0	1.9428060554067968e+18
14046.0	1.9423288711184381e+18
14047.0	1.9418451537821693e+18
14048.0	1.9413774016446461e+18
14049.0	1.9409055810322427e+18
14050.0	1.9404284151988221e+18
14051.0	1.9399418105036797e+18
14052.0	1.939473803352473e+18
14053.0	1.9389993134850043e+18
14054.0	1.9385285062164475e+18
14055.0	1.9380404570030077e+18
14056.0	1.937578248057651e+18
14057.0	1.9370981025906688e+18
14058.0	1.9366268641476603e+18
14059.0	1.9361520051814397e+18
14060.0	1.9356792400117755e+18
14061.0	1.935196304493772e+18
14062.0	1.9347290254737405e+18
14063.0	1.934239991437721e+18
14064.0	1.93360207806464e+18
14065.0	1.9333006753791997e+18
14066.0	1.9328281367019517e+18
14067.0	1.9323084372705277e+18
14068.0	1.9318870959456253e+18
14069.0	1.9314096247668733e+18
14070.0	1.9309409096171515e+18
14071.0	1.9304643276308477e+18
14072.0	1.9299928626954237e+18
14073.0	1.9295172319772672e+18
14074.0	1.9290496190906365e+18
14075.0	1.928559100271001e+18
14076.0	1.9280500627603453e+18
14077.0	1.9272743497236477e+18
14078.0	1.927132646001868e+18
14079.0	1.9266806292152317e+18
14080.0	1.9262197825798141e+18
14081.0	1.9257473261109243e+18
14082.0	1.9252342956228605e+18
14083.0	1.9248011750146043e+18
14084.0	1.9243349714141181e+18
14085.0	1.9234007858282493e+18
14086.0	1.923363716569497e+18
14087.0	1.9229231217115133e+18
14088.0	1.9224380672311293e+18
14089.0	1.9219230503206907e+18
14090.0	1.9215038850007037e+18
14091.0	1.921042481361715e+18
14092.0	1.9205698285993981e+18
14093.0	1.9201002527784955e+18
14094.0	1.9196310326345725e+18
14095.0	1.9191620758929403e+18
14096.0	1.9186159439577083e+18
14097.0	1.9181646754349053e+18
14098.0	1.9176821291483133e+18
14099.0	1.917282688801177e+18
14100.0	1.9167990033416187e+18
14101.0	1.9163491189391355e+18
14102.0	1.9158760954003456e+18
14103.0	1.915400538501939e+18
14104.0	1.9149414853509115e+18
14105.0	1.914445703518617e+18
14106.0	1.9140049492770816e+18
14107.0	1.913449942194585e+18
14108.0	1.9130526459756541e+18
14109.0	1.912598016976486e+18
14110.0	1.9120968412692472e+18
14111.0	1.9115882785538045e+18
14112.0	1.911189549560627e+18
14113.0	1.9106986113105917e+18
14114.0	1.9102244435656704e+18
14115.0	1.9097925627936765e+18
14116.0	1.9091537635835896e+18
14117.0	1.906648866514535e+18
14118.0	1.9083945995927547e+18
14119.0	1.9078915750363128e+18
14120.0	1.9074317585219581e+18
14121.0	1.906976897997209e+18
14122.0	1.9065086257659904e+18
14123.0	1.9059605208301565e+18
14124.0	1.9055059841056765e+18
14125.0	1.904719674579353e+18
14126.0	1.9046544212754427e+18
14127.0	1.9042140042559483e+18
14128.0	1.9037478694420472e+18
14129.0	1.9032718075494397e+18
14130.0	1.9027953480368125e+18
14131.0	1.9023495606304765e+18
14132.0	1.9018834593710077e+18
14133.0	1.9009383417511918e+18
14134.0	1.900961443977625e+18
14135.0	1.900476835771187e+18
14136.0	1.8998289181442043e+18
14137.0	1.899567685147033e+18
14138.0	1.8990722707357693e+18
14139.0	1.8986451060391933e+18
14140.0	1.8981193517105147e+18
14141.0	1.8977173729705981e+18
14142.0	1.8970008583405565e+18
14143.0	1.8964816035053568e+18
14144.0	1.8963318249095165e+18
14145.0	1.895869110969958e+18
14146.0	1.895403459339878e+18
14147.0	1.8949423006482432e+18
14148.0	1.8944685556891643e+18
14149.0	1.8939974682411003e+18
14150.0	1.8935572374487037e+18
14151.0	1.8930621199941632e+18
14152.0	1.892636581009817e+18
14153.0	1.8921771671486467e+18
14154.0	1.8916911546892283e+18
14155.0	1.889320399850702e+18
14156.0	1.8907189989081078e+18
14157.0	1.89032749418414e+18
14158.0	1.8898345544122363e+18
14159.0	1.8894095606874107e+18
14160.0	1.8889515561123837e+18
14161.0	1.8884299507892224e+18
14162.0	1.887934704150118e+18
14163.0	1.8875723431280635e+18
14164.0	1.8870189164593147e+18
14165.0	1.886010954743808e+18
14166.0	1.8861862565183483e+18
14167.0	1.8857219470655483e+18
14168.0	1.885249342957158e+18
14169.0	1.8848139289034747e+18
14170.0	1.8843405060669437e+18
14171.0	1.8838742001254397e+18
14172.0	1.883440227234611e+18
14173.0	1.8826985803350016e+18
14174.0	1.8825117945561083e+18
14175.0	1.8820652974735355e+18
14176.0	1.8815673027264507e+18
14177.0	1.8811356081815547e+18
14178.0	1.8806835007979515e+18
14179.0	1.880172188296806e+18
14180.0	1.8797773264519165e+18
14181.0	1.8793191658487803e+18
14182.0	1.878862114219622e+18
14183.0	1.878405463565926e+18
14184.0	1.877942987862835e+18
14185.0	1.8774896775528443e+18
14186.0	1.8765788542402555e+18
14187.0	1.876556409680691e+18
14188.0	1.8761185360871421e+18
14189.0	1.8756546628419581e+18
14190.0	1.8752067464069115e+18
14191.0	1.8747490220113915e+18
14192.0	1.8742897591451643e+18
14193.0	1.8737681387225083e+18
14194.0	1.8733829288099835e+18
14195.0	1.8729327994601464e+18
14196.0	1.8724760766644221e+18
14197.0	1.8720209124720637e+18
14198.0	1.871563251829964e+18
14199.0	1.8710908809248765e+18
14200.0	1.8704008642297856e+18
14201.0	1.870200235569971e+18
14202.0	1.8697476500357115e+18
14203.0	1.8692265329295352e+18
14204.0	1.8688316291416061e+18
14205.0	1.8683843401744384e+18
14206.0	1.8678192415965181e+18
14207.0	1.867479700943667e+18
14208.0	1.867026224539238e+18
14209.0	1.8664400655220728e+18
14210.0	1.866044681905766e+18
14211.0	1.8656595525238784e+18
14212.0	1.8652124648833021e+18
14213.0	1.8647395386523645e+18
14214.0	1.864306721711718e+18
14215.0	1.86382672723968e+18
14216.0	1.8634004836122621e+18
14217.0	1.862948852701593e+18
14218.0	1.8624850348212221e+18
14219.0	1.8620373096464384e+18
14220.0	1.8615900710109184e+18
14221.0	1.8611296488390653e+18
14222.0	1.860597779215155e+18
14223.0	1.8602224577937405e+18
14224.0	1.8597864129167355e+18
14225.0	1.858644849197056e+18
14226.0	1.8588843892539384e+18
14227.0	1.858432612381491e+18
14228.0	1.8564545752596485e+18
14229.0	1.8573323709448174e+18
14230.0	1.8570809559744507e+18
14231.0	1.8565475294248955e+18
14232.0	1.856180455682867e+18
14233.0	1.855721295157657e+18
14234.0	1.8552811281186808e+18
14235.0	1.8548276970127355e+18
14236.0	1.85437023937495e+18
14237.0	1.8539257891127293e+18
14238.0	1.8534756916396032e+18
14239.0	1.8530178095382525e+18
14240.0	1.85141215279186e+18
14241.0	1.8521315480698877e+18
14242.0	1.8516848530161661e+18
14243.0	1.8510958032846843e+18
14244.0	1.8507893422686203e+18
14245.0	1.8503203167404027e+18
14246.0	1.8498516284342272e+18
14247.0	1.8494353722834941e+18
14248.0	1.8489822867881981e+18
14249.0	1.8485433545523197e+18
14250.0	1.8480981560262653e+18
14251.0	1.8476510767742976e+18
14252.0	1.8472029002924032e+18
14253.0	1.8467522340716541e+18
14254.0	1.8463078324633597e+18
14255.0	1.8458380469272576e+18
14256.0	1.8450900011974653e+18
14257.0	1.8449615648980987e+18
14258.0	1.844522335705497e+18
14259.0	1.8440274967527421e+18
14260.0	1.8436186578092027e+18
14261.0	1.8431611632615421e+18
14262.0	1.842737484870451e+18
14263.0	1.841795818323968e+18
14264.0	1.8417751370498043e+18
14265.0	1.8413400535072765e+18
14266.0	1.8409531641954296e+18
14267.0	1.8405039777251325e+18
14268.0	1.840058608071475e+18
14269.0	1.839608059291238e+18
14270.0	1.839172333181337e+18
14271.0	1.838716378782105e+18
14272.0	1.8382752839630845e+18
14273.0	1.8378357175484413e+18
14274.0	1.8366856024817667e+18
14275.0	1.8368853016838144e+18
14276.0	1.836429929453977e+18
14277.0	1.8360191225430013e+18
14278.0	1.8356150265184256e+18
14279.0	1.8351693632634875e+18
14280.0	1.8347203177218043e+18
14281.0	1.8342838534143997e+18
14282.0	1.8338397940613115e+18
14283.0	1.8333966490664955e+18
14284.0	1.8329531433615355e+18
14285.0	1.8325101862715387e+18
14286.0	1.832062184272691e+18
14287.0	1.8316185175064576e+18
14288.0	1.8311794611191805e+18
14289.0	1.8299905017642985e+18
14290.0	1.8302801637539837e+18
14291.0	1.8298505260957693e+18
14292.0	1.829410018479308e+18
14293.0	1.828968891783577e+18
14294.0	1.8283931598061568e+18
14295.0	1.8280627023380477e+18
14296.0	1.8270360138940419e+18
14297.0	1.8272033699790845e+18
14298.0	1.8264140019662843e+18
14299.0	1.8262936942280704e+18
14300.0	1.8258704000352253e+18
14301.0	1.8253995273355261e+18
14302.0	1.8249917587783675e+18
14303.0	1.8245117206855675e+18
14304.0	1.8241010211487741e+18
14305.0	1.8236652614844413e+18
14306.0	1.8230772418740221e+18
14307.0	1.8227527822606333e+18
14308.0	1.8223490234580987e+18
14309.0	1.8218976928595965e+18
14310.0	1.8208056068276216e+18
14311.0	1.8205194294657021e+18
14312.0	1.8205124048453627e+18
14313.0	1.8200965983240187e+18
14314.0	1.8197019495497725e+18
14315.0	1.8192734728749053e+18
14316.0	1.8187908108255227e+18
14317.0	1.8181215307694077e+18
14318.0	1.817958370666086e+18
14319.0	1.817521839249817e+18
14320.0	1.8170843934752765e+18
14321.0	1.816641208215142e+18
14322.0	1.816165574141542e+18
14323.0	1.815757597546905e+18
14324.0	1.8153133905543168e+18
14325.0	1.8148848836804603e+18
14326.0	1.8144574589370368e+18
14327.0	1.8140047710617592e+18
14328.0	1.8135750981713917e+18
14329.0	1.8131460846256125e+18
14330.0	1.8127071372902392e+18
14331.0	1.8122575599108093e+18
14332.0	1.8118297442582528e+18
14333.0	1.811396897118617e+18
14334.0	1.8109606995689464e+18
14335.0	1.8104732358803456e+18
14336.0	1.8099879851065344e+18
14337.0	1.8096453641568253e+18
14338.0	1.8092090474889213e+18
14339.0	1.8087616276594688e+18
14340.0	1.808342313022259e+18
14341.0	1.8078975842582523e+18
14342.0	1.8074646968532987e+18
14343.0	1.807003122086707e+18
14344.0	1.8065783397548024e+18
14345.0	1.8061650967920637e+18
14346.0	1.8057294814117885e+18
14347.0	1.8052594928713725e+18
14348.0	1.804848509799629e+18
14349.0	1.8044268715180032e+18
14350.0	1.8039379096240125e+18
14351.0	1.803500537669222e+18
14352.0	1.803114519094886e+18
14353.0	1.8026885539692544e+18
14354.0	1.8022483399540739e+18
14355.0	1.8018112079134717e+18
14356.0	1.8013812464549885e+18
14357.0	1.8009546135961597e+18
14358.0	1.800520694392422e+18
14359.0	1.8000718602436603e+18
14360.0	1.7996515440066555e+18
14361.0	1.7992208963600381e+18
14362.0	1.798787076141875e+18
14363.0	1.7983550275977213e+18
14364.0	1.797711019062067e+18
14365.0	1.7974650499760125e+18
14366.0	1.7970247537524733e+18
14367.0	1.7966230098935803e+18
14368.0	1.796191454599577e+18
14369.0	1.7957614360985597e+18
14370.0	1.7953285268832253e+18
14371.0	1.7948973591429117e+18
14372.0	1.7944543265554427e+18
14373.0	1.794033822413619e+18
14374.0	1.793596492401868e+18
14375.0	1.7931696867377147e+18
14376.0	1.7927386481819648e+18
14377.0	1.7923088444293115e+18
14378.0	1.79187541344256e+18
14379.0	1.7914474719608827e+18
14380.0	1.7910133413642237e+18
14381.0	1.7905737330065405e+18
14382.0	1.7901513481388027e+18
14383.0	1.7896723686883325e+18
14384.0	1.7892705342324739e+18
14385.0	1.7888653996982272e+18
14386.0	1.78841757721559e+18
14387.0	1.7880010626957307e+18
14388.0	1.7875678196137981e+18
14389.0	1.7871410038833152e+18
14390.0	1.786711361191936e+18
14391.0	1.7862741519761403e+18
14392.0	1.785796585167257e+18
14393.0	1.7854259244564475e+18
14394.0	1.784960494285619e+18
14395.0	1.78420459849646e+18
14396.0	1.784121809646387e+18
14397.0	1.7837109456928765e+18
14398.0	1.7832282752548861e+18
14399.0	1.782846635533926e+18
14400.0	1.7821128789590016e+18
14401.0	1.781989403682406e+18
14402.0	1.7815633882251261e+18
14403.0	1.7724758447619942e+18
14404.0	1.759372350849021e+18
14405.0	1.7792378026852303e+18
14406.0	1.7798578416123896e+18
14407.0	1.7659301032099912e+18
14408.0	1.7789147624243195e+18
14409.0	1.7785505542307837e+18
14410.0	1.778117185319731e+18
14411.0	1.7777092154359805e+18
14412.0	1.7772923217510397e+18
14413.0	1.7768656335273981e+18
14414.0	1.776438977180467e+18
14415.0	1.776015335699251e+18
14416.0	1.7755737778290685e+18
14417.0	1.7750879029428221e+18
14418.0	1.7746479858843648e+18
14419.0	1.7743114449977336e+18
14420.0	1.7738813509992448e+18
14421.0	1.7734605717110781e+18
14422.0	1.7730300582821885e+18
14423.0	1.772602110089625e+18
14424.0	1.725176072896484e+18
14425.0	1.7717533087891453e+18
14426.0	1.7713321838903293e+18
14427.0	1.7709100976570363e+18
14428.0	1.7704230433325053e+18
14429.0	1.7700597813739515e+18
14430.0	1.7696377236619261e+18
14431.0	1.7688925116039165e+18
14432.0	1.7687389447127037e+18
14433.0	1.7581749257109435e+18
14434.0	1.767926835183616e+18
14435.0	1.7674597054808056e+18
14436.0	1.7670943765692413e+18
14437.0	1.7666706277138432e+18
14438.0	1.7659097021153277e+18
14439.0	1.7657467685044216e+18
14440.0	1.7654006981591035e+18
14441.0	1.7649694347886587e+18
14442.0	1.764547023077376e+18
14443.0	1.764090551939891e+18
14444.0	1.7637045602091003e+18
14445.0	1.7632843580571643e+18
14446.0	1.7523137482588204e+18
14447.0	1.7624269383008253e+18
14448.0	1.762019500254822e+18
14449.0	1.7615983619342333e+18
14450.0	1.761170776129536e+18
14451.0	1.7607501058932733e+18
14452.0	1.7603258268778493e+18
14453.0	1.7596840849440765e+18
14454.0	1.7594811661942781e+18
14455.0	1.7590587192508416e+18
14456.0	1.7585968626270203e+18
14457.0	1.758139386534297e+18
14458.0	1.757548301726515e+18
14459.0	1.7572694727852032e+18
14460.0	1.7569594466107387e+18
14461.0	1.7565052051652603e+18
14462.0	1.7556915353550848e+18
14463.0	1.755689924742348e+18
14464.0	1.755279116153651e+18
14465.0	1.7548447808749565e+18
14466.0	1.7544289005338621e+18
14467.0	1.7538591915769856e+18
14468.0	1.7535837046571003e+18
14469.0	1.7531550266556413e+18
14470.0	1.7527346953191421e+18
14471.0	1.752320440690278e+18
14472.0	1.751908979467878e+18
14473.0	1.7515028752105472e+18
14474.0	1.7510842484391933e+18
14475.0	1.7506567934967805e+18
14476.0	1.7495630817525763e+18
14477.0	1.7498269085073405e+18
14478.0	1.7494058423287805e+18
14479.0	1.7489744665509888e+18
14480.0	1.748559815979827e+18
14481.0	1.748158307001958e+18
14482.0	1.747736432161587e+18
14483.0	1.7473068918112253e+18
14484.0	1.746900262427033e+18
14485.0	1.746445047903027e+18
14486.0	1.7458012641820672e+18
14487.0	1.7456483784458235e+18
14488.0	1.7451182838513661e+18
14489.0	1.7447781543182339e+18
14490.0	1.7443598010155003e+18
14491.0	1.7439827800621053e+18
14492.0	1.7435591134150653e+18
14493.0	1.7431225752879104e+18
14494.0	1.7427113271361533e+18
14495.0	1.7423173175738363e+18
14496.0	1.741779082674176e+18
14497.0	1.7414832517021693e+18
14498.0	1.7410650712047613e+18
14499.0	1.7406541636304893e+18
14500.0	1.7402379578114048e+18
14501.0	1.7394879306924027e+18
14502.0	1.7388489167339525e+18
14503.0	1.738941679638937e+18
14504.0	1.7385666518188027e+18
14505.0	1.7378381230243827e+18
14506.0	1.7370107932049405e+18
14507.0	1.7371105220100096e+18
14508.0	1.7369142940139515e+18
14509.0	1.7364992055574528e+18
14510.0	1.7360834527231997e+18
14511.0	1.7356708976263165e+18
14512.0	1.7352401006624765e+18
14513.0	1.7348414069014525e+18
14514.0	1.7342366234968061e+18
14515.0	1.7339944779382781e+18
14516.0	1.731805450548021e+18
14517.0	1.733186290922291e+18
14518.0	1.7327713450721277e+18
14519.0	1.732357628991897e+18
14520.0	1.7319451863023613e+18
14521.0	1.7315169495416827e+18
14522.0	1.731109548405555e+18
14523.0	1.7299281505419254e+18
14524.0	1.729501599891455e+18
14525.0	1.7298738259165181e+18
14526.0	1.7294609621188605e+18
14527.0	1.7289156422008824e+18
14528.0	1.7283856549806075e+18
14529.0	1.7282191142682624e+18
14530.0	1.7277970632671227e+18
14531.0	1.7274021947113467e+18
14532.0	1.7254184617246723e+18
14533.0	1.7265782421454848e+18
14534.0	1.726169060946739e+18
14535.0	1.7257428877836288e+18
14536.0	1.7253395249233915e+18
14537.0	1.7249182121197565e+18
14538.0	1.7245108680261627e+18
14539.0	1.724110167710105e+18
14540.0	1.7236992534249467e+18
14541.0	1.7232651530272763e+18
14542.0	1.72287327249367e+18
14543.0	1.7219846940917752e+18
14544.0	1.7220538447429627e+18
14545.0	1.7216200647901181e+18
14546.0	1.680327009370093e+18
14547.0	1.6840027916992271e+18
14548.0	1.7203959773003768e+18
14549.0	1.7198953569189888e+18
14550.0	1.7195845724143616e+18
14551.0	1.7191852276973563e+18
14552.0	1.718746032059187e+18
14553.0	1.718329588003635e+18
14554.0	1.717955471186329e+18
14555.0	1.7175424178061312e+18
14556.0	1.717116167467827e+18
14557.0	1.7167278856470525e+18
14558.0	1.7163178219667453e+18
14559.0	1.7142763048927183e+18
14560.0	1.7152204578226168e+18
14561.0	1.7150874413432832e+18
14562.0	1.7146494435983357e+18
14563.0	1.7142758149980157e+18
14564.0	1.7138279505723387e+18
14565.0	1.713460591617638e+18
14566.0	1.7130529958658043e+18
14567.0	1.7126423315611643e+18
14568.0	1.7120283743748096e+18
14569.0	1.711826344817459e+18
14570.0	1.7109737216671741e+18
14571.0	1.7110095074689021e+18
14572.0	1.71052079555543e+18
14573.0	1.7101434122141696e+18
14574.0	1.7096790557851648e+18
14575.0	1.7093711066300413e+18
14576.0	1.7089687168483323e+18
14577.0	1.7085598024073208e+18
14578.0	1.7081602311979005e+18
14579.0	1.7077503034130427e+18
14580.0	1.7073489605296125e+18
14581.0	1.7068563093258235e+18
14582.0	1.7065337556041723e+18
14583.0	1.7061299749912576e+18
14584.0	1.705709512792473e+18
14585.0	1.7053160333901821e+18
14586.0	1.704907927610982e+18
14587.0	1.7044890827358205e+18
14588.0	1.704094242701312e+18
14589.0	1.703709200560947e+18
14590.0	1.703321276094873e+18
14591.0	1.702921602544435e+18
14592.0	1.7025345202946048e+18
14593.0	1.7020413439639547e+18
14594.0	1.701760023606067e+18
14595.0	1.701368903080345e+18
14596.0	1.7007767260758013e+18
14597.0	1.7004261594365947e+18
14598.0	1.7001982694785024e+18
14599.0	1.6998230956965885e+18
14600.0	1.699428644893491e+18
14601.0	1.699043278952857e+18
14602.0	1.6985771860819965e+18
14603.0	1.6982355717652477e+18
14604.0	1.697827251237683e+18
14605.0	1.697435659272192e+18
14606.0	1.6969609278128125e+18
14607.0	1.6967179903696888e+18
14608.0	1.6963126729637885e+18
14609.0	1.695816193199308e+18
14610.0	1.6954425125896187e+18
14611.0	1.6951641383108605e+18
14612.0	1.6947827720585213e+18
14613.0	1.6943989378777085e+18
14614.0	1.6940075254284288e+18
14615.0	1.6935466989256696e+18
14616.0	1.693235162801766e+18
14617.0	1.6928489915547648e+18
14618.0	1.6923682186199037e+18
14619.0	1.6919829113995256e+18
14620.0	1.6912089952026621e+18
14621.0	1.6913047209639933e+18
14622.0	1.6909151707856893e+18
14623.0	1.6905315026993147e+18
14624.0	1.6900916259061757e+18
14625.0	1.6897566905991165e+18
14626.0	1.689343268120166e+18
14627.0	1.6889450659315712e+18
14628.0	1.6886032469327872e+18
14629.0	1.6882175773245437e+18
14630.0	1.6878290572673021e+18
14631.0	1.6874279542980605e+18
14632.0	1.6825208383995927e+18
14633.0	1.6861861467127785e+18
14634.0	1.6862746935033853e+18
14635.0	1.684212352548852e+18
14636.0	1.6794573741228017e+18
14637.0	1.685135319210393e+18
14638.0	1.6847137832697853e+18
14639.0	1.6843519305973757e+18
14640.0	1.6839755354341368e+18
14641.0	1.6670061917896576e+18
14642.0	1.683205125675417e+18
14643.0	1.682824408701337e+18
14644.0	1.6824270034305021e+18
14645.0	1.6820321113866235e+18
14646.0	1.6816050641305597e+18
14647.0	1.6812304439967744e+18
