# Flux units: erg / (cm m2 s)
# Wavelength units: Angstrom
wave	flux
14000.0	1.430878100547174e+18
14001.0	1.4305389642252285e+18
14002.0	1.4303847161790464e+18
14003.0	1.4301087477530621e+18
14004.0	1.4298277058969597e+18
14005.0	1.4295495547551744e+18
14006.0	1.4292633841041408e+18
14007.0	1.4289832633171965e+18
14008.0	1.4286343777550336e+18
14009.0	1.4284307006750715e+18
14010.0	1.4281467513274365e+18
14011.0	1.4273426982174723e+18
14012.0	1.4275977924313085e+18
14013.0	1.4273190507315197e+18
14014.0	1.427034490693222e+18
14015.0	1.4267590843039741e+18
14016.0	1.426481077446246e+18
14017.0	1.4262014750752765e+18
14018.0	1.4259223642767357e+18
14019.0	1.4256451979575293e+18
14020.0	1.4253658958987264e+18
14021.0	1.4250867582566397e+18
14022.0	1.4247987941212157e+18
14023.0	1.4244789616639997e+18
14024.0	1.4242259562135547e+18
14025.0	1.4239714139701248e+18
14026.0	1.4236936050835453e+18
14027.0	1.4234152173830141e+18
14028.0	1.4231352073256957e+18
14029.0	1.4228581366366208e+18
14030.0	1.419904598356789e+18
14031.0	1.422246781596467e+18
14032.0	1.422023114463641e+18
14033.0	1.4216883049857021e+18
14034.0	1.4214683540062203e+18
14035.0	1.421190350503936e+18
14036.0	1.4209079211720701e+18
14037.0	1.4206333888757757e+18
14038.0	1.4203590461620221e+18
14039.0	1.4200789455077373e+18
14040.0	1.4197957125472253e+18
14041.0	1.4195246296465403e+18
14042.0	1.4192424821719035e+18
14043.0	1.4189357795639293e+18
14044.0	1.418683862954803e+18
14045.0	1.4184105956605947e+18
14046.0	1.4181283575889917e+18
14047.0	1.4178386804998141e+18
14048.0	1.417571914376806e+18
14049.0	1.4173003751358464e+18
14050.0	1.4170234269204475e+18
14051.0	1.416738293101363e+18
14052.0	1.4164675994320893e+18
14053.0	1.4161922098200573e+18
14054.0	1.415916402455347e+18
14055.0	1.4156390633308157e+18
14056.0	1.415363314686361e+18
14057.0	1.4150874704117757e+18
14058.0	1.414811429843763e+18
14059.0	1.4145316278239232e+18
14060.0	1.414258897400627e+18
14061.0	1.4139767230824448e+18
14062.0	1.4137062961709053e+18
14063.0	1.4134177733541885e+18
14064.0	1.4125978053771264e+18
14065.0	1.412870171734835e+18
14066.0	1.4126002514952192e+18
14067.0	1.412286903431987e+18
14068.0	1.412049086395187e+18
14069.0	1.4117675210899453e+18
14070.0	1.4114976243384317e+18
14071.0	1.4112203389009917e+18
14072.0	1.4109457847943165e+18
14073.0	1.4106715863646208e+18
14074.0	1.4103959534829563e+18
14075.0	1.4101012616839165e+18
14076.0	1.4097959532625917e+18
14077.0	1.4089367484104704e+18
14078.0	1.4092470010773501e+18
14079.0	1.4090107980087293e+18
14080.0	1.408743496692531e+18
14081.0	1.408468929164083e+18
14082.0	1.4081889644052477e+18
14083.0	1.4079167087771648e+18
14084.0	1.4076434028953597e+18
14085.0	1.406868301388185e+18
14086.0	1.4070275792437248e+18
14087.0	1.4067925472247805e+18
14088.0	1.4065031075332096e+18
14089.0	1.4062118005374973e+18
14090.0	1.4059588001202173e+18
14091.0	1.4056958717853693e+18
14092.0	1.4054205417324541e+18
14093.0	1.4051427907272701e+18
14094.0	1.404868739098214e+18
14095.0	1.4045946849525757e+18
14096.0	1.4042055248445437e+18
14097.0	1.404019324590489e+18
14098.0	1.403723023856435e+18
14099.0	1.4035016367472637e+18
14100.0	1.403215890559795e+18
14101.0	1.4029548261736443e+18
14102.0	1.4026799516221437e+18
14103.0	1.4023941609750525e+18
14104.0	1.402131955738214e+18
14105.0	1.4018600037777403e+18
14106.0	1.4015861081767933e+18
14107.0	1.401309659083571e+18
14108.0	1.4010273102823421e+18
14109.0	1.400768795194163e+18
14110.0	1.4004915693158397e+18
14111.0	1.4002098798591995e+18
14112.0	1.3999432404041725e+18
14113.0	1.3996536119689213e+18
14114.0	1.3993929946955773e+18
14115.0	1.3991248444522493e+18
14116.0	1.3987471448604667e+18
14117.0	1.394091235056028e+18
14118.0	1.3983116821528573e+18
14119.0	1.3979793162764283e+18
14120.0	1.397706059887411e+18
14121.0	1.3974853480611837e+18
14122.0	1.3971062802874363e+18
14123.0	1.3968829008838653e+18
14124.0	1.3965765371756541e+18
14125.0	1.3960464467755008e+18
14126.0	1.3961188278796285e+18
14127.0	1.3958625777156093e+18
14128.0	1.3955903539642365e+18
14129.0	1.3953115325726717e+18
14130.0	1.395031633244979e+18
14131.0	1.394772249097011e+18
14132.0	1.3944987024621565e+18
14133.0	1.3938093333676012e+18
14134.0	1.3939584249364477e+18
14135.0	1.3936633128681467e+18
14136.0	1.39323112423424e+18
14137.0	1.3931371533697021e+18
14138.0	1.392812741571379e+18
14139.0	1.392598689461043e+18
14140.0	1.3923182566178813e+18
14141.0	1.3920493438500861e+18
14142.0	1.3914404064067587e+18
14143.0	1.3915066403389437e+18
14144.0	1.391244046709555e+18
14145.0	1.3909713515184125e+18
14146.0	1.390691782701875e+18
14147.0	1.3904266053812221e+18
14148.0	1.3901455710748667e+18
14149.0	1.389870936437555e+18
14150.0	1.389617952797491e+18
14151.0	1.3893209105104893e+18
14152.0	1.3890773497937917e+18
14153.0	1.3887216803643387e+18
14154.0	1.3880664243830781e+18
14155.0	1.3864633530056714e+18
14156.0	1.3874842491158523e+18
14157.0	1.3872728201232381e+18
14158.0	1.3869964742098941e+18
14159.0	1.3867309739278333e+18
14160.0	1.3864558930165757e+18
14161.0	1.386137372537651e+18
14162.0	1.3858168614420477e+18
14163.0	1.385753883967488e+18
14164.0	1.3853452119572475e+18
14165.0	1.3851085173161981e+18
14166.0	1.3849457841930237e+18
14167.0	1.3846691799105533e+18
14168.0	1.3843903845236733e+18
14169.0	1.3841380468064253e+18
14170.0	1.3838579662847995e+18
14171.0	1.3835921866620928e+18
14172.0	1.3833316960567293e+18
14173.0	1.3830040856821757e+18
14174.0	1.3827857872584701e+18
14175.0	1.3825227658100736e+18
14176.0	1.3822496318947325e+18
14177.0	1.3819843346169853e+18
14178.0	1.3817152431718395e+18
14179.0	1.3814350242381821e+18
14180.0	1.3811784662122493e+18
14181.0	1.3809096071315453e+18
14182.0	1.3806401222606845e+18
14183.0	1.3803723956420603e+18
14184.0	1.3801003094638587e+18
14185.0	1.379835497886515e+18
14186.0	1.3787976173617157e+18
14187.0	1.3792769558446077e+18
14188.0	1.3790235074756605e+18
14189.0	1.3787495162445821e+18
14190.0	1.378481958236979e+18
14191.0	1.3782156425822208e+18
14192.0	1.3779590434521085e+18
14193.0	1.377567293780787e+18
14194.0	1.377422657401651e+18
14195.0	1.3771622993362941e+18
14196.0	1.3768940845006845e+18
14197.0	1.3766251222401021e+18
14198.0	1.3763537633542141e+18
14199.0	1.3760874334388221e+18
14200.0	1.3753031069794307e+18
14201.0	1.3755399601651707e+18
14202.0	1.3752840245739517e+18
14203.0	1.3750063289335805e+18
14204.0	1.3747461218631677e+18
14205.0	1.3744817305550845e+18
14206.0	1.3741194064429056e+18
14207.0	1.373948670587699e+18
14208.0	1.373681552143155e+18
14209.0	1.3732996993515517e+18
14210.0	1.373086437448089e+18
14211.0	1.3728755881082877e+18
14212.0	1.3726126119583741e+18
14213.0	1.3723367005749248e+18
14214.0	1.372078393524224e+18
14215.0	1.3717982811258877e+18
14216.0	1.3715447958470656e+18
14217.0	1.3712789835087867e+18
14218.0	1.3710043463548925e+18
14219.0	1.3707430445711357e+18
14220.0	1.3704707335782395e+18
14221.0	1.3702004081688573e+18
14222.0	1.3698690237595645e+18
14223.0	1.3696734140039165e+18
14224.0	1.3694112960086013e+18
14225.0	1.3675237660950538e+18
14226.0	1.3688673920876541e+18
14227.0	1.3686103424892925e+18
14228.0	1.3635584887095327e+18
14229.0	1.3675574547447772e+18
14230.0	1.3678131520995325e+18
14231.0	1.367479724225331e+18
14232.0	1.367281459475251e+18
14233.0	1.3670101433712637e+18
14234.0	1.3667499925045245e+18
14235.0	1.3664823699046397e+18
14236.0	1.3662187084054525e+18
14237.0	1.365950047295897e+18
14238.0	1.3656860989063165e+18
14239.0	1.365408252271001e+18
14240.0	1.3637891787849738e+18
14241.0	1.364879342147993e+18
14242.0	1.364621623138713e+18
14243.0	1.3642398265507837e+18
14244.0	1.364094715376435e+18
14245.0	1.3638153537585147e+18
14246.0	1.3635400832647165e+18
14247.0	1.3632960712409085e+18
14248.0	1.3630198150856701e+18
14249.0	1.3627666804506621e+18
14250.0	1.362502993785651e+18
14251.0	1.3622373802573821e+18
14252.0	1.3619753511813117e+18
14253.0	1.361710077391667e+18
14254.0	1.3614439815184381e+18
14255.0	1.361152159462195e+18
14256.0	1.359403669048526e+18
14257.0	1.3605990708543483e+18
14258.0	1.3603842151153664e+18
14259.0	1.3601054272782333e+18
14260.0	1.3598077004808192e+18
14261.0	1.359580717331251e+18
14262.0	1.3593419003723773e+18
14263.0	1.356866813899573e+18
14264.0	1.3584557454393344e+18
14265.0	1.3585389495255037e+18
14266.0	1.3582834744688637e+18
14267.0	1.3580202927980544e+18
14268.0	1.3577537674280957e+18
14269.0	1.3574866875711485e+18
14270.0	1.3572291128459261e+18
14271.0	1.3569629481861117e+18
14272.0	1.3567016455634944e+18
14273.0	1.3564376451645437e+18
14274.0	1.35292591548662e+18
14275.0	1.3556135843856384e+18
14276.0	1.355631591371571e+18
14277.0	1.35536746430464e+18
14278.0	1.3551207763148795e+18
14279.0	1.354857557734195e+18
14280.0	1.3545882783842301e+18
14281.0	1.354331524903731e+18
14282.0	1.354068797895475e+18
14283.0	1.3538058469113853e+18
14284.0	1.3535429496143867e+18
14285.0	1.3532792050679805e+18
14286.0	1.3530081808875515e+18
14287.0	1.3527519852494848e+18
14288.0	1.352488946185011e+18
14289.0	1.3513534491066332e+18
14290.0	1.3519615980208125e+18
14291.0	1.3517007391555581e+18
14292.0	1.3514378510860285e+18
14293.0	1.3511748900356093e+18
14294.0	1.350805877686272e+18
14295.0	1.350640961008435e+18
14296.0	1.3496853693726725e+18
14297.0	1.350119194624e+18
14298.0	1.3493467950874621e+18
14299.0	1.349578287952691e+18
14300.0	1.3493324816056317e+18
14301.0	1.3490754320072701e+18
14302.0	1.348813137851187e+18
14303.0	1.3485285937512448e+18
14304.0	1.3482789714264061e+18
14305.0	1.3480296225701885e+18
14306.0	1.3477204486782973e+18
14307.0	1.3474868251066365e+18
14308.0	1.3472433205936128e+18
14309.0	1.3469789729062912e+18
14310.0	1.3465803168940027e+18
14311.0	1.3456765198794747e+18
14312.0	1.3461187219947517e+18
14313.0	1.3458011980824576e+18
14314.0	1.3456588526321661e+18
14315.0	1.3454134212558845e+18
14316.0	1.345115823643033e+18
14317.0	1.344830709117747e+18
14318.0	1.3446334191239165e+18
14319.0	1.3443730031771645e+18
14320.0	1.3441117659856893e+18
14321.0	1.3438481321689085e+18
14322.0	1.3435537733976061e+18
14323.0	1.3433212562833405e+18
14324.0	1.3430670630060032e+18
14325.0	1.342802545029939e+18
14326.0	1.3425485144915965e+18
14327.0	1.342283369886515e+18
14328.0	1.342021305578291e+18
14329.0	1.341767369831219e+18
14330.0	1.3415248140697597e+18
14331.0	1.3412603304869885e+18
14332.0	1.341006267233075e+18
14333.0	1.3407465760620541e+18
14334.0	1.3404866189721595e+18
14335.0	1.3402093821886464e+18
14336.0	1.3398003075252221e+18
14337.0	1.3397047403085821e+18
14338.0	1.3394450625593344e+18
14339.0	1.3391755391008765e+18
14340.0	1.3389270626598907e+18
14341.0	1.3386550570123264e+18
14342.0	1.3384061686906877e+18
14343.0	1.3381442411167741e+18
14344.0	1.3378832748773373e+18
14345.0	1.3376265960554496e+18
14346.0	1.3373636517822461e+18
14347.0	1.3370224728342525e+18
14348.0	1.3368473514147837e+18
14349.0	1.3365897641066493e+18
14350.0	1.3362045458055165e+18
14351.0	1.3359350408019963e+18
14352.0	1.3358047581700093e+18
14353.0	1.3355368679735293e+18
14354.0	1.3352459619532797e+18
14355.0	1.3349551708569595e+18
14356.0	1.3347147432853501e+18
14357.0	1.3344850212552701e+18
14358.0	1.3342262805135357e+18
14359.0	1.333957865190195e+18
14360.0	1.3336967521501181e+18
14361.0	1.3334480022405117e+18
14362.0	1.333192211772211e+18
14363.0	1.332932138919526e+18
14364.0	1.3322670640726016e+18
14365.0	1.332373054973542e+18
14366.0	1.3320799528157181e+18
14367.0	1.3318992236118013e+18
14368.0	1.331641304953651e+18
14369.0	1.3313844323549181e+18
14370.0	1.331125334258483e+18
14371.0	1.330868399584051e+18
14372.0	1.3306028900745213e+18
14373.0	1.3303476834533373e+18
14374.0	1.3300938517250045e+18
14375.0	1.3298324660551677e+18
14376.0	1.3295782216073216e+18
14377.0	1.3293205135032317e+18
14378.0	1.3290613701083133e+18
14379.0	1.3288059109900285e+18
14380.0	1.328547693697433e+18
14381.0	1.328281910719283e+18
14382.0	1.3280323353706493e+18
14383.0	1.3277681806213117e+18
14384.0	1.3275046717947901e+18
14385.0	1.327233322975232e+18
14386.0	1.3269603366993917e+18
14387.0	1.3267130044645373e+18
14388.0	1.3264549381668861e+18
14389.0	1.3262005653733373e+18
14390.0	1.325941625821593e+18
14391.0	1.3256845401522173e+18
14392.0	1.3254260082868221e+18
14393.0	1.3251732385562621e+18
14394.0	1.3248879403204603e+18
14395.0	1.324638826345267e+18
14396.0	1.3244023288365056e+18
14397.0	1.3241467447279613e+18
14398.0	1.3238889862922237e+18
14399.0	1.3236319132057597e+18
14400.0	1.3233541630394365e+18
14401.0	1.3231120401301501e+18
14402.0	1.3228591965798397e+18
14403.0	1.3206214984859604e+18
14404.0	1.315286195319601e+18
14405.0	1.3209065635184566e+18
14406.0	1.3218368878280701e+18
14407.0	1.3184208335798287e+18
14408.0	1.3212695226482685e+18
14409.0	1.3210527903776765e+18
14410.0	1.3207829749956608e+18
14411.0	1.3205548224741373e+18
14412.0	1.3202990781431808e+18
14413.0	1.3200466573787136e+18
14414.0	1.319788956824371e+18
14415.0	1.3195342291927037e+18
14416.0	1.3192665520668667e+18
14417.0	1.318971629581107e+18
14418.0	1.3187053902626813e+18
14419.0	1.3185115211431936e+18
14420.0	1.3182516177403901e+18
14421.0	1.3180015617245181e+18
14422.0	1.317743827615744e+18
14423.0	1.317481179460403e+18
14424.0	1.3047256810782625e+18
14425.0	1.316975073768243e+18
14426.0	1.316726125887488e+18
14427.0	1.3164695359848445e+18
14428.0	1.3161964381405181e+18
14429.0	1.3159597871202301e+18
14430.0	1.3157057423212541e+18
14431.0	1.3147428148477955e+18
14432.0	1.315188036023091e+18
14433.0	1.31255967626035e+18
14434.0	1.3146764576030717e+18
14435.0	1.314341082732953e+18
14436.0	1.3141770485366781e+18
14437.0	1.313922895524659e+18
14438.0	1.3135476672167936e+18
14439.0	1.3133959474970621e+18
14440.0	1.3131591396098045e+18
14441.0	1.3128982698393595e+18
14442.0	1.3126344246296573e+18
14443.0	1.3123488512475133e+18
14444.0	1.3121385152905213e+18
14445.0	1.3118890716430333e+18
14446.0	1.3086806446702607e+18
14447.0	1.3113686247866363e+18
14448.0	1.3111273843589117e+18
14449.0	1.3108724293959677e+18
14450.0	1.3106151172341757e+18
14451.0	1.3103639111401467e+18
14452.0	1.310110591955763e+18
14453.0	1.3098201884131325e+18
14454.0	1.3096008397357053e+18
14455.0	1.3093443563683837e+18
14456.0	1.3090834958254077e+18
14457.0	1.308830427460403e+18
14458.0	1.308585228448563e+18
14459.0	1.3083322632634365e+18
14460.0	1.3080791210786816e+18
14461.0	1.3077867353079805e+18
14462.0	1.306884489347072e+18
14463.0	1.3073110274146301e+18
14464.0	1.30706751619072e+18
14465.0	1.3067914840113152e+18
14466.0	1.3065589786411005e+18
14467.0	1.3062689794293757e+18
14468.0	1.3060504335417341e+18
14469.0	1.3057349002461181e+18
14470.0	1.3050268128116736e+18
14471.0	1.304743157904179e+18
14472.0	1.3044949549318141e+18
14473.0	1.3042461479796733e+18
14474.0	1.3039966338678784e+18
14475.0	1.303739951690547e+18
14476.0	1.3033380056662016e+18
14477.0	1.3032492978143232e+18
14478.0	1.3029978635501565e+18
14479.0	1.3027390338891773e+18
14480.0	1.3024807872364544e+18
14481.0	1.3022434131181565e+18
14482.0	1.3019884237619195e+18
14483.0	1.3017302609952765e+18
14484.0	1.3014841216204795e+18
14485.0	1.301199742776115e+18
14486.0	1.3007361480327168e+18
14487.0	1.3007289011142653e+18
14488.0	1.3004024978604032e+18
14489.0	1.300159966425907e+18
14490.0	1.2999591758659581e+18
14491.0	1.2997238183690237e+18
14492.0	1.2994682661371901e+18
14493.0	1.299208324985651e+18
14494.0	1.2989491790741501e+18
14495.0	1.2987171233333245e+18
14496.0	1.2983557630722045e+18
14497.0	1.2982142137008125e+18
14498.0	1.2979630076067837e+18
14499.0	1.2977125699092477e+18
14500.0	1.2974610131714045e+18
14501.0	1.2971463472578557e+18
14502.0	1.2966782956470275e+18
14503.0	1.296676325163008e+18
14504.0	1.2964519466762237e+18
14505.0	1.2961529850757117e+18
14506.0	1.2958252044124157e+18
14507.0	1.2955009268318208e+18
14508.0	1.2954529767096317e+18
14509.0	1.2952016162652157e+18
14510.0	1.2949483574788093e+18
14511.0	1.2947005613539325e+18
14512.0	1.2944373301903357e+18
14513.0	1.2941983144214525e+18
14514.0	1.293913058967552e+18
14515.0	1.2936952672157693e+18
14516.0	1.2912393537454093e+18
14517.0	1.2931924465025021e+18
14518.0	1.2929451671158781e+18
14519.0	1.2926934241509373e+18
14520.0	1.2924433219977213e+18
14521.0	1.2921908148305917e+18
14522.0	1.2919379855409152e+18
14523.0	1.291496327846297e+18
14524.0	1.291299381785395e+18
14525.0	1.291188471804723e+18
14526.0	1.2909389241384957e+18
14527.0	1.2906818955116544e+18
14528.0	1.2902958937145344e+18
14529.0	1.2901846188294141e+18
14530.0	1.2899267723132925e+18
14531.0	1.2896913217028093e+18
14532.0	1.2892293350555648e+18
14533.0	1.2891908598661117e+18
14534.0	1.2889426887704573e+18
14535.0	1.2886843439710205e+18
14536.0	1.2884404636483581e+18
14537.0	1.2881823403081725e+18
14538.0	1.2879441894047741e+18
14539.0	1.287693911929651e+18
14540.0	1.287445240034099e+18
14541.0	1.2871793941413885e+18
14542.0	1.2869453016465405e+18
14543.0	1.2866001943134205e+18
14544.0	1.2864417075036157e+18
14545.0	1.2861848718147581e+18
14546.0	1.2687270796590986e+18
14547.0	1.2704293849137004e+18
14548.0	1.2854457448529917e+18
14549.0	1.2851070220894208e+18
14550.0	1.284951747277619e+18
14551.0	1.2847092594638845e+18
14552.0	1.2844593812865021e+18
14553.0	1.2842016824098813e+18
14554.0	1.2839611390754816e+18
14555.0	1.2837133194625021e+18
14556.0	1.2834611746832381e+18
14557.0	1.2832160369082365e+18
14558.0	1.2829668969283581e+18
14559.0	1.2810418363826104e+18
14560.0	1.2824227061170173e+18
14561.0	1.282214914424832e+18
14562.0	1.281940018901811e+18
14563.0	1.2817756030238717e+18
14564.0	1.2816160844152827e+18
14565.0	1.2814849989935101e+18
14566.0	1.2812366223769597e+18
14567.0	1.280985189790515e+18
14568.0	1.2806378921918464e+18
14569.0	1.2804894868111357e+18
14570.0	1.2796928920125443e+18
14571.0	1.279955608115609e+18
14572.0	1.279629943059251e+18
14573.0	1.2794118820331517e+18
14574.0	1.2790533789319165e+18
14575.0	1.2789530989953021e+18
14576.0	1.2786985861119997e+18
14577.0	1.2784640641204221e+18
14578.0	1.278215438362214e+18
14579.0	1.277973822124851e+18
14580.0	1.277724684661555e+18
14581.0	1.2774675855704061e+18
14582.0	1.2772218102611965e+18
14583.0	1.2769830235013117e+18
14584.0	1.2767005144776704e+18
14585.0	1.276487432090419e+18
14586.0	1.276237412984422e+18
14587.0	1.2759896940347392e+18
14588.0	1.2757448666382333e+18
14589.0	1.2755055027421181e+18
14590.0	1.275266331783987e+18
14591.0	1.2750165626585088e+18
14592.0	1.274780958536499e+18
14593.0	1.2744501705572352e+18
14594.0	1.274307639718707e+18
14595.0	1.2740626722324477e+18
14596.0	1.2734387997114355e+18
14597.0	1.2731179287445494e+18
14598.0	1.2733126442745853e+18
14599.0	1.2731100602302461e+18
14600.0	1.2728584036679675e+18
14601.0	1.2725984381894653e+18
14602.0	1.2723156145930237e+18
14603.0	1.2721198135771133e+18
14604.0	1.2718171534393341e+18
14605.0	1.2715367709278208e+18
14606.0	1.27131547860992e+18
14607.0	1.2711606676881405e+18
14608.0	1.270921049617203e+18
14609.0	1.2706726201524221e+18
14610.0	1.2702518106652672e+18
14611.0	1.2701969013538813e+18
14612.0	1.2699677984030717e+18
14613.0	1.2697316649598973e+18
14614.0	1.2694883030532093e+18
14615.0	1.2692423876542461e+18
14616.0	1.2690154657415165e+18
14617.0	1.2687737178030077e+18
14618.0	1.268499006829363e+18
14619.0	1.2681298929778678e+18
14620.0	1.2670771050577923e+18
14621.0	1.267822104884019e+18
14622.0	1.267581192450867e+18
14623.0	1.2673448845246461e+18
14624.0	1.267058598949683e+18
14625.0	1.266865254118195e+18
14626.0	1.2666238836670461e+18
14627.0	1.2663800914247677e+18
14628.0	1.266152352461619e+18
14629.0	1.2659137661894653e+18
14630.0	1.2656653191086077e+18
14631.0	1.2654351449325565e+18
14632.0	1.264100484684186e+18
14633.0	1.264835040693452e+18
14634.0	1.2647023580807165e+18
14635.0	1.263329633684674e+18
14636.0	1.2591822773682186e+18
14637.0	1.264002020881203e+18
14638.0	1.2637432952389627e+18
14639.0	1.2634989275381757e+18
14640.0	1.2632853812609021e+18
14641.0	1.2589611830214618e+18
14642.0	1.262806958814003e+18
14643.0	1.2625690184646653e+18
14644.0	1.2623170699788285e+18
14645.0	1.2620731997224957e+18
14646.0	1.2617951215615997e+18
14647.0	1.261531882009395e+18
