# Flux units: erg / (cm m2 s)
# Wavelength units: Angstrom
wave	flux
14000.0	1.8475669256142843e+18
14001.0	1.8471479347773437e+18
14002.0	1.846954706547507e+18
14003.0	1.8466199725670397e+18
14004.0	1.8462843946926077e+18
14005.0	1.8459484191981563e+18
14006.0	1.845604130593177e+18
14007.0	1.8452662441738237e+18
14008.0	1.8448433912217592e+18
14009.0	1.84459458510848e+18
14010.0	1.8442487949426688e+18
14011.0	1.8432363839094784e+18
14012.0	1.843587343135539e+18
14013.0	1.843263264364953e+18
14014.0	1.842922998936371e+18
14015.0	1.8425923552411643e+18
14016.0	1.8422596294934525e+18
14017.0	1.8419250918064125e+18
14018.0	1.8415902806507515e+18
14019.0	1.8412555550588925e+18
14020.0	1.840920059392819e+18
14021.0	1.840584731498905e+18
14022.0	1.840250527678464e+18
14023.0	1.839904878441267e+18
14024.0	1.839569149571891e+18
14025.0	1.8392479262834683e+18
14026.0	1.8389122292908032e+18
14027.0	1.8385795505192955e+18
14028.0	1.8382382868463613e+18
14029.0	1.8379050930143227e+18
14030.0	1.8372537729679365e+18
14031.0	1.8371973176360955e+18
14032.0	1.8369071808511997e+18
14033.0	1.83653140308951e+18
14034.0	1.8362420514783227e+18
14035.0	1.8359094079389696e+18
14036.0	1.835576178874777e+18
14037.0	1.8352429045121021e+18
14038.0	1.8349096452489208e+18
14039.0	1.8345718058057725e+18
14040.0	1.8342396538388477e+18
14041.0	1.833908573936025e+18
14042.0	1.833565724816179e+18
14043.0	1.8332012498649088e+18
14044.0	1.8328976376201213e+18
14045.0	1.8325741712179197e+18
14046.0	1.8322407609597947e+18
14047.0	1.8319053475020797e+18
14048.0	1.8315798779002877e+18
14049.0	1.8312482510602237e+18
14050.0	1.8309158071697403e+18
14051.0	1.8305747582451707e+18
14052.0	1.8302462100242427e+18
14053.0	1.8299190224355325e+18
14054.0	1.8295870885724155e+18
14055.0	1.829255074178662e+18
14056.0	1.828923091661619e+18
14057.0	1.8285912551063547e+18
14058.0	1.8282594403614715e+18
14059.0	1.827927697758617e+18
14060.0	1.8275959518003197e+18
14061.0	1.8272568674877437e+18
14062.0	1.8269322669457405e+18
14063.0	1.8265847134945277e+18
14064.0	1.826203964643737e+18
14065.0	1.82592908338135e+18
14066.0	1.8256075161599997e+18
14067.0	1.825276550342246e+18
14068.0	1.8249454318518272e+18
14069.0	1.824613451012505e+18
14070.0	1.8242833357996027e+18
14071.0	1.8239495581204477e+18
14072.0	1.8236219662008315e+18
14073.0	1.823291307406131e+18
14074.0	1.8229607056539645e+18
14075.0	1.8226108788899837e+18
14076.0	1.8222974637178872e+18
14077.0	1.82189600842711e+18
14078.0	1.8216315391049723e+18
14079.0	1.8212978016911355e+18
14080.0	1.820978291356467e+18
14081.0	1.8206483472711675e+18
14082.0	1.8203173478989821e+18
14083.0	1.8199860146601981e+18
14084.0	1.8196534331965437e+18
14085.0	1.8190581691842555e+18
14086.0	1.81898306429911e+18
14087.0	1.818667909329715e+18
14088.0	1.818327078508953e+18
14089.0	1.8180103615807485e+18
14090.0	1.817680425884057e+18
14091.0	1.817351886051737e+18
14092.0	1.8170227674054653e+18
14093.0	1.8166935766171643e+18
14094.0	1.8163643271086077e+18
14095.0	1.8160346397147133e+18
14096.0	1.8156937602400253e+18
14097.0	1.8153579038638077e+18
14098.0	1.8150430945050621e+18
14099.0	1.8147191734403064e+18
14100.0	1.8143777587724288e+18
14101.0	1.8140627480870907e+18
14102.0	1.813733993506406e+18
14103.0	1.8133887435669504e+18
14104.0	1.8130742445867005e+18
14105.0	1.8127492212588536e+18
14106.0	1.8124209867718653e+18
14107.0	1.8120925861904381e+18
14108.0	1.8117518845542397e+18
14109.0	1.8114317433962493e+18
14110.0	1.8111068190539776e+18
14111.0	1.8107723719639037e+18
14112.0	1.8104433908908024e+18
14113.0	1.8101245835214843e+18
14114.0	1.809781952505446e+18
14115.0	1.809465504012697e+18
14116.0	1.809114786378547e+18
14117.0	1.8082255721201661e+18
14118.0	1.808477158218137e+18
14119.0	1.808144081826611e+18
14120.0	1.80782487348183e+18
14121.0	1.8074918625214461e+18
14122.0	1.807170590579097e+18
14123.0	1.8068439952261115e+18
14124.0	1.8065053286662141e+18
14125.0	1.805701418162585e+18
14126.0	1.8058606809186304e+18
14127.0	1.805542606713651e+18
14128.0	1.8052159459295227e+18
14129.0	1.8048780964200443e+18
14130.0	1.8045405639999485e+18
14131.0	1.8042365272915965e+18
14132.0	1.8038921648668664e+18
14133.0	1.8030051450683384e+18
14134.0	1.8032451884417021e+18
14135.0	1.802918029374259e+18
14136.0	1.802603800507187e+18
14137.0	1.802279550608998e+18
14138.0	1.801951527514931e+18
14139.0	1.801629462010265e+18
14140.0	1.8013020730949627e+18
14141.0	1.8009683021266941e+18
14142.0	1.8006218509385725e+18
14143.0	1.8003250284331005e+18
14144.0	1.8000027028815872e+18
14145.0	1.7996757552070653e+18
14146.0	1.799351045613158e+18
14147.0	1.799026611165593e+18
14148.0	1.7987020139790333e+18
14149.0	1.7983776567066621e+18
14150.0	1.7980525763362816e+18
14151.0	1.7977251974873085e+18
14152.0	1.7974030212530176e+18
14153.0	1.7970781254320123e+18
14154.0	1.7967251713949693e+18
14155.0	1.7964184083890176e+18
14156.0	1.796102830633779e+18
14157.0	1.7957793877196797e+18
14158.0	1.795451002237747e+18
14159.0	1.7951302386450427e+18
14160.0	1.7947920150036477e+18
14161.0	1.7944209147297787e+18
14162.0	1.7940447779356664e+18
14163.0	1.793827127112499e+18
14164.0	1.7934835565723648e+18
14165.0	1.7931603351175165e+18
14166.0	1.7928597343830008e+18
14167.0	1.7925225542844413e+18
14168.0	1.7922117160927227e+18
14169.0	1.7918916755980288e+18
14170.0	1.7915650617901056e+18
14171.0	1.7912413353410555e+18
14172.0	1.7909208770936827e+18
14173.0	1.7905741708918781e+18
14174.0	1.7902670119436285e+18
14175.0	1.7899514308329464e+18
14176.0	1.7896285885431805e+18
14177.0	1.7893056472678397e+18
14178.0	1.7889821338894333e+18
14179.0	1.7886548808695803e+18
14180.0	1.788336937526886e+18
14181.0	1.7880141875118077e+18
14182.0	1.7876906154131453e+18
14183.0	1.7873686136619003e+18
14184.0	1.78704037749719e+18
14185.0	1.7867206104711163e+18
14186.0	1.786281027279257e+18
14187.0	1.7860441766100984e+18
14188.0	1.7857514443898877e+18
14189.0	1.7854333953507325e+18
14190.0	1.7851112476377085e+18
14191.0	1.7847887257927675e+18
14192.0	1.7844586843996155e+18
14193.0	1.7841300992688123e+18
14194.0	1.7838228614676477e+18
14195.0	1.7835030357213181e+18
14196.0	1.7831812201971712e+18
14197.0	1.7828595657342976e+18
14198.0	1.7825325492731896e+18
14199.0	1.782211047482982e+18
14200.0	1.7818322162679805e+18
14201.0	1.781565574296371e+18
14202.0	1.7812500670054397e+18
14203.0	1.7809253825773565e+18
14204.0	1.7806066523832315e+18
14205.0	1.780283830226124e+18
14206.0	1.779833335132979e+18
14207.0	1.7796415715540987e+18
14208.0	1.7793237540405243e+18
14209.0	1.7788615920713728e+18
14210.0	1.7785758744051707e+18
14211.0	1.7783543715332093e+18
14212.0	1.778042597172838e+18
14213.0	1.7777235113017344e+18
14214.0	1.777402051454566e+18
14215.0	1.7770688542670848e+18
14216.0	1.7767630341406715e+18
14217.0	1.77644296512471e+18
14218.0	1.7761094357483517e+18
14219.0	1.7758026643537917e+18
14220.0	1.7754827882758141e+18
14221.0	1.7751623484833787e+18
14222.0	1.7748324027203581e+18
14223.0	1.7745225006972925e+18
14224.0	1.7742014468587517e+18
14225.0	1.7736786000216061e+18
14226.0	1.7735547741011963e+18
14227.0	1.7732415334121472e+18
14228.0	1.7723765538422784e+18
14229.0	1.772491435828838e+18
14230.0	1.7722849301102584e+18
14231.0	1.7719651798614013e+18
14232.0	1.7716309793964032e+18
14233.0	1.7712868065542144e+18
14234.0	1.7709697322713085e+18
14235.0	1.7706478278279165e+18
14236.0	1.770331189752627e+18
14237.0	1.770010011762688e+18
14238.0	1.7696897716191232e+18
14239.0	1.7693519170764795e+18
14240.0	1.7672210948816893e+18
14241.0	1.7687036454502397e+18
14242.0	1.7684052458864637e+18
14243.0	1.7679345678024704e+18
14244.0	1.767778712498995e+18
14245.0	1.7674531942432765e+18
14246.0	1.767135544501862e+18
14247.0	1.7668215438049277e+18
14248.0	1.7664901182914557e+18
14249.0	1.7661858081144824e+18
14250.0	1.7658555603615744e+18
14251.0	1.7655140450303995e+18
14252.0	1.7651958114418688e+18
14253.0	1.7648764890120187e+18
14254.0	1.7645560643190781e+18
14255.0	1.7641996843745275e+18
14256.0	1.7637171062112253e+18
14257.0	1.763560516065689e+18
14258.0	1.7632861414752253e+18
14259.0	1.7629480335966205e+18
14260.0	1.7626407974731776e+18
14261.0	1.7623115680972795e+18
14262.0	1.762036223783731e+18
14263.0	1.7614199815405565e+18
14264.0	1.7612916895252477e+18
14265.0	1.761081175729766e+18
14266.0	1.7607736560713723e+18
14267.0	1.7604577662599163e+18
14268.0	1.7601411248291837e+18
14269.0	1.7598140915908605e+18
14270.0	1.7594873217548285e+18
14271.0	1.7591474422022141e+18
14272.0	1.7588285727571965e+18
14273.0	1.7584981756870653e+18
14274.0	1.7576982598385667e+18
14275.0	1.7578040586403837e+18
14276.0	1.757546328725913e+18
14277.0	1.757237968528998e+18
14278.0	1.7569310343954432e+18
14279.0	1.756613684966195e+18
14280.0	1.7562924029575165e+18
14281.0	1.755983536088678e+18
14282.0	1.7556678308265984e+18
14283.0	1.7553517229113344e+18
14284.0	1.7550355579535352e+18
14285.0	1.7547192034131963e+18
14286.0	1.7544024143429632e+18
14287.0	1.7540851102121981e+18
14288.0	1.7537560804851707e+18
14289.0	1.7522770732646382e+18
14290.0	1.7531255222435837e+18
14291.0	1.7528209671192576e+18
14292.0	1.7525049950994427e+18
14293.0	1.7521628757884923e+18
14294.0	1.7516871964164093e+18
14295.0	1.7514897118068739e+18
14296.0	1.7502647451910147e+18
14297.0	1.7508538502873085e+18
14298.0	1.75037779846103e+18
14299.0	1.7502356367212541e+18
14300.0	1.749933546169958e+18
14301.0	1.749623531739545e+18
14302.0	1.749310562841395e+18
14303.0	1.7489574880083965e+18
14304.0	1.7486635125964797e+18
14305.0	1.7483663209922552e+18
14306.0	1.7480467250937853e+18
14307.0	1.7477318872137723e+18
14308.0	1.7474209718468603e+18
14309.0	1.747102453045657e+18
14310.0	1.7467612497707005e+18
14311.0	1.7464422008094715e+18
14312.0	1.7461285524340733e+18
14313.0	1.7457097897672704e+18
14314.0	1.7455329042235387e+18
14315.0	1.7452188364177403e+18
14316.0	1.744853519250227e+18
14317.0	1.744588355351347e+18
14318.0	1.7442672344039416e+18
14319.0	1.7439260512616443e+18
14320.0	1.7436118056173565e+18
14321.0	1.743294605505331e+18
14322.0	1.7429440623542264e+18
14323.0	1.742646399310233e+18
14324.0	1.742357101386137e+18
14325.0	1.7420330830135293e+18
14326.0	1.7417306099417088e+18
14327.0	1.7414093430325243e+18
14328.0	1.741096395944755e+18
14329.0	1.7407903073828867e+18
14330.0	1.7404770331394043e+18
14331.0	1.7401634418065403e+18
14332.0	1.7398504594866168e+18
14333.0	1.739537290939596e+18
14334.0	1.7392240787718144e+18
14335.0	1.738897397855027e+18
14336.0	1.738576582252953e+18
14337.0	1.738281412303257e+18
14338.0	1.7379689282666493e+18
14339.0	1.7376464684974077e+18
14340.0	1.7373462351839224e+18
14341.0	1.7370330448265213e+18
14342.0	1.7367184250503165e+18
14343.0	1.7364070264995835e+18
14344.0	1.736091396734976e+18
14345.0	1.7357834912006141e+18
14346.0	1.7354452843364344e+18
14347.0	1.7351034720485368e+18
14348.0	1.734802161637785e+18
14349.0	1.7344909174374397e+18
14350.0	1.7341614011711488e+18
14351.0	1.733842758218547e+18
14352.0	1.733542835283558e+18
14353.0	1.7332402447712256e+18
14354.0	1.7329274520338432e+18
14355.0	1.7326122517659643e+18
14356.0	1.732301500815769e+18
14357.0	1.7319948938379261e+18
14358.0	1.7316832369180672e+18
14359.0	1.7313542055133181e+18
14360.0	1.7310580104757248e+18
14361.0	1.7307472477814781e+18
14362.0	1.7304362988601336e+18
14363.0	1.730123776235929e+18
14364.0	1.7297621165015035e+18
14365.0	1.7294838126870523e+18
14366.0	1.7291803128496125e+18
14367.0	1.7288793732153344e+18
14368.0	1.728567845480038e+18
14369.0	1.7282573025673213e+18
14370.0	1.7279462747930621e+18
14371.0	1.727635304061337e+18
14372.0	1.7273181022715904e+18
14373.0	1.7270130371198976e+18
14374.0	1.726702029478297e+18
14375.0	1.7263888340877312e+18
14376.0	1.726080888288051e+18
14377.0	1.7257694041735165e+18
14378.0	1.7254332223193085e+18
14379.0	1.7250945037500416e+18
14380.0	1.724782809920307e+18
14381.0	1.7244595968540672e+18
14382.0	1.7241607057178621e+18
14383.0	1.7238500050993147e+18
14384.0	1.723520668349235e+18
14385.0	1.7232313049939968e+18
14386.0	1.7229002099916797e+18
14387.0	1.7226100899839997e+18
14388.0	1.7222960389554176e+18
14389.0	1.7219891249545213e+18
14390.0	1.7216773623382013e+18
14391.0	1.7213696044433405e+18
14392.0	1.721058766251622e+18
14393.0	1.7207496947007485e+18
14394.0	1.720395084752486e+18
14395.0	1.720117901656064e+18
14396.0	1.719819679930777e+18
14397.0	1.7195097040879616e+18
14398.0	1.7191993725681667e+18
14399.0	1.718889057825587e+18
14400.0	1.7185569662566397e+18
14401.0	1.718258330134118e+18
14402.0	1.7179436449267707e+18
14403.0	1.7171984999776246e+18
14404.0	1.7138995926401e+18
14405.0	1.715001089012527e+18
14406.0	1.7166864509566968e+18
14407.0	1.715839711576064e+18
14408.0	1.716074094316748e+18
14409.0	1.7157654807838715e+18
14410.0	1.7154772415021053e+18
14411.0	1.7151725202833405e+18
14412.0	1.7148613247369213e+18
14413.0	1.714557187365273e+18
14414.0	1.714245820691251e+18
14415.0	1.7139094526099453e+18
14416.0	1.7135874374369277e+18
14417.0	1.7132758576922621e+18
14418.0	1.7129633770110976e+18
14419.0	1.7126582665609213e+18
14420.0	1.7123448329338877e+18
14421.0	1.7120401972789243e+18
14422.0	1.7117221146853376e+18
14423.0	1.7113759235440637e+18
14424.0	1.7088449848803313e+18
14425.0	1.7107554467315707e+18
14426.0	1.7104935174799352e+18
14427.0	1.7101894002409472e+18
14428.0	1.7098564261904381e+18
14429.0	1.7095721815638008e+18
14430.0	1.7092654386905085e+18
14431.0	1.7088666123894781e+18
14432.0	1.7086411383504893e+18
14433.0	1.7079042746351608e+18
14434.0	1.7080100415602685e+18
14435.0	1.7077081556910077e+18
14436.0	1.7074199952621565e+18
14437.0	1.707113205412659e+18
14438.0	1.7067892642152443e+18
14439.0	1.7064903697235965e+18
14440.0	1.7061895978614781e+18
14441.0	1.7058716796846075e+18
14442.0	1.7055560767635453e+18
14443.0	1.7052018258477053e+18
14444.0	1.7049497532104696e+18
14445.0	1.704641240340889e+18
14446.0	1.703070548990362e+18
14447.0	1.7039905762836475e+18
14448.0	1.7037275263139837e+18
14449.0	1.7034234359185403e+18
14450.0	1.703110067722649e+18
14451.0	1.7028057021808635e+18
14452.0	1.7025018600882176e+18
14453.0	1.7021907551387648e+18
14454.0	1.7018884649385981e+18
14455.0	1.7015717480103933e+18
14456.0	1.701244417815347e+18
14457.0	1.7009212752134141e+18
14458.0	1.700616676468326e+18
14459.0	1.7003072559513597e+18
14460.0	1.6999979310645248e+18
14461.0	1.6996676866670587e+18
14462.0	1.6993599438716925e+18
14463.0	1.6990712969035776e+18
14464.0	1.698773184230195e+18
14465.0	1.698440752083763e+18
14466.0	1.698160431647948e+18
14467.0	1.6978323615776765e+18
14468.0	1.6975458067283965e+18
14469.0	1.697216953162137e+18
14470.0	1.696903230966988e+18
14471.0	1.696621430780723e+18
14472.0	1.6963206052315128e+18
14473.0	1.696019405550387e+18
14474.0	1.695716516403609e+18
14475.0	1.695408203182899e+18
14476.0	1.6950783580831744e+18
14477.0	1.6947983144714237e+18
14478.0	1.6944896506068987e+18
14479.0	1.69418393953239e+18
14480.0	1.6938594497200128e+18
14481.0	1.6935752940126205e+18
14482.0	1.6932638266753021e+18
14483.0	1.6929514835673085e+18
14484.0	1.692638340186112e+18
14485.0	1.6922979271180285e+18
14486.0	1.6916953213960187e+18
14487.0	1.6917345817591803e+18
14488.0	1.6914319962800128e+18
14489.0	1.691121538931097e+18
14490.0	1.6908195893084157e+18
14491.0	1.690517443392307e+18
14492.0	1.6902142405115904e+18
14493.0	1.689900660922777e+18
14494.0	1.689577310283366e+18
14495.0	1.6892905826287613e+18
14496.0	1.688837372982067e+18
14497.0	1.6886834101485563e+18
14498.0	1.6883823899836413e+18
14499.0	1.6880775345471488e+18
14500.0	1.6877714778619904e+18
14501.0	1.6874417955012603e+18
14502.0	1.6869027972382715e+18
14503.0	1.6868356816633853e+18
14504.0	1.686543402428006e+18
14505.0	1.6862257711415293e+18
14506.0	1.6858684617392123e+18
14507.0	1.6853066884055037e+18
14508.0	1.6852860155199485e+18
14509.0	1.6849856999981053e+18
14510.0	1.684677000901427e+18
14511.0	1.6843750311460867e+18
14512.0	1.6840541333356536e+18
14513.0	1.683762508411699e+18
14514.0	1.6834218000646147e+18
14515.0	1.6831312287498237e+18
14516.0	1.6798095161425938e+18
14517.0	1.682478153806643e+18
14518.0	1.6822364008349693e+18
14519.0	1.6819378972524541e+18
14520.0	1.6816339008094205e+18
14521.0	1.6813311777570813e+18
14522.0	1.6810264145952763e+18
14523.0	1.6806925664518144e+18
14524.0	1.680390235986329e+18
14525.0	1.6801077328347133e+18
14526.0	1.6798067411910653e+18
14527.0	1.679471287468032e+18
14528.0	1.67904314130432e+18
14529.0	1.678883306445209e+18
14530.0	1.67857253032919e+18
14531.0	1.6782867539427325e+18
14532.0	1.677952281686835e+18
14533.0	1.6776804169678843e+18
14534.0	1.6773792407748603e+18
14535.0	1.6770620272410621e+18
14536.0	1.6767661761363963e+18
14537.0	1.676451121830297e+18
14538.0	1.6761634982723581e+18
14539.0	1.675860037022515e+18
14540.0	1.6755560120582141e+18
14541.0	1.6752245362130941e+18
14542.0	1.6749442174550013e+18
14543.0	1.674612018511872e+18
14544.0	1.674333964677939e+18
14545.0	1.6740104848539643e+18
14546.0	1.670577121551972e+18
14547.0	1.67039539074826e+18
14548.0	1.6730834060967933e+18
14549.0	1.672672587441766e+18
14550.0	1.6725018306150395e+18
14551.0	1.6722148781457405e+18
14552.0	1.6719111937589243e+18
14553.0	1.6715991996170237e+18
14554.0	1.6713066032922621e+18
14555.0	1.6710028736069632e+18
14556.0	1.6706982194970621e+18
14557.0	1.6703922232098808e+18
14558.0	1.670064916502937e+18
14559.0	1.66753533847142e+18
14560.0	1.6694556082831357e+18
14561.0	1.669171086832435e+18
14562.0	1.6688123765325821e+18
14563.0	1.6685324621053947e+18
14564.0	1.668228266013491e+18
14565.0	1.6679307841634304e+18
14566.0	1.6676280191680512e+18
14567.0	1.6673242005635072e+18
14568.0	1.6670133590163453e+18
14569.0	1.666707919732736e+18
14570.0	1.6657926101925888e+18
14571.0	1.6661017723404288e+18
14572.0	1.6657633876377595e+18
14573.0	1.6654462160470013e+18
14574.0	1.665192126788403e+18
14575.0	1.6648966011617277e+18
14576.0	1.6645920225492995e+18
14577.0	1.6642866923175933e+18
14578.0	1.6639903227969533e+18
14579.0	1.6636901347819515e+18
14580.0	1.6633875711131648e+18
14581.0	1.6630813114236925e+18
14582.0	1.6627814019104765e+18
14583.0	1.6624786989907963e+18
14584.0	1.6621632017661947e+18
14585.0	1.6618726791053307e+18
14586.0	1.6615670082961403e+18
14587.0	1.6612673504411648e+18
14588.0	1.6609653974630397e+18
14589.0	1.6606645551366144e+18
14590.0	1.660363550071193e+18
14591.0	1.6600614343540733e+18
14592.0	1.6597473548042237e+18
14593.0	1.6593217872986107e+18
14594.0	1.6591529363636221e+18
14595.0	1.6588481279033341e+18
14596.0	1.6585044516667387e+18
14597.0	1.6581936218636288e+18
14598.0	1.6579475839909885e+18
14599.0	1.6576551520829437e+18
14600.0	1.6573542241927165e+18
14601.0	1.6570534691078141e+18
14602.0	1.6567489274052603e+18
14603.0	1.6564505127419904e+18
14604.0	1.6561019274919933e+18
14605.0	1.655840706238873e+18
14606.0	1.6554525955457021e+18
14607.0	1.6552411036385277e+18
14608.0	1.6549443734077437e+18
14609.0	1.6546445763018747e+18
14610.0	1.6543391202410493e+18
14611.0	1.6540401452187643e+18
14612.0	1.6537454517420032e+18
14613.0	1.6534461277536253e+18
14614.0	1.6531415357194237e+18
14615.0	1.6528446880481277e+18
14616.0	1.6525448691318781e+18
14617.0	1.6522436677730304e+18
14618.0	1.6519393139752957e+18
14619.0	1.651588405080883e+18
14620.0	1.6512148804993021e+18
14621.0	1.6510395334262781e+18
14622.0	1.650736867416473e+18
14623.0	1.650439081898803e+18
14624.0	1.650072566838067e+18
14625.0	1.649832400991027e+18
14626.0	1.6495344913219581e+18
14627.0	1.64919768032215e+18
14628.0	1.6488971265638397e+18
14629.0	1.6485964503318523e+18
14630.0	1.6482946819031037e+18
14631.0	1.6479932540518397e+18
14632.0	1.6475038827937792e+18
14633.0	1.647359170917171e+18
14634.0	1.647089594610483e+18
14635.0	1.6467798385491965e+18
14636.0	1.6464532280967165e+18
14637.0	1.646190188193382e+18
14638.0	1.6458841080201213e+18
14639.0	1.6455733671362557e+18
14640.0	1.6452704092028925e+18
14641.0	1.6442582733160438e+18
14642.0	1.6446666441752576e+18
14643.0	1.644382077426073e+18
14644.0	1.6440687947939837e+18
14645.0	1.6437554282758141e+18
14646.0	1.6434710158770168e+18
14647.0	1.6431687189659643e+18
