# Flux units: erg / (cm m2 s)
# Wavelength units: Angstrom
wave	flux
14000.0	1.741569097360998e+18
14001.0	1.74119198916608e+18
14002.0	1.7410816873594877e+18
14003.0	1.740775280030515e+18
14004.0	1.7404634872152056e+18
14005.0	1.740157952301465e+18
14006.0	1.7398384419667968e+18
14007.0	1.7395275215667195e+18
14008.0	1.7390910371266557e+18
14009.0	1.7389199430778875e+18
14010.0	1.7385960153022461e+18
14011.0	1.7374371039412221e+18
14012.0	1.7379940840243197e+18
14013.0	1.7376873579282432e+18
14014.0	1.7373717885616125e+18
14015.0	1.737067513616793e+18
14016.0	1.7367621766742016e+18
14017.0	1.7364539121074176e+18
14018.0	1.736132999197491e+18
14019.0	1.7358373460639741e+18
14020.0	1.7355282074042365e+18
14021.0	1.735219043578675e+18
14022.0	1.7348956291858427e+18
14023.0	1.7345704447967227e+18
14024.0	1.734262690257305e+18
14025.0	1.7339849736454141e+18
14026.0	1.7336785059184637e+18
14027.0	1.733373130388275e+18
14028.0	1.7330569503309821e+18
14029.0	1.7327485783900157e+18
14030.0	1.7281787214430241e+18
14031.0	1.7320345283330043e+18
14032.0	1.731825066468966e+18
14033.0	1.7314402558541821e+18
14034.0	1.7312116176322552e+18
14035.0	1.730913285177344e+18
14036.0	1.73058958557184e+18
14037.0	1.7302988699729915e+18
14038.0	1.7299939239395325e+18
14039.0	1.7296819969064952e+18
14040.0	1.7293734739705853e+18
14041.0	1.7290708264157181e+18
14042.0	1.7287524619649021e+18
14043.0	1.7284056416780285e+18
14044.0	1.728129794048e+18
14045.0	1.7278351978790907e+18
14046.0	1.7275356373319677e+18
14047.0	1.727210001635737e+18
14048.0	1.7269210342227963e+18
14049.0	1.726622062555955e+18
14050.0	1.7263162206191613e+18
14051.0	1.7259988393132032e+18
14052.0	1.725699626054451e+18
14053.0	1.7253981529047037e+18
14054.0	1.7250925894696957e+18
14055.0	1.7247868129640448e+18
14056.0	1.7244810565910525e+18
14057.0	1.7241754612793344e+18
14058.0	1.7238698089250813e+18
14059.0	1.7235476377239547e+18
14060.0	1.723258688765952e+18
14061.0	1.7229440018808832e+18
14062.0	1.7226478957625344e+18
14063.0	1.7223211158601725e+18
14064.0	1.7211737153470467e+18
14065.0	1.7217201928929277e+18
14066.0	1.721427157005107e+18
14067.0	1.7210939648507904e+18
14068.0	1.72081757028352e+18
14069.0	1.7205034102030333e+18
14070.0	1.720205153245593e+18
14071.0	1.7198991972237307e+18
14072.0	1.7195985629347835e+18
14073.0	1.7192939356684288e+18
14074.0	1.7189892312268797e+18
14075.0	1.7186596310745088e+18
14076.0	1.7183501870694395e+18
14077.0	1.7171203131179016e+18
14078.0	1.717701136980377e+18
14079.0	1.717453850882867e+18
14080.0	1.7171581054746621e+18
14081.0	1.7168587512872957e+18
14082.0	1.7165533573021693e+18
14083.0	1.7162483391266813e+18
14084.0	1.715945290596352e+18
14085.0	1.7149170552930296e+18
14086.0	1.7152575975456765e+18
14087.0	1.7150278688047104e+18
14088.0	1.7147072645955581e+18
14089.0	1.7144076251955195e+18
14090.0	1.7141100225495037e+18
14091.0	1.713822514754355e+18
14092.0	1.713519630640742e+18
14093.0	1.7132163237412861e+18
14094.0	1.7129127886716925e+18
14095.0	1.7126079751782397e+18
14096.0	1.712124517888819e+18
14097.0	1.7119582925881341e+18
14098.0	1.711616433324032e+18
14099.0	1.7113967121924093e+18
14100.0	1.7110783930400765e+18
14101.0	1.7107928901222397e+18
14102.0	1.7104900345298941e+18
14103.0	1.7101661235314685e+18
14104.0	1.7098816373129216e+18
14105.0	1.7095825935040507e+18
14106.0	1.7092802194178048e+18
14107.0	1.7089676548505597e+18
14108.0	1.7086568720236541e+18
14109.0	1.7083659567759357e+18
14110.0	1.708065047340646e+18
14111.0	1.7077555932692475e+18
14112.0	1.707456507517337e+18
14113.0	1.7071514759200773e+18
14114.0	1.706843889152819e+18
14115.0	1.706550633483468e+18
14116.0	1.7061604088610816e+18
14117.0	1.698576046909032e+18
14118.0	1.7056355772792827e+18
14119.0	1.7052327143800832e+18
14120.0	1.704950877283942e+18
14121.0	1.7047156640710656e+18
14122.0	1.704307106984755e+18
14123.0	1.7040767138660352e+18
14124.0	1.7037577873784832e+18
14125.0	1.702929996185599e+18
14126.0	1.7032301338689533e+18
14127.0	1.7029432132763643e+18
14128.0	1.702641258620518e+18
14129.0	1.7023275213258747e+18
14130.0	1.7020156798566395e+18
14131.0	1.701741196214272e+18
14132.0	1.7014318780383227e+18
14133.0	1.700424458226891e+18
14134.0	1.700827636537753e+18
14135.0	1.7005061582356475e+18
14136.0	1.7001402840645627e+18
14137.0	1.6999201988673539e+18
14138.0	1.6995549337092093e+18
14139.0	1.6993353316958205e+18
14140.0	1.6990296021663741e+18
14141.0	1.698682958040268e+18
14142.0	1.6979014316982272e+18
14143.0	1.6981283737436157e+18
14144.0	1.6978365223272443e+18
14145.0	1.6975354535084024e+18
14146.0	1.6972241237442557e+18
14147.0	1.6969305006538747e+18
14148.0	1.696622761213952e+18
14149.0	1.6963284267696128e+18
14150.0	1.6960405918187515e+18
14151.0	1.6957213599858688e+18
14152.0	1.695441933775667e+18
14153.0	1.6951424285933565e+18
14154.0	1.6948114728419325e+18
14155.0	1.694207550108467e+18
14156.0	1.6942032769515515e+18
14157.0	1.693945506771763e+18
14158.0	1.6936407251550205e+18
14159.0	1.693347675845427e+18
14160.0	1.6930408021098493e+18
14161.0	1.6926707588005885e+18
14162.0	1.692311389156147e+18
14163.0	1.6921382650642432e+18
14164.0	1.691630442224025e+18
14165.0	1.6914946105278461e+18
14166.0	1.69125463761879e+18
14167.0	1.6909399742218237e+18
14168.0	1.6906467722395643e+18
14169.0	1.690356422384025e+18
14170.0	1.6900543234441213e+18
14171.0	1.6897616499441661e+18
14172.0	1.6894677282193403e+18
14173.0	1.6891267732471805e+18
14174.0	1.688862713289113e+18
14175.0	1.6885722577371133e+18
14176.0	1.6882748211855352e+18
14177.0	1.6879779835805693e+18
14178.0	1.6876800101580797e+18
14179.0	1.6873746027511803e+18
14180.0	1.6870855011205115e+18
14181.0	1.6867879169294333e+18
14182.0	1.6864892472524795e+18
14183.0	1.686192659628032e+18
14184.0	1.685887837745971e+18
14185.0	1.6855926141091835e+18
14186.0	1.6839971360997379e+18
14187.0	1.684958223951462e+18
14188.0	1.6846999840096253e+18
14189.0	1.6843973129666557e+18
14190.0	1.6841019333017597e+18
14191.0	1.6837992589033467e+18
14192.0	1.6835058052628475e+18
14193.0	1.683000671810355e+18
14194.0	1.6829127457767421e+18
14195.0	1.6826288618602493e+18
14196.0	1.6823322473922557e+18
14197.0	1.6820357788860413e+18
14198.0	1.6817321599303675e+18
14199.0	1.6814395585724413e+18
14200.0	1.6802934532603904e+18
14201.0	1.6808083778961405e+18
14202.0	1.6805486699479035e+18
14203.0	1.6802483242270715e+18
14204.0	1.6799583451480061e+18
14205.0	1.679662296072192e+18
14206.0	1.6792037546262525e+18
14207.0	1.6790732127862784e+18
14208.0	1.678778462266982e+18
14209.0	1.6783044018962424e+18
14210.0	1.678064267925913e+18
14211.0	1.677882354250547e+18
14212.0	1.6775949538295803e+18
14213.0	1.67729536476119e+18
14214.0	1.6770039344529405e+18
14215.0	1.6766872208801787e+18
14216.0	1.676414633063219e+18
14217.0	1.6761197349044221e+18
14218.0	1.675809535924633e+18
14219.0	1.675529181934387e+18
14220.0	1.6752252442116093e+18
14221.0	1.6749319902199805e+18
14222.0	1.6745912734842875e+18
14223.0	1.6743476397867003e+18
14224.0	1.6740506243432443e+18
14225.0	1.6710946449784852e+18
14226.0	1.6734289009836024e+18
14227.0	1.6731197623238653e+18
14228.0	1.6656889957842964e+18
14229.0	1.6712738642329544e+18
14230.0	1.6722428038217725e+18
14231.0	1.671906905502515e+18
14232.0	1.671656824320819e+18
14233.0	1.671358538842112e+18
14234.0	1.6710685329195005e+18
14235.0	1.6707708245770235e+18
14236.0	1.670480018381209e+18
14237.0	1.6701812832731133e+18
14238.0	1.6698879420399608e+18
14239.0	1.669577610520166e+18
14240.0	1.667024879930573e+18
14241.0	1.6689832474443768e+18
14242.0	1.6687051533451267e+18
14243.0	1.6682157938311163e+18
14244.0	1.6681157127045115e+18
14245.0	1.6677791617515515e+18
14246.0	1.6674823526678525e+18
14247.0	1.667201513816064e+18
14248.0	1.6668897277116413e+18
14249.0	1.666614255891251e+18
14250.0	1.6663235738468352e+18
14251.0	1.66603324915712e+18
14252.0	1.665739466683187e+18
14253.0	1.665444565168947e+18
14254.0	1.6651476101234685e+18
14255.0	1.664804539544371e+18
14256.0	1.6618395038384146e+18
14257.0	1.6641249851211768e+18
14258.0	1.6639751008288768e+18
14259.0	1.6636599693475835e+18
14260.0	1.6633014872178688e+18
14261.0	1.6630720134905853e+18
14262.0	1.662820221032857e+18
14263.0	1.658575702825372e+18
14264.0	1.6614441068003318e+18
14265.0	1.6618991736848381e+18
14266.0	1.661619616612352e+18
14267.0	1.6613300015988733e+18
14268.0	1.6610123032035325e+18
14269.0	1.6607028927528957e+18
14270.0	1.6604217569443837e+18
14271.0	1.660127410755993e+18
14272.0	1.6598320143138816e+18
14273.0	1.6595177468592125e+18
14274.0	1.6532890913341468e+18
14275.0	1.6583596710035456e+18
14276.0	1.658642184221491e+18
14277.0	1.6583581543432192e+18
14278.0	1.6580832982466557e+18
14279.0	1.6577909082816507e+18
14280.0	1.6574909870243835e+18
14281.0	1.6572091029520384e+18
14282.0	1.656917813572403e+18
14283.0	1.656626030942617e+18
14284.0	1.6563340855738365e+18
14285.0	1.6560408382930944e+18
14286.0	1.6557417777070077e+18
14287.0	1.655438388599193e+18
14288.0	1.655127406123417e+18
14289.0	1.6533743514681316e+18
14290.0	1.6545435724283896e+18
14291.0	1.6542535933493243e+18
14292.0	1.653960693356953e+18
14293.0	1.653668685912473e+18
14294.0	1.6531955818430461e+18
14295.0	1.6530702409400315e+18
14296.0	1.651616887760487e+18
14297.0	1.6524989146595328e+18
14298.0	1.651374029170278e+18
14299.0	1.6518951227883515e+18
14300.0	1.651622947690905e+18
14301.0	1.651337808838656e+18
14302.0	1.6510461755260928e+18
14303.0	1.6507137802895357e+18
14304.0	1.6504424692187133e+18
14305.0	1.650171153114726e+18
14306.0	1.6498302803509248e+18
14307.0	1.6495475809058813e+18
14308.0	1.6492781790822395e+18
14309.0	1.6489563551694843e+18
14310.0	1.6484811237490688e+18
14311.0	1.6475922366463997e+18
14312.0	1.6478667135778813e+18
14313.0	1.647406286372864e+18
14314.0	1.6473036685311997e+18
14315.0	1.6470517586329597e+18
14316.0	1.6467005427154944e+18
14317.0	1.6463948786171904e+18
14318.0	1.6461954830827515e+18
14319.0	1.6459093560524795e+18
14320.0	1.6456199859863547e+18
14321.0	1.6453278963335165e+18
14322.0	1.6449886610259965e+18
14323.0	1.644728543713689e+18
14324.0	1.6444640592920568e+18
14325.0	1.644162800890675e+18
14326.0	1.64388546847703e+18
14327.0	1.6435876611489787e+18
14328.0	1.643297596506112e+18
14329.0	1.643017462297395e+18
14330.0	1.6427281694064637e+18
14331.0	1.6424339272368125e+18
14332.0	1.6421495752359933e+18
14333.0	1.641860419918233e+18
14334.0	1.6415711672926203e+18
14335.0	1.6412628909817856e+18
14336.0	1.6407190843686912e+18
14337.0	1.64069968487383e+18
14338.0	1.640410735915827e+18
14339.0	1.6401112156340224e+18
14340.0	1.639816183257497e+18
14341.0	1.639493651346227e+18
14342.0	1.639217404418457e+18
14343.0	1.6389307707162621e+18
14344.0	1.6386320171532285e+18
14345.0	1.638351206822707e+18
14346.0	1.638052382795366e+18
14347.0	1.637663179905433e+18
14348.0	1.6374803887816704e+18
14349.0	1.6371994123567096e+18
14350.0	1.6366947469885435e+18
14351.0	1.6363856972480507e+18
14352.0	1.636322945427046e+18
14353.0	1.63604526572503e+18
14354.0	1.6357313086488576e+18
14355.0	1.6353902060371965e+18
14356.0	1.6351201784233981e+18
14357.0	1.6348931222929403e+18
14358.0	1.634607944853094e+18
14359.0	1.6343013496193024e+18
14360.0	1.6340121389367293e+18
14361.0	1.6337358064451581e+18
14362.0	1.6334558936956925e+18
14363.0	1.633166401155891e+18
14364.0	1.6322013756915715e+18
14365.0	1.632460670920294e+18
14366.0	1.6321742251229184e+18
14367.0	1.6320182188244987e+18
14368.0	1.6317302362341376e+18
14369.0	1.6314434649587707e+18
14370.0	1.6311564990676987e+18
14371.0	1.6308699240857597e+18
14372.0	1.6305372151152637e+18
14373.0	1.6302005618212861e+18
14374.0	1.6299185032658941e+18
14375.0	1.629627438700953e+18
14376.0	1.629345633481523e+18
14377.0	1.629057348901273e+18
14378.0	1.628767136618905e+18
14379.0	1.6284835479814141e+18
14380.0	1.6281950973067267e+18
14381.0	1.6278935402708987e+18
14382.0	1.6276197646270461e+18
14383.0	1.627330159679897e+18
14384.0	1.6270241197719547e+18
14385.0	1.6267606939926525e+18
14386.0	1.6264508020359165e+18
14387.0	1.6261863142588408e+18
14388.0	1.6258970113015805e+18
14389.0	1.6256124562964475e+18
14390.0	1.625322968789811e+18
14391.0	1.625039319754342e+18
14392.0	1.624750989875609e+18
14393.0	1.6244660942929915e+18
14394.0	1.6241291624972285e+18
14395.0	1.6238731455365115e+18
14396.0	1.6236046077394941e+18
14397.0	1.6233200309239805e+18
14398.0	1.6230329207488507e+18
14399.0	1.6227450958643197e+18
14400.0	1.6224307361349632e+18
14401.0	1.6221643592433661e+18
14402.0	1.6218832385343485e+18
14403.0	1.6206343677411313e+18
14404.0	1.6159635354419167e+18
14405.0	1.618601865065261e+18
14406.0	1.6207353061834747e+18
14407.0	1.619047714547303e+18
14408.0	1.6201302040117248e+18
14409.0	1.6198304069058552e+18
14410.0	1.6195104637190144e+18
14411.0	1.6192745911615485e+18
14412.0	1.618985727767347e+18
14413.0	1.6187054140424192e+18
14414.0	1.618415921502617e+18
14415.0	1.6181314252177403e+18
14416.0	1.617837122650112e+18
14417.0	1.6175240933539835e+18
14418.0	1.6171901680353277e+18
14419.0	1.6169853735927805e+18
14420.0	1.6166949935382525e+18
14421.0	1.616415055622963e+18
14422.0	1.6161209610928125e+18
14423.0	1.6157910321070075e+18
14424.0	1.6096806660210657e+18
14425.0	1.6152476902227968e+18
14426.0	1.6149862173114363e+18
14427.0	1.6147019475189757e+18
14428.0	1.6143892638334976e+18
14429.0	1.6141277590454267e+18
14430.0	1.6138436536696832e+18
14431.0	1.6123633663475715e+18
14432.0	1.6132698863042557e+18
14433.0	1.6119135104663544e+18
14434.0	1.6126812895576056e+18
14435.0	1.6122717375823867e+18
14436.0	1.612134364060057e+18
14437.0	1.6118526695702525e+18
14438.0	1.6114206696800253e+18
14439.0	1.611265616327475e+18
14440.0	1.610997555003392e+18
14441.0	1.610699279591014e+18
14442.0	1.610404480417792e+18
14443.0	1.6100614081609728e+18
14444.0	1.6098513708384253e+18
14445.0	1.6095720788459515e+18
14446.0	1.6071884542050317e+18
14447.0	1.6089851682095101e+18
14448.0	1.608719900291891e+18
14449.0	1.6084338923798525e+18
14450.0	1.6081183850889213e+18
14451.0	1.607826295436083e+18
14452.0	1.607544936490598e+18
14453.0	1.607244434741657e+18
14454.0	1.6069718418915325e+18
14455.0	1.606677218879078e+18
14456.0	1.6063886054653947e+18
14457.0	1.6061105063329792e+18
14458.0	1.6058232149639163e+18
14459.0	1.6055278839529472e+18
14460.0	1.6052180238729213e+18
14461.0	1.6047721039265792e+18
14462.0	1.6038944340705277e+18
14463.0	1.6043071821053955e+18
14464.0	1.6040961817706496e+18
14465.0	1.6037929386246141e+18
14466.0	1.603550078356684e+18
14467.0	1.6032362722754552e+18
14468.0	1.6029848505942016e+18
14469.0	1.6025836771606523e+18
14470.0	1.6023753125265405e+18
14471.0	1.6021270617391096e+18
14472.0	1.601849595107737e+18
14473.0	1.601571120165683e+18
14474.0	1.6012932005494781e+18
14475.0	1.6010068738703352e+18
14476.0	1.6006553324748797e+18
14477.0	1.6004363377967104e+18
14478.0	1.6001556096745467e+18
14479.0	1.599865657439027e+18
14480.0	1.5995648369229821e+18
14481.0	1.599308972634931e+18
14482.0	1.5990201377619968e+18
14483.0	1.598726491183513e+18
14484.0	1.598443746439987e+18
14485.0	1.5981176091049981e+18
14486.0	1.5974561958854653e+18
14487.0	1.597603130743193e+18
14488.0	1.5972696818974715e+18
14489.0	1.5969274988331003e+18
14490.0	1.5967293716561915e+18
14491.0	1.5964720762716157e+18
14492.0	1.596189828133683e+18
14493.0	1.595885293142016e+18
14494.0	1.5955893313077248e+18
14495.0	1.5953388256624637e+18
14496.0	1.5948622034108408e+18
14497.0	1.5947723228315648e+18
14498.0	1.5944910729379837e+18
14499.0	1.5942002734530557e+18
14500.0	1.593890326131507e+18
14501.0	1.5935697705762813e+18
14502.0	1.5929583316500477e+18
14503.0	1.59300355966894e+18
14504.0	1.5927465528524797e+18
14505.0	1.59244559140782e+18
14506.0	1.592130865935155e+18
14507.0	1.5915492652875776e+18
14508.0	1.5916240463724541e+18
14509.0	1.5913416673722363e+18
14510.0	1.5910533911805947e+18
14511.0	1.5907749212717053e+18
14512.0	1.5904697688784893e+18
14513.0	1.5902083211329533e+18
14514.0	1.5898779509063675e+18
14515.0	1.589637825324646e+18
14516.0	1.585575977444969e+18
14517.0	1.589064695493427e+18
14518.0	1.5887921093541885e+18
14519.0	1.5885034992959485e+18
14520.0	1.5882254689501181e+18
14521.0	1.587943180546867e+18
14522.0	1.5876551392362493e+18
14523.0	1.5872136249868285e+18
14524.0	1.587021656725913e+18
14525.0	1.5868034858090493e+18
14526.0	1.5865218080964605e+18
14527.0	1.586214667603148e+18
14528.0	1.5857512255324157e+18
14529.0	1.5856640091750397e+18
14530.0	1.5853707367284733e+18
14531.0	1.5851107301457912e+18
14532.0	1.5847392456736765e+18
14533.0	1.5845471851380733e+18
14534.0	1.5842662774996987e+18
14535.0	1.5839683191767037e+18
14536.0	1.583694999873126e+18
14537.0	1.5833968788111357e+18
14538.0	1.583134409333145e+18
14539.0	1.5828516964663293e+18
14540.0	1.5825687017422843e+18
14541.0	1.5822547077562365e+18
14542.0	1.5819997561487352e+18
14543.0	1.5816625508843515e+18
14544.0	1.5814346122723325e+18
14545.0	1.5811336592162813e+18
14546.0	1.5731070850826191e+18
14547.0	1.5734215874183107e+18
14548.0	1.5802790177669115e+18
14549.0	1.579843685921587e+18
14550.0	1.579726124613632e+18
14551.0	1.5794565550178301e+18
14552.0	1.5791720989982715e+18
14553.0	1.578877148830105e+18
14554.0	1.5785274244071421e+18
14555.0	1.578079746208563e+18
14556.0	1.5777638983401472e+18
14557.0	1.577480195617587e+18
14558.0	1.5771923740884992e+18
14559.0	1.5741090288107471e+18
14560.0	1.576608803795763e+18
14561.0	1.5763363367747581e+18
14562.0	1.5760079982690301e+18
14563.0	1.5757715972292605e+18
14564.0	1.5753903618392064e+18
14565.0	1.5752165700141053e+18
14566.0	1.5749343218761728e+18
14567.0	1.5746449081892864e+18
14568.0	1.5743096658591741e+18
14569.0	1.574080234074931e+18
14570.0	1.5729899885035515e+18
14571.0	1.5735117431439357e+18
14572.0	1.5731538498945021e+18
14573.0	1.5728704491618304e+18
14574.0	1.5724501866119165e+18
14575.0	1.5723530649862141e+18
14576.0	1.5720619014356992e+18
14577.0	1.5718113303592957e+18
14578.0	1.571527396111155e+18
14579.0	1.5712538721255421e+18
14580.0	1.5709688557469693e+18
14581.0	1.5706722513453053e+18
14582.0	1.5703862434332667e+18
14583.0	1.570121289249587e+18
14584.0	1.569777193582592e+18
14585.0	1.5695544626184192e+18
14586.0	1.5692679027359744e+18
14587.0	1.5689879262330875e+18
14588.0	1.56870606061568e+18
14589.0	1.5684272115417085e+18
14590.0	1.5681485084295165e+18
14591.0	1.5678567744536576e+18
14592.0	1.5675748719263744e+18
14593.0	1.5671380334870523e+18
14594.0	1.567029604017766e+18
14595.0	1.5667380143259643e+18
14596.0	1.5658156533219318e+18
14597.0	1.565393281875967e+18
14598.0	1.565836743960166e+18
14599.0	1.5656291829547005e+18
14600.0	1.5653323721932797e+18
14601.0	1.5650601199206397e+18
14602.0	1.5647360025624576e+18
14603.0	1.5644987257520125e+18
14604.0	1.5641109371813885e+18
14605.0	1.5637972485406715e+18
14606.0	1.5635368376270848e+18
14607.0	1.5633708488851453e+18
14608.0	1.5630908153397248e+18
14609.0	1.5627872416825341e+18
14610.0	1.5623115472109565e+18
14611.0	1.5621994938630141e+18
14612.0	1.5619814051545085e+18
14613.0	1.561709654520627e+18
14614.0	1.561417036385484e+18
14615.0	1.5611437942571003e+18
14616.0	1.5608742213058557e+18
14617.0	1.5605727263457275e+18
14618.0	1.5602674783223803e+18
14619.0	1.5595751983808497e+18
14620.0	1.5580981708718083e+18
14621.0	1.5594383063646203e+18
14622.0	1.5591563820269565e+18
14623.0	1.5588806317047803e+18
14624.0	1.5585152172294141e+18
14625.0	1.5583148301615104e+18
14626.0	1.558026211714662e+18
14627.0	1.5577430274080765e+18
14628.0	1.5574770078711803e+18
14629.0	1.5571950231355395e+18
14630.0	1.5568912296968192e+18
14631.0	1.5566249232695293e+18
14632.0	1.5558557684465664e+18
14633.0	1.555989558355558e+18
14634.0	1.555765367773593e+18
14635.0	1.5550590469799918e+18
14636.0	1.5540378497187835e+18
14637.0	1.5549435157151744e+18
14638.0	1.5546206415486973e+18
14639.0	1.554326968126668e+18
14640.0	1.554088535366041e+18
14641.0	1.5519855633498097e+18
14642.0	1.5535198330421243e+18
14643.0	1.553241017522585e+18
14644.0	1.5529356738691072e+18
14645.0	1.5526376484372477e+18
14646.0	1.5523463708016637e+18
14647.0	1.551985209350553e+18
14648.0	1.551796487480934e+18
