# Flux units: erg / (cm m2 s)
# Wavelength units: Angstrom
wave	flux
14000.0	2.175159400556134e+18
14001.0	2.1745952868007933e+18
14002.0	2.1741032429322237e+18
14003.0	2.1735748361256955e+18
14004.0	2.1730360760991744e+18
14005.0	2.172504414512742e+18
14006.0	2.1719675922546683e+18
14007.0	2.1714335617253373e+18
14008.0	2.170814517687091e+18
14009.0	2.1703835965718525e+18
14010.0	2.1698393369739261e+18
14011.0	2.1688101034262528e+18
14012.0	2.168794146616115e+18
14013.0	2.1682668001296381e+18
14014.0	2.16773071774679e+18
14015.0	2.1672067518693373e+18
14016.0	2.1666797744816128e+18
14017.0	2.1661506798092283e+18
14018.0	2.1656200852537336e+18
14019.0	2.1650955506286587e+18
14020.0	2.164565298328371e+18
14021.0	2.1640381464575995e+18
14022.0	2.1634957021544445e+18
14023.0	2.162929103693414e+18
14024.0	2.1624199202209784e+18
14025.0	2.1619160903581693e+18
14026.0	2.1613886465638392e+18
14027.0	2.1608616658206717e+18
14028.0	2.1603302357598203e+18
14029.0	2.1598034462769147e+18
14030.0	2.1578072830509064e+18
14031.0	2.158732101917081e+18
14032.0	2.158228149580595e+18
14033.0	2.157643409915904e+18
14034.0	2.1571769882116086e+18
14035.0	2.1566495645499387e+18
14036.0	2.1561249661714427e+18
14037.0	2.1555942826967032e+18
14038.0	2.1550774236479483e+18
14039.0	2.1545481964355576e+18
14040.0	2.1540153285672957e+18
14041.0	2.1534942332715003e+18
14042.0	2.1529577750790144e+18
14043.0	2.1524066099789821e+18
14044.0	2.1519095765663736e+18
14045.0	2.151390865312972e+18
14046.0	2.150863970133606e+18
14047.0	2.1503330735882237e+18
14048.0	2.149819007945932e+18
14049.0	2.1492994108555261e+18
14050.0	2.1487761345216512e+18
14051.0	2.1482403725836283e+18
14052.0	2.1477247164612603e+18
14053.0	2.1472050623283195e+18
14054.0	2.1466843998846973e+18
14055.0	2.14615790232535e+18
14056.0	2.145639390720819e+18
14057.0	2.145115089299046e+18
14058.0	2.1445946130825219e+18
14059.0	2.1440715514970112e+18
14060.0	2.143551298417459e+18
14061.0	2.1430235291451392e+18
14062.0	2.1425084115714043e+18
14063.0	2.1419712470581245e+18
14064.0	2.1412685870530557e+18
14065.0	2.1409260466339835e+18
14066.0	2.1404089745145853e+18
14067.0	2.139841243591475e+18
14068.0	2.1393712550510587e+18
14069.0	2.1388461516783608e+18
14070.0	2.13832991506432e+18
14071.0	2.137807747704422e+18
14072.0	2.137288945854054e+18
14073.0	2.1367688219590656e+18
14074.0	2.1362512532340736e+18
14075.0	2.1357122465824765e+18
14076.0	2.1351582712987643e+18
14077.0	2.1343268226727933e+18
14078.0	2.1341440500039677e+18
14079.0	2.133644630871244e+18
14080.0	2.133136875139891e+18
14081.0	2.132618168919654e+18
14082.0	2.1320701243817981e+18
14083.0	2.1315799880826875e+18
14084.0	2.131063628994969e+18
14085.0	2.1300743101218816e+18
14086.0	2.1299983563096061e+18
14087.0	2.1295104480247805e+18
14088.0	2.1289774190952443e+18
14089.0	2.128415580330393e+18
14090.0	2.1279387718516728e+18
14091.0	2.12743008330711e+18
14092.0	2.1269116438446077e+18
14093.0	2.1263963702427645e+18
14094.0	2.1258799155249147e+18
14095.0	2.1253636503896061e+18
14096.0	2.1247687789641725e+18
14097.0	2.1242825299460093e+18
14098.0	2.1237696772964347e+18
14099.0	2.1232987257438205e+18
14100.0	2.1227660290031616e+18
14101.0	2.1222687388991488e+18
14102.0	2.1217505695498237e+18
14103.0	2.1212267060133883e+18
14104.0	2.120720274004377e+18
14105.0	2.120199166964531e+18
14106.0	2.1196935536836605e+18
14107.0	2.11915283407831e+18
14108.0	2.11864658158551e+18
14109.0	2.118145426010931e+18
14110.0	2.1176045486997496e+18
14111.0	2.11705526264791e+18
14112.0	2.116597051713126e+18
14113.0	2.1160623182184445e+18
14114.0	2.115559892608614e+18
14115.0	2.1150617770655744e+18
14116.0	2.1143812898291704e+18
14117.0	2.1117230456504325e+18
14118.0	2.1135150989443067e+18
14119.0	2.1129583520645115e+18
14120.0	2.1124516583309312e+18
14121.0	2.1119516285075453e+18
14122.0	2.1114234599374845e+18
14123.0	2.1108678740410365e+18
14124.0	2.1103457939226621e+18
14125.0	2.1094918319505403e+18
14126.0	2.1093968074768376e+18
14127.0	2.108908770007449e+18
14128.0	2.108396194181939e+18
14129.0	2.107874627446374e+18
14130.0	2.1073506112372733e+18
14131.0	2.1068594464948221e+18
14132.0	2.1063470334083064e+18
14133.0	2.1053327617818604e+18
14134.0	2.1053318558121981e+18
14135.0	2.104798197737062e+18
14136.0	2.104114933871411e+18
14137.0	2.1037987387146235e+18
14138.0	2.1032553783754747e+18
14139.0	2.1027819874156536e+18
14140.0	2.1022200278548475e+18
14141.0	2.1017581594869755e+18
14142.0	2.1010041913999357e+18
14143.0	2.1006432614744061e+18
14144.0	2.1002364676734973e+18
14145.0	2.0997268849033216e+18
14146.0	2.0992148107165693e+18
14147.0	2.0987061020393472e+18
14148.0	2.0981761601175547e+18
14149.0	2.09765899740119e+18
14150.0	2.0971740788162555e+18
14151.0	2.0966306731786237e+18
14152.0	2.0961574969671677e+18
14153.0	2.09565172933591e+18
14154.0	2.0951181232701437e+18
14155.0	2.093911435431117e+18
14156.0	2.0940997009604603e+18
14157.0	2.0936198843269112e+18
14158.0	2.093100683178803e+18
14159.0	2.0926080453967867e+18
14160.0	2.0921013281751035e+18
14161.0	2.0915313440718845e+18
14162.0	2.090987349553971e+18
14163.0	2.090582547208601e+18
14164.0	2.089981600753254e+18
14165.0	2.0890341913657344e+18
14166.0	2.0890591608963067e+18
14167.0	2.08854645253079e+18
14168.0	2.0880326653902845e+18
14169.0	2.0875488306135035e+18
14170.0	2.0870315940773883e+18
14171.0	2.086527683683942e+18
14172.0	2.086036057568051e+18
14173.0	2.0852912850731005e+18
14174.0	2.0850184908963835e+18
14175.0	2.084522449017241e+18
14176.0	2.0840041051848701e+18
14177.0	2.0835098148470781e+18
14178.0	2.083004372693811e+18
14179.0	2.082455296357171e+18
14180.0	2.0820034540535803e+18
14181.0	2.0815000318771192e+18
14182.0	2.0809960795406333e+18
14183.0	2.0804936388313083e+18
14184.0	2.079975296676659e+18
14185.0	2.0794749581524987e+18
14186.0	2.078499703619584e+18
14187.0	2.0784481002586104e+18
14188.0	2.077964226894233e+18
14189.0	2.077456620480102e+18
14190.0	2.07696027493335e+18
14191.0	2.0764566363308027e+18
14192.0	2.0759509106425853e+18
14193.0	2.0753805591183355e+18
14194.0	2.074952181429043e+18
14195.0	2.0744563475873787e+18
14196.0	2.0739548749234168e+18
14197.0	2.0734522496647163e+18
14198.0	2.0729482486743037e+18
14199.0	2.0724375216979968e+18
14200.0	2.0716839982071805e+18
14201.0	2.0714471810924544e+18
14202.0	2.0709486897397755e+18
14203.0	2.070392526707097e+18
14204.0	2.0699427211575293e+18
14205.0	2.0694476825559035e+18
14206.0	2.068831760757555e+18
14207.0	2.0684510437834747e+18
14208.0	2.067951597807206e+18
14209.0	2.067315786619289e+18
14210.0	2.0668747521982456e+18
14211.0	2.0664471160619005e+18
14212.0	2.0659545403555837e+18
14213.0	2.0654443015962621e+18
14214.0	2.064957490541363e+18
14215.0	2.06444431409152e+18
14216.0	2.0639598384250875e+18
14217.0	2.0634631690780667e+18
14218.0	2.062953116545843e+18
14219.0	2.0624646193807355e+18
14220.0	2.061968074185113e+18
14221.0	2.061461219390259e+18
14222.0	2.0608874218258427e+18
14223.0	2.0604717813989373e+18
14224.0	2.0599736339791864e+18
14225.0	2.0587529908518915e+18
14226.0	2.058975502034534e+18
14227.0	2.0584781834092544e+18
14228.0	2.056396699651277e+18
14229.0	2.0572936716943342e+18
14230.0	2.0569892725981184e+18
14231.0	2.05641485427671e+18
14232.0	2.0559981434634235e+18
14233.0	2.055493629090201e+18
14234.0	2.0550065613438973e+18
14235.0	2.0545083770142717e+18
14236.0	2.0540116539801597e+18
14237.0	2.0535166237671424e+18
14238.0	2.0530230414278653e+18
14239.0	2.0525171345457152e+18
14240.0	2.0508083214090243e+18
14241.0	2.051534992965632e+18
14242.0	2.0510447341928445e+18
14243.0	2.0504055272964093e+18
14244.0	2.050058014110515e+18
14245.0	2.0495437723074552e+18
14246.0	2.0490349227016187e+18
14247.0	2.048569557961932e+18
14248.0	2.0480697093324797e+18
14249.0	2.0475838294130683e+18
14250.0	2.04709318140887e+18
14251.0	2.0466006929440763e+18
14252.0	2.0461086725636093e+18
14253.0	2.045615658971955e+18
14254.0	2.045121031412121e+18
14255.0	2.044604007946649e+18
14256.0	2.043572120243405e+18
14257.0	2.04363670749184e+18
14258.0	2.0431536897654784e+18
14259.0	2.0426314334863355e+18
14260.0	2.042151113536307e+18
14261.0	2.0416532194525176e+18
14262.0	2.0411879872528381e+18
14263.0	2.039858048951911e+18
14264.0	2.0400845061357565e+18
14265.0	2.039688459819417e+18
14266.0	2.0392211958988792e+18
14267.0	2.038730133497446e+18
14268.0	2.0382382238466045e+18
14269.0	2.0377407374491645e+18
14270.0	2.037260080277094e+18
14271.0	2.036759134417715e+18
14272.0	2.0362771954663421e+18
14273.0	2.035778932283801e+18
14274.0	2.0340716391628808e+18
14275.0	2.0346899131269115e+18
14276.0	2.034251207383449e+18
14277.0	2.0337885068656637e+18
14278.0	2.033329410093875e+18
14279.0	2.0328363042275325e+18
14280.0	2.032340369722572e+18
14281.0	2.031858905566412e+18
14282.0	2.0313703429701624e+18
14283.0	2.0308816411230208e+18
14284.0	2.0303930516832253e+18
14285.0	2.0299043800350715e+18
14286.0	2.0294118261391355e+18
14287.0	2.0289259076321275e+18
14288.0	2.028438606682521e+18
14289.0	2.0271678651105252e+18
14290.0	2.0274502810206208e+18
14291.0	2.0269731420307453e+18
14292.0	2.0264852807221243e+18
14293.0	2.0259984059138043e+18
14294.0	2.0253794273067005e+18
14295.0	2.025007805261414e+18
14296.0	2.0239018377609216e+18
14297.0	2.0240528226385915e+18
14298.0	2.0232071637106688e+18
14299.0	2.023052828422963e+18
14300.0	2.0225835260706808e+18
14301.0	2.0220919905517563e+18
14302.0	2.0216170393108475e+18
14303.0	2.0210958198636544e+18
14304.0	2.0206336226623483e+18
14305.0	2.020155574347366e+18
14306.0	2.0195424946094075e+18
14307.0	2.0191544342478843e+18
14308.0	2.0186992046243835e+18
14309.0	2.0182017316487163e+18
14310.0	2.0171377726193654e+18
14311.0	2.0168245403189243e+18
14312.0	2.0166585868091387e+18
14313.0	2.0162157354156027e+18
14314.0	2.0157816484397053e+18
14315.0	2.015308344721408e+18
14316.0	2.0147807599984637e+18
14317.0	2.0142164616937472e+18
14318.0	2.013862704028057e+18
14319.0	2.0133801157984253e+18
14320.0	2.0128969403662333e+18
14321.0	2.0124103373488125e+18
14322.0	2.0118856869609464e+18
14323.0	2.0114346700963835e+18
14324.0	2.0109583448014843e+18
14325.0	2.0104715656232955e+18
14326.0	2.0099997768876027e+18
14327.0	2.009508165871206e+18
14328.0	2.009021537687961e+18
14329.0	2.008542539782553e+18
14330.0	2.0080593442177021e+18
14331.0	2.0075668423311355e+18
14332.0	2.0070946123546621e+18
14333.0	2.0066142588502016e+18
14334.0	2.0061332342571e+18
14335.0	2.0056257939374077e+18
14336.0	2.0050715166638075e+18
14337.0	2.004685367227187e+18
14338.0	2.004204471818649e+18
14339.0	2.0037102301347835e+18
14340.0	2.0032463451455488e+18
14341.0	2.0027566651867133e+18
14342.0	2.002280779454873e+18
14343.0	2.0017788840050688e+18
14344.0	2.00130673288151e+18
14345.0	2.0008438427811837e+18
14346.0	2.0003619692609533e+18
14347.0	1.999843338538188e+18
14348.0	1.9994012622520315e+18
14349.0	1.9989268663369725e+18
14350.0	1.998388165030707e+18
14351.0	1.9979010234646525e+18
14352.0	1.997480323029401e+18
14353.0	1.9970084202086392e+18
14354.0	1.9965231140700155e+18
14355.0	1.996034861852262e+18
14356.0	1.9955625161129984e+18
14357.0	1.9950956414238717e+18
14358.0	1.9946173565501437e+18
14359.0	1.994122270972313e+18
14360.0	1.9936546262089725e+18
14361.0	1.9931795961151483e+18
14362.0	1.9927030342615035e+18
14363.0	1.9922249557475328e+18
14364.0	1.991523763748864e+18
14365.0	1.9912437151039483e+18
14366.0	1.990759044821811e+18
14367.0	1.990314913326694e+18
14368.0	1.9898376753512443e+18
14369.0	1.9893626888781821e+18
14370.0	1.9888859659632637e+18
14371.0	1.9884097413316603e+18
14372.0	1.987925079438131e+18
14373.0	1.9874562082603003e+18
14374.0	1.9869781666562043e+18
14375.0	1.9865026500231165e+18
14376.0	1.9860274471239675e+18
14377.0	1.985552655266611e+18
14378.0	1.9850750179934205e+18
14379.0	1.984602053174886e+18
14380.0	1.9841263687696381e+18
14381.0	1.9836386534227965e+18
14382.0	1.983173733279334e+18
14383.0	1.982662392256921e+18
14384.0	1.9822014751571965e+18
14385.0	1.9817517635600381e+18
14386.0	1.9812584244903933e+18
14387.0	1.9808008661893115e+18
14388.0	1.9803235627827192e+18
14389.0	1.9798534031147005e+18
14390.0	1.9793779452018683e+18
14391.0	1.978900656894771e+18
14392.0	1.9784066853240827e+18
14393.0	1.977948585118924e+18
14394.0	1.977437083035238e+18
14395.0	1.9768669949132797e+18
14396.0	1.976521818793574e+18
14397.0	1.9760551018102784e+18
14398.0	1.975565393330176e+18
14399.0	1.9751025619501048e+18
14400.0	1.9745420083199997e+18
14401.0	1.9741562095271933e+18
14402.0	1.9736865900855296e+18
14403.0	1.965855829550681e+18
14404.0	1.954145933407024e+18
14405.0	1.9711716602413005e+18
14406.0	1.9718001834065917e+18
14407.0	1.959935876477753e+18
14408.0	1.9707844118970363e+18
14409.0	1.9703681473576955e+18
14410.0	1.969895199316377e+18
14411.0	1.9694384295444475e+18
14412.0	1.9689681004265472e+18
14413.0	1.9685007777857533e+18
14414.0	1.9680288497991677e+18
14415.0	1.9675591867367421e+18
14416.0	1.9670730736140283e+18
14417.0	1.9665470290395133e+18
14418.0	1.9660673650786301e+18
14419.0	1.96567645594583e+18
14420.0	1.965201605368217e+18
14421.0	1.9647365694619643e+18
14422.0	1.9642612575109115e+18
14423.0	1.963784469164851e+18
14424.0	1.9223182728756995e+18
14425.0	1.9628508019949565e+18
14426.0	1.9623877458001917e+18
14427.0	1.961919752070758e+18
14428.0	1.9614148904091645e+18
14429.0	1.9609795132653563e+18
14430.0	1.9605131704139773e+18
14431.0	1.959709791748096e+18
14432.0	1.959533464885657e+18
14433.0	1.9505215782780872e+18
14434.0	1.9586239904612347e+18
14435.0	1.9581097755017208e+18
14436.0	1.957702315645337e+18
14437.0	1.9572344276123643e+18
14438.0	1.9564730809057275e+18
14439.0	1.9562316097912827e+18
14440.0	1.955830162889113e+18
14441.0	1.9553577601073147e+18
14442.0	1.9548871390658555e+18
14443.0	1.954385309047193e+18
14444.0	1.9539572618690555e+18
14445.0	1.9534934725099515e+18
14446.0	1.9440347717304358e+18
14447.0	1.9525457728765947e+18
14448.0	1.9520942040416253e+18
14449.0	1.951627721939353e+18
14450.0	1.9511547906752507e+18
14451.0	1.950690749657907e+18
14452.0	1.9502213197987837e+18
14453.0	1.9495722848092155e+18
14454.0	1.949292658950143e+18
14455.0	1.9488214960046077e+18
14456.0	1.9483212061343741e+18
14457.0	1.9478311704985592e+18
14458.0	1.9473644199608317e+18
14459.0	1.946922234622771e+18
14460.0	1.946491893999206e+18
14461.0	1.9459666312429565e+18
14462.0	1.9451956527366144e+18
14463.0	1.9450800946282496e+18
14464.0	1.9446351527936e+18
14465.0	1.9441588526645243e+18
14466.0	1.9437053578051581e+18
14467.0	1.9431104394035192e+18
14468.0	1.9427683670687741e+18
14469.0	1.942284077629439e+18
14470.0	1.9418170116800507e+18
14471.0	1.94136203371479e+18
14472.0	1.9409053948051448e+18
14473.0	1.9404534317056e+18
14474.0	1.9399920230334461e+18
14475.0	1.9395194306691064e+18
14476.0	1.9384909940391936e+18
14477.0	1.9386005492596733e+18
14478.0	1.9381343775358973e+18
14479.0	1.9376662042902525e+18
14480.0	1.937197195539251e+18
14481.0	1.9367519936577533e+18
14482.0	1.9362860450709504e+18
14483.0	1.9358148452155387e+18
14484.0	1.9353599461031933e+18
14485.0	1.9348594129633275e+18
14486.0	1.9341580968132605e+18
14487.0	1.9339748728373243e+18
14488.0	1.9334050648948733e+18
14489.0	1.9330177897070587e+18
14490.0	1.932574648067686e+18
14491.0	1.932130097142169e+18
14492.0	1.9316670526914555e+18
14493.0	1.9311898600144896e+18
14494.0	1.93072386277376e+18
14495.0	1.9302863482126328e+18
14496.0	1.9296966693355517e+18
14497.0	1.9293630577508347e+18
14498.0	1.928900785052057e+18
14499.0	1.9284439347494912e+18
14500.0	1.9279833380945917e+18
14501.0	1.9272409630638075e+18
14502.0	1.926556008054784e+18
14503.0	1.926555405752729e+18
14504.0	1.9261360105848832e+18
14505.0	1.9254180296261622e+18
14506.0	1.9246105841631227e+18
14507.0	1.9245324795117568e+18
14508.0	1.9243030796042237e+18
14509.0	1.923842917479219e+18
14510.0	1.923382290625331e+18
14511.0	1.9229253983797245e+18
14512.0	1.9224485446025208e+18
14513.0	1.9220069313675261e+18
14514.0	1.9214631734083581e+18
14515.0	1.9210820638474237e+18
14516.0	1.9187446470148106e+18
14517.0	1.9201711667150845e+18
14518.0	1.919712189061529e+18
14519.0	1.9192525973618688e+18
14520.0	1.918795272264089e+18
14521.0	1.9183321103728637e+18
14522.0	1.9178701010763773e+18
14523.0	1.9167602362286075e+18
14524.0	1.916299161423052e+18
14525.0	1.9164996206329856e+18
14526.0	1.9160433961205752e+18
14527.0	1.915533675777228e+18
14528.0	1.914960584533606e+18
14529.0	1.9146641378377725e+18
14530.0	1.914197368845107e+18
14531.0	1.9137571212754936e+18
14532.0	1.912300335477555e+18
14533.0	1.9128442997964792e+18
14534.0	1.912388766505369e+18
14535.0	1.9119190715662333e+18
14536.0	1.911470222317977e+18
14537.0	1.9110028963217403e+18
14538.0	1.9105589292433403e+18
14539.0	1.9101039747661821e+18
14540.0	1.9096488290287608e+18
14541.0	1.9091677759143933e+18
14542.0	1.9087326504288256e+18
14543.0	1.9078729321938936e+18
14544.0	1.9078217985949696e+18
14545.0	1.9073539910926333e+18
14546.0	1.869976768085997e+18
14547.0	1.8733205142109972e+18
14548.0	1.9059862587572221e+18
14549.0	1.905430055459225e+18
14550.0	1.9050803780124672e+18
14551.0	1.9046345167863805e+18
14552.0	1.9041686806069243e+18
14553.0	1.9037074548064253e+18
14554.0	1.903268030998118e+18
14555.0	1.902811278003404e+18
14556.0	1.9023413246951421e+18
14557.0	1.9019033974145021e+18
14558.0	1.9014472853094397e+18
14559.0	1.899424033590472e+18
14560.0	1.9003655491420152e+18
14561.0	1.9000692215644155e+18
14562.0	1.8995884519849981e+18
14563.0	1.8991649396883453e+18
14564.0	1.8986713741262843e+18
14565.0	1.89825926865879e+18
14566.0	1.8978050993553403e+18
14567.0	1.8973475242770432e+18
14568.0	1.8967651921428475e+18
14569.0	1.8964398315929597e+18
14570.0	1.895525575661977e+18
14571.0	1.895530669224755e+18
14572.0	1.8949964474351616e+18
14573.0	1.8945699303391232e+18
14574.0	1.8940625202184187e+18
14575.0	1.8937075562708987e+18
14576.0	1.8932555042521088e+18
14577.0	1.892803225740902e+18
14578.0	1.8923559518732288e+18
14579.0	1.8919041548681213e+18
14580.0	1.891452539056947e+18
14581.0	1.8909648606199803e+18
14582.0	1.890542227449446e+18
14583.0	1.8900932959928315e+18
14584.0	1.889621846156902e+18
14585.0	1.8891872457981947e+18
14586.0	1.8887314390384637e+18
14587.0	1.8882687536201725e+18
14588.0	1.8878253854883837e+18
14589.0	1.8873953619542013e+18
14590.0	1.8869621759148024e+18
14591.0	1.8865194671276027e+18
14592.0	1.8860861955244032e+18
14593.0	1.8855475999145981e+18
14594.0	1.8852244791230461e+18
14595.0	1.8847856978821115e+18
14596.0	1.8841514033545213e+18
14597.0	1.883737975842406e+18
14598.0	1.8834789977030653e+18
14599.0	1.8830609396793336e+18
14600.0	1.8826205478256637e+18
14601.0	1.8821903632302075e+18
14602.0	1.881715328103219e+18
14603.0	1.8813135406235645e+18
14604.0	1.8808338347196408e+18
14605.0	1.880404264170291e+18
14606.0	1.879934550776217e+18
14607.0	1.8795916462915581e+18
14608.0	1.8791520630996987e+18
14609.0	1.8786516960542717e+18
14610.0	1.8781937451663355e+18
14611.0	1.8778464819609597e+18
14612.0	1.8774267294384128e+18
14613.0	1.87699758670807e+18
14614.0	1.8765612935282683e+18
14615.0	1.8761033124413435e+18
14616.0	1.8756990989762552e+18
14617.0	1.8752654414970877e+18
14618.0	1.8747688090599421e+18
14619.0	1.874300823719116e+18
14620.0	1.8734562536325117e+18
14621.0	1.873534700539084e+18
14622.0	1.873098462724096e+18
14623.0	1.8726685901848573e+18
14624.0	1.8721788716384253e+18
14625.0	1.8717989096390653e+18
14626.0	1.8713492416626683e+18
14627.0	1.8709000988131325e+18
14628.0	1.8705035793793021e+18
14629.0	1.8700703899844603e+18
14630.0	1.8696335230238715e+18
14631.0	1.8691962097893376e+18
14632.0	1.8649532636069906e+18
14633.0	1.8679234952167404e+18
14634.0	1.8678887160479741e+18
14635.0	1.8668325450022863e+18
14636.0	1.8647034726711283e+18
14637.0	1.8666046768545787e+18
14638.0	1.8661527372431355e+18
14639.0	1.8657225006383104e+18
14640.0	1.8652986561527803e+18
14641.0	1.8508237489831826e+18
14642.0	1.8644309637070845e+18
14643.0	1.8640006734151677e+18
14644.0	1.8635529532735483e+18
14645.0	1.8631082983292923e+18
14646.0	1.8626352949231613e+18
14647.0	1.8622073484083197e+18
14648.0	1.861824587969331e+18
