# Flux units: erg / (cm m2 s)
# Wavelength units: Angstrom
wave	flux
14000.0	2.295845906232115e+18
14001.0	2.2953170917392381e+18
14002.0	2.29479213432832e+18
14003.0	2.2942654119542781e+18
14004.0	2.293738837219737e+18
14005.0	2.2932123748925437e+18
14006.0	2.2926858286792696e+18
14007.0	2.292159718673612e+18
14008.0	2.2916300686753787e+18
14009.0	2.291107990234726e+18
14010.0	2.290582282882252e+18
14011.0	2.2900357818482683e+18
14012.0	2.2895312406315005e+18
14013.0	2.289005949353984e+18
14014.0	2.2884807855833085e+18
14015.0	2.2879556922769405e+18
14016.0	2.2874309160599547e+18
14017.0	2.286906190174617e+18
14018.0	2.2863815699857403e+18
14019.0	2.2858571578343421e+18
14020.0	2.28533283627991e+18
14021.0	2.2848086539763704e+18
14022.0	2.2842846461558781e+18
14023.0	2.2837606047809533e+18
14024.0	2.283200774248857e+18
14025.0	2.2826456497258488e+18
14026.0	2.282121962350182e+18
14027.0	2.2815985752866808e+18
14028.0	2.2810752435879933e+18
14029.0	2.2805520209412093e+18
14030.0	2.2800156600565755e+18
14031.0	2.2795059397132283e+18
14032.0	2.278983319368499e+18
14033.0	2.2784604289105915e+18
14034.0	2.2779381910863864e+18
14035.0	2.2774158861533184e+18
14036.0	2.2768936936275965e+18
14037.0	2.2763716453859328e+18
14038.0	2.2758497330397176e+18
14039.0	2.275327964977561e+18
14040.0	2.274806331133132e+18
14041.0	2.2742848466059261e+18
14042.0	2.2737133122879485e+18
14043.0	2.2731746327920637e+18
14044.0	2.27265391666135e+18
14045.0	2.2721331720093693e+18
14046.0	2.2716122126090237e+18
14047.0	2.271091333739315e+18
14048.0	2.2705706914283515e+18
14049.0	2.2700501715910656e+18
14050.0	2.2695297658388477e+18
14051.0	2.2690091956699133e+18
14052.0	2.2684893737648123e+18
14053.0	2.2679694277083133e+18
14054.0	2.2674495839928317e+18
14055.0	2.266929881205964e+18
14056.0	2.2664103378026493e+18
14057.0	2.2658909084844027e+18
14058.0	2.2653716368719867e+18
14059.0	2.264852494444134e+18
14060.0	2.2643335030112256e+18
14061.0	2.263805936743219e+18
14062.0	2.263230610774425e+18
14063.0	2.2627112485650427e+18
14064.0	2.2621913276743675e+18
14065.0	2.2616744870805496e+18
14066.0	2.2611564418826237e+18
14067.0	2.260638262466969e+18
14068.0	2.2601201971363832e+18
14069.0	2.259602232469094e+18
14070.0	2.2590844892610555e+18
14071.0	2.2585667544416256e+18
14072.0	2.2580493501333501e+18
14073.0	2.257531999512166e+18
14074.0	2.257014754587443e+18
14075.0	2.256497642202726e+18
14076.0	2.2559806975901693e+18
14077.0	2.255461098822041e+18
14078.0	2.2549469526491133e+18
14079.0	2.2544303972679677e+18
14080.0	2.2539142495731704e+18
14081.0	2.2533979827601403e+18
14082.0	2.2528813904691195e+18
14083.0	2.252365804811059e+18
14084.0	2.2517821674094587e+18
14085.0	2.2512054069886973e+18
14086.0	2.2506991813394435e+18
14087.0	2.2501838792163323e+18
14088.0	2.2496683858329592e+18
14089.0	2.2491530954539008e+18
14090.0	2.248637880572313e+18
14091.0	2.2481228938608632e+18
14092.0	2.247607991035494e+18
14093.0	2.2470932274610173e+18
14094.0	2.2465785813270523e+18
14095.0	2.2460640828325883e+18
14096.0	2.2455490323677181e+18
14097.0	2.245035444876083e+18
14098.0	2.2445210487226365e+18
14099.0	2.24400745955328e+18
14100.0	2.2434932462714877e+18
14101.0	2.2429799658029053e+18
14102.0	2.2424664118657021e+18
14103.0	2.2419525559386104e+18
14104.0	2.2414397435543547e+18
14105.0	2.240926548649574e+18
14106.0	2.24041360204759e+18
14107.0	2.2399005497491453e+18
14108.0	2.2393879806345213e+18
14109.0	2.238831913231974e+18
14110.0	2.238299530225254e+18
14111.0	2.2377864779268093e+18
14112.0	2.2372751620702203e+18
14113.0	2.2367630107082752e+18
14114.0	2.2362509180665848e+18
14115.0	2.235738889178316e+18
14116.0	2.2352255650889723e+18
14117.0	2.2346921536389117e+18
14118.0	2.2342038829662203e+18
14119.0	2.2336920906366973e+18
14120.0	2.2331808267894776e+18
14121.0	2.2326697273589755e+18
14122.0	2.2321586581274621e+18
14123.0	2.2316474731331584e+18
14124.0	2.2311367075692544e+18
14125.0	2.2306091882774528e+18
14126.0	2.230116278704537e+18
14127.0	2.2296059426373627e+18
14128.0	2.2290956736790528e+18
14129.0	2.2285856429572086e+18
14130.0	2.228075701154611e+18
14131.0	2.227565885181132e+18
14132.0	2.227056181615001e+18
14133.0	2.2265260769542136e+18
14134.0	2.226037209012633e+18
14135.0	2.2255273359966205e+18
14136.0	2.2249861332074493e+18
14137.0	2.2244011905384445e+18
14138.0	2.2238919382794237e+18
14139.0	2.2233833420095483e+18
14140.0	2.2228737021968384e+18
14141.0	2.2223657971482621e+18
14142.0	2.221855160768921e+18
14143.0	2.221348290874572e+18
14144.0	2.2208409294077947e+18
14145.0	2.220332833098956e+18
14146.0	2.2198247938326523e+18
14147.0	2.219316982736486e+18
14148.0	2.2188092890808317e+18
14149.0	2.2183017447423992e+18
14150.0	2.2177942993895421e+18
14151.0	2.2172869043683323e+18
14152.0	2.216779806303846e+18
14153.0	2.2162727501823992e+18
14154.0	2.2157658249232381e+18
14155.0	2.2152574635343867e+18
14156.0	2.2147521908310016e+18
14157.0	2.2142458326417405e+18
14158.0	2.2137392664150016e+18
14159.0	2.213233149817651e+18
14160.0	2.2127268335714301e+18
14161.0	2.212218634921574e+18
14162.0	2.211711020118835e+18
14163.0	2.2112092689530877e+18
14164.0	2.2107028755316733e+18
14165.0	2.2101889726283773e+18
14166.0	2.2096926623137787e+18
14167.0	2.2091876093919227e+18
14168.0	2.208642180422041e+18
14169.0	2.2081174377594877e+18
14170.0	2.207612270752563e+18
14171.0	2.207107454389452e+18
14172.0	2.2066028024430587e+18
14173.0	2.2060937129230333e+18
14174.0	2.205593500227993e+18
14175.0	2.2050893264322555e+18
14176.0	2.2045850905608187e+18
14177.0	2.204080972129894e+18
14178.0	2.203576863765299e+18
14179.0	2.2030722285961216e+18
14180.0	2.202569415432601e+18
14181.0	2.2020658238062587e+18
14182.0	2.2015623194214395e+18
14183.0	2.2010590029414395e+18
14184.0	2.2005555639877624e+18
14185.0	2.200052658549555e+18
14186.0	2.19954526856151e+18
14187.0	2.199046845995417e+18
14188.0	2.1985441116848123e+18
14189.0	2.1980414310612987e+18
14190.0	2.1975390624940027e+18
14191.0	2.197036719092531e+18
14192.0	2.196534239795609e+18
14193.0	2.196031730299699e+18
14194.0	2.195530467350937e+18
14195.0	2.1950287128297464e+18
14196.0	2.1945270119956477e+18
14197.0	2.1940254286020605e+18
14198.0	2.1935238015877117e+18
14199.0	2.1930224849518587e+18
14200.0	2.192518827894374e+18
14201.0	2.192020314731315e+18
14202.0	2.191519456113459e+18
14203.0	2.1910176076398587e+18
14204.0	2.190491511055974e+18
14205.0	2.1899586767421432e+18
14206.0	2.189453618787123e+18
14207.0	2.1889577128034301e+18
14208.0	2.188457379312435e+18
14209.0	2.1879521233862648e+18
14210.0	2.1874535917682683e+18
14211.0	2.1869570314731517e+18
14212.0	2.186457169421926e+18
14213.0	2.185957418100326e+18
14214.0	2.185457829517721e+18
14215.0	2.1849579473338365e+18
14216.0	2.184458997963161e+18
14217.0	2.1839597466025976e+18
14218.0	2.1834606177157115e+18
14219.0	2.1829616180133883e+18
14220.0	2.1824627458179067e+18
14221.0	2.181963967574835e+18
14222.0	2.18146534368215e+18
14223.0	2.1809668170973176e+18
14224.0	2.1804684113084416e+18
14225.0	2.1799627997052923e+18
14226.0	2.179471928564121e+18
14227.0	2.1789739120066557e+18
14228.0	2.1784599554162683e+18
14229.0	2.1779755082711032e+18
14230.0	2.1774805116125181e+18
14231.0	2.1769829513953277e+18
14232.0	2.1764855203627003e+18
14233.0	2.1759882017374203e+18
14234.0	2.1754910039080955e+18
14235.0	2.1749938496995325e+18
14236.0	2.1744969454714877e+18
14237.0	2.1740000932528125e+18
14238.0	2.1735034054508536e+18
14239.0	2.173006618663321e+18
14240.0	2.1724589281247227e+18
14241.0	2.1720139779014648e+18
14242.0	2.1715177648947195e+18
14243.0	2.1710157335494653e+18
14244.0	2.1705216982253565e+18
14245.0	2.169972913812275e+18
14246.0	2.1694770061508605e+18
14247.0	2.1689812259962877e+18
14248.0	2.1684850784206843e+18
14249.0	2.1679899576107008e+18
14250.0	2.1674945264222205e+18
14251.0	2.1669993200484347e+18
14252.0	2.1665041287741432e+18
14253.0	2.1660090297745405e+18
14254.0	2.1655140247273472e+18
14255.0	2.1650181623644155e+18
14256.0	2.1645167534538747e+18
14257.0	2.1640297377169405e+18
14258.0	2.1635355027439616e+18
14259.0	2.16304115033047e+18
14260.0	2.1625466922205181e+18
14261.0	2.1620533279850493e+18
14262.0	2.1615715903602683e+18
14263.0	2.1610661213634557e+18
14264.0	2.1605817077727227e+18
14265.0	2.1600902662062072e+18
14266.0	2.1595967190990845e+18
14267.0	2.1591032843993083e+18
14268.0	2.158609982239539e+18
14269.0	2.1581166867906555e+18
14270.0	2.1576236983648256e+18
14271.0	2.1571305740435453e+18
14272.0	2.1566378792189947e+18
14273.0	2.1561450988306427e+18
14274.0	2.1556352459472893e+18
14275.0	2.1551584559235067e+18
14276.0	2.1546669388595195e+18
14277.0	2.1541750979952637e+18
14278.0	2.1536832537755643e+18
14279.0	2.153191193129779e+18
14280.0	2.152699006654873e+18
14281.0	2.152207486235443e+18
14282.0	2.151715786299801e+18
14283.0	2.1512241685725176e+18
14284.0	2.1507326682857467e+18
14285.0	2.1502412736954365e+18
14286.0	2.1497499730575357e+18
14287.0	2.14925883515863e+18
14288.0	2.148767764368588e+18
14289.0	2.1482438823772152e+18
14290.0	2.1477857972715517e+18
14291.0	2.1472952482529275e+18
14292.0	2.1468046841348093e+18
14293.0	2.146290202417561e+18
14294.0	2.145736044262195e+18
14295.0	2.1452508773744637e+18
14296.0	2.1447338572644347e+18
14297.0	2.1442703917055992e+18
14298.0	2.1437743800254461e+18
14299.0	2.1432902516473853e+18
14300.0	2.1428005750439936e+18
14301.0	2.1423107709337595e+18
14302.0	2.141821109429862e+18
14303.0	2.1413316626743293e+18
14304.0	2.140841808232448e+18
14305.0	2.1403528312389627e+18
14306.0	2.139861651397017e+18
14307.0	2.1393740367134717e+18
14308.0	2.1388856603443192e+18
14309.0	2.138396587720703e+18
14310.0	2.1378982557515773e+18
14311.0	2.1374173855088637e+18
14312.0	2.1369298614222845e+18
14313.0	2.136440392856371e+18
14314.0	2.1359541622931453e+18
14315.0	2.13546611811287e+18
14316.0	2.134976102609715e+18
14317.0	2.1344891908915195e+18
14318.0	2.134002282528768e+18
14319.0	2.1335145604710392e+18
14320.0	2.133026898811289e+18
14321.0	2.1325393881464827e+18
14322.0	2.132050330622361e+18
14323.0	2.1315639591305208e+18
14324.0	2.1310774383214587e+18
14325.0	2.1305903303098368e+18
14326.0	2.1301033179283448e+18
14327.0	2.129616426342809e+18
14328.0	2.1291293955063803e+18
14329.0	2.12864300220416e+18
14330.0	2.1281564629401595e+18
14331.0	2.1276699236761595e+18
14332.0	2.1271835622506493e+18
14333.0	2.1266973048438784e+18
14334.0	2.1262111447449595e+18
14335.0	2.1256723427753981e+18
14336.0	2.1251809163083773e+18
14337.0	2.1246959272591357e+18
14338.0	2.1242101849128957e+18
14339.0	2.1237246220828667e+18
14340.0	2.123239206892339e+18
14341.0	2.1227537732468733e+18
14342.0	2.1222685644161024e+18
14343.0	2.121782981453414e+18
14344.0	2.12129806286848e+18
14345.0	2.1208133288329208e+18
14346.0	2.120328354883174e+18
14347.0	2.1198431259197437e+18
14348.0	2.1193589975416827e+18
14349.0	2.118830932990361e+18
14350.0	2.1183354799915003e+18
14351.0	2.1178508969508861e+18
14352.0	2.1173670940508157e+18
14353.0	2.116882725758566e+18
14354.0	2.1163983205564416e+18
14355.0	2.1159140126621696e+18
14356.0	2.1154299732033533e+18
14357.0	2.1149461585592315e+18
14358.0	2.1144622583513088e+18
14359.0	2.1139784520957947e+18
14360.0	2.113494681072435e+18
14361.0	2.1130111331860475e+18
14362.0	2.1125276507308027e+18
14363.0	2.112044223640371e+18
14364.0	2.111558744696422e+18
14365.0	2.1110773224833021e+18
14366.0	2.1105942577807352e+18
14367.0	2.1101115672100861e+18
14368.0	2.109628621625753e+18
14369.0	2.1091458102591483e+18
14370.0	2.1086630358024187e+18
14371.0	2.1081803150327803e+18
14372.0	2.1076977721016317e+18
14373.0	2.10721530970112e+18
14374.0	2.106732958030233e+18
14375.0	2.1062507019894781e+18
14376.0	2.105768538223411e+18
14377.0	2.1052864382107645e+18
14378.0	2.10480438181888e+18
14379.0	2.1043226123173883e+18
14380.0	2.1038408310718456e+18
14381.0	2.103359033049088e+18
14382.0	2.102877486684569e+18
14383.0	2.1023954118377467e+18
14384.0	2.1019145315287037e+18
14385.0	2.1014333324525563e+18
14386.0	2.1009521031774203e+18
14387.0	2.1004709577883645e+18
14388.0	2.0999898241433597e+18
14389.0	2.0995089505452027e+18
14390.0	2.0990280282931197e+18
14391.0	2.0985473157562365e+18
14392.0	2.0980664824233981e+18
14393.0	2.0975860500660221e+18
14394.0	2.0971055539552253e+18
14395.0	2.0966249085272061e+18
14396.0	2.0961447982923773e+18
14397.0	2.095664575650201e+18
14398.0	2.0951843060318205e+18
14399.0	2.0947043518251005e+18
14400.0	2.0942236493545467e+18
14401.0	2.09374415987671e+18
14402.0	2.0932644304846845e+18
14403.0	2.0926373937807355e+18
14404.0	2.091907083245977e+18
14405.0	2.091773565127884e+18
14406.0	2.0913455884140544e+18
14407.0	2.0906562360967165e+18
14408.0	2.0903858142183421e+18
14409.0	2.0899066854506493e+18
14410.0	2.0894278955827192e+18
14411.0	2.088948877544652e+18
14412.0	2.0884696699240443e+18
14413.0	2.0879510274572283e+18
14414.0	2.0874599851884544e+18
14415.0	2.086981029226086e+18
14416.0	2.0865021521166333e+18
14417.0	2.0860229847613437e+18
14418.0	2.085543397975654e+18
14419.0	2.085065795934617e+18
14420.0	2.0845870580760573e+18
14421.0	2.0841086758944765e+18
14422.0	2.0836301880164347e+18
14423.0	2.0831512169545725e+18
14424.0	2.081801775140044e+18
14425.0	2.0821946790838267e+18
14426.0	2.08171712905216e+18
14427.0	2.0812391344242683e+18
14428.0	2.08076106933207e+18
14429.0	2.0802832491872253e+18
14430.0	2.0798053988433915e+18
14431.0	2.079324206478131e+18
14432.0	2.078849162962534e+18
14433.0	2.0782151821688827e+18
14434.0	2.0778941987946493e+18
14435.0	2.0774165044789243e+18
14436.0	2.076939912426291e+18
14437.0	2.0764625737875448e+18
14438.0	2.0759805677273083e+18
14439.0	2.0755068009578493e+18
14440.0	2.0750309571690493e+18
14441.0	2.0745537410039803e+18
14442.0	2.074076593625497e+18
14443.0	2.0735982902968317e+18
14444.0	2.073123053843251e+18
14445.0	2.0726464097812475e+18
14446.0	2.0719914557898752e+18
14447.0	2.071692353260748e+18
14448.0	2.071216516182835e+18
14449.0	2.070740001305395e+18
14450.0	2.0702635384373245e+18
14451.0	2.069787151066726e+18
14452.0	2.069310607668019e+18
14453.0	2.0688313732038648e+18
14454.0	2.0683581852483576e+18
14455.0	2.0678817844559872e+18
14456.0	2.0674050179203067e+18
14457.0	2.066928529886412e+18
14458.0	2.0664531978027005e+18
14459.0	2.0659769647824893e+18
14460.0	2.0655011696476155e+18
14461.0	2.0650241933967355e+18
14462.0	2.0645473698185216e+18
14463.0	2.0640731802632187e+18
14464.0	2.063597752549376e+18
14465.0	2.0631213349797883e+18
14466.0	2.0626463703171064e+18
14467.0	2.0621389568409597e+18
14468.0	2.0616151704797181e+18
14469.0	2.0611390364450808e+18
14470.0	2.0606633033859064e+18
14471.0	2.060188412542976e+18
14472.0	2.0597134445248507e+18
14473.0	2.0592382248484861e+18
14474.0	2.0587629061865467e+18
14475.0	2.0582874298187768e+18
14476.0	2.0578022696419325e+18
14477.0	2.0573370894516224e+18
14478.0	2.0568618563534845e+18
14479.0	2.0563867474067448e+18
14480.0	2.055911396868096e+18
14481.0	2.0554366402428925e+18
14482.0	2.054961497741721e+18
14483.0	2.054486242833203e+18
14484.0	2.05401139225559e+18
14485.0	2.0535352565432315e+18
14486.0	2.053050373190451e+18
14487.0	2.0525872280764416e+18
14488.0	2.052112518427443e+18
14489.0	2.0516375017553915e+18
14490.0	2.0511477664317437e+18
14491.0	2.0505715881803773e+18
14492.0	2.0500970312040443e+18
14493.0	2.0496224272515067e+18
14494.0	2.0491478820192248e+18
14495.0	2.0486733921517565e+18
14496.0	2.0481936124280827e+18
14497.0	2.047724454359859e+18
14498.0	2.047250051733913e+18
14499.0	2.0467757380272125e+18
14500.0	2.046301363922534e+18
14501.0	2.0458222401880061e+18
14502.0	2.045340910249574e+18
14503.0	2.0448776577613821e+18
14504.0	2.0444039211909115e+18
14505.0	2.0439250524700667e+18
14506.0	2.043445291201331e+18
14507.0	2.0429718431989755e+18
14508.0	2.0425071193489403e+18
14509.0	2.0420328509407227e+18
14510.0	2.0415585556889597e+18
14511.0	2.0410842705035261e+18
14512.0	2.040609354494771e+18
14513.0	2.0401357471088635e+18
14514.0	2.039659842922086e+18
14515.0	2.0391872572686333e+18
14516.0	2.0386319767175165e+18
14517.0	2.038238824470937e+18
14518.0	2.037764688602726e+18
14519.0	2.0372904789147643e+18
14520.0	2.0368162138619901e+18
14521.0	2.03634196390871e+18
14522.0	2.0358676938227707e+18
14523.0	2.0353824279494653e+18
14524.0	2.0349076394475517e+18
14525.0	2.0344448097452024e+18
14526.0	2.0339708248719355e+18
14527.0	2.0334956454608893e+18
14528.0	2.0330176759988221e+18
14529.0	2.0325477696667643e+18
14530.0	2.0320733989175293e+18
14531.0	2.0315997814652925e+18
14532.0	2.0311102491459581e+18
14533.0	2.0306513503453176e+18
14534.0	2.0301772195102717e+18
14535.0	2.02970305176535e+18
14536.0	2.0292288420773888e+18
14537.0	2.0287541139734525e+18
14538.0	2.02828031197184e+18
14539.0	2.027806050274508e+18
14540.0	2.0273317516673021e+18
14541.0	2.0268572617998333e+18
14542.0	2.0263831242539005e+18
14543.0	2.025901935244083e+18
14544.0	2.025434429731635e+18
14545.0	2.0249600002621435e+18
14546.0	2.0235383073669112e+18
14547.0	2.0231649153253366e+18
14548.0	2.0235365289820155e+18
14549.0	2.0230581082128384e+18
14550.0	2.022588149871411e+18
14551.0	2.022113715368755e+18
14552.0	2.021638982231654e+18
14553.0	2.0211640712560635e+18
14554.0	2.0206895528673277e+18
14555.0	2.0202146637021181e+18
14556.0	2.019739586632089e+18
14557.0	2.0192649642246136e+18
14558.0	2.0187899626520573e+18
14559.0	2.0182549338783736e+18
14560.0	2.0178395098775547e+18
14561.0	2.0173646156791803e+18
14562.0	2.0168895738413053e+18
14563.0	2.0164143541649408e+18
14564.0	2.0159385690963965e+18
14565.0	2.0154633611640827e+18
14566.0	2.0149877270904827e+18
14567.0	2.0145119940313083e+18
14568.0	2.014035757655654e+18
14569.0	2.013560459126374e+18
14570.0	2.0130676938375165e+18
14571.0	2.0126085568004093e+18
14572.0	2.0121310705221627e+18
14573.0	2.0116554549035005e+18
14574.0	2.011179698356224e+18
14575.0	2.0107042622537725e+18
14576.0	2.010228087953817e+18
14577.0	2.0097517911801848e+18
14578.0	2.0092752746250235e+18
14579.0	2.008798794979737e+18
14580.0	2.0083221911830525e+18
14581.0	2.007813505993932e+18
14582.0	2.0073227405492221e+18
14583.0	2.006845881738854e+18
14584.0	2.0063684038492155e+18
14585.0	2.005891764820377e+18
14586.0	2.0054144597360635e+18
14587.0	2.0049371395522555e+18
14588.0	2.0044613830049787e+18
14589.0	2.003996397430374e+18
14590.0	2.0035331684302845e+18
14591.0	2.0030697095823355e+18
14592.0	2.0026060712181755e+18
14593.0	2.0021377184563192e+18
14594.0	2.001678453912371e+18
14595.0	2.001214134393241e+18
14596.0	2.00074771604439e+18
14597.0	2.0002837840789496e+18
14598.0	1.9998210953052155e+18
14599.0	1.9993566046584832e+18
14600.0	1.9988916710932477e+18
14601.0	1.9984266385424384e+18
14602.0	1.9979611395850237e+18
14603.0	1.9974958536982528e+18
14604.0	1.99702854280151e+18
14605.0	1.9965640336998397e+18
14606.0	1.996096195998515e+18
14607.0	1.9956320895500283e+18
14608.0	1.995165919503974e+18
14609.0	1.9946985465315325e+18
14610.0	1.9942322020024317e+18
14611.0	1.9937655135404027e+18
14612.0	1.9932985717424125e+18
14613.0	1.9928311350165501e+18
14614.0	1.9923633191256061e+18
14615.0	1.9918955434999803e+18
14616.0	1.991427452462694e+18
14617.0	1.9909591080894461e+18
14618.0	1.9904904600485883e+18
14619.0	1.9900204983517184e+18
14620.0	1.9894993678237693e+18
14621.0	1.9890091946147837e+18
14622.0	1.988539771466547e+18
14623.0	1.9880700647833597e+18
14624.0	1.9875977962192893e+18
14625.0	1.9871299887169533e+18
14626.0	1.9866593743863803e+18
14627.0	1.986188459743641e+18
14628.0	1.9857183202082808e+18
14629.0	1.9852472109498363e+18
14630.0	1.9847755899863037e+18
14631.0	1.984303661999718e+18
14632.0	1.983763922183782e+18
14633.0	1.9833510617415677e+18
14634.0	1.9828861650862077e+18
14635.0	1.9824114621480955e+18
14636.0	1.981934715745075e+18
14637.0	1.9814662505758715e+18
14638.0	1.9809920744423421e+18
14639.0	1.9805173899591675e+18
14640.0	1.980042891703091e+18
14641.0	1.9793040147218424e+18
14642.0	1.979092717430374e+18
14643.0	1.9786174205788155e+18
14644.0	1.9781415583350781e+18
14645.0	1.9776644730322936e+18
14646.0	1.9771886426652672e+18
14647.0	1.9767116127272955e+18
14648.0	1.9762345794338816e+18
