# Flux units: erg / (cm m2 s)
# Wavelength units: Angstrom
wave	flux
14000.0	1.747839073491353e+18
14001.0	1.74742489268224e+18
14002.0	1.7473164363694077e+18
14003.0	1.7470113343078397e+18
14004.0	1.7467048481259515e+18
14005.0	1.746398024722022e+18
14006.0	1.7460807189135357e+18
14007.0	1.7457722127548408e+18
14008.0	1.7453459020185597e+18
14009.0	1.745166647531929e+18
14010.0	1.7448455718830075e+18
14011.0	1.7436972452675584e+18
14012.0	1.7442469926928384e+18
14013.0	1.7439444709670907e+18
14014.0	1.7436313091309565e+18
14015.0	1.743329341053337e+18
14016.0	1.743026091196416e+18
14017.0	1.742720078132019e+18
14018.0	1.7424066612822013e+18
14019.0	1.7421079211409403e+18
14020.0	1.7418009551306747e+18
14021.0	1.7414941015277565e+18
14022.0	1.7411836559228928e+18
14023.0	1.7408656085614587e+18
14024.0	1.74055675175895e+18
14025.0	1.7402711179788285e+18
14026.0	1.7399646133420027e+18
14027.0	1.7396613030871035e+18
14028.0	1.7393475288825856e+18
14029.0	1.7390422707929085e+18
14030.0	1.7370870389407754e+18
14031.0	1.7383691504320507e+18
14032.0	1.7381302395207677e+18
14033.0	1.7377676637503485e+18
14034.0	1.737520607500697e+18
14035.0	1.7372195453927421e+18
14036.0	1.7369106684575744e+18
14037.0	1.7366106800914432e+18
14038.0	1.736306056180531e+18
14039.0	1.7359962799865853e+18
14040.0	1.735691303754137e+18
14041.0	1.7353900889735165e+18
14042.0	1.735074063266611e+18
14043.0	1.7347296756760576e+18
14044.0	1.7344578797436925e+18
14045.0	1.7341655015227387e+18
14046.0	1.7338651709014013e+18
14047.0	1.7335519050465277e+18
14048.0	1.7332592768450557e+18
14049.0	1.7329583254667261e+18
14050.0	1.732654518606233e+18
14051.0	1.7323395263758339e+18
14052.0	1.7320420361371643e+18
14053.0	1.731743025882726e+18
14054.0	1.7314395713437693e+18
14055.0	1.7311359758761981e+18
14056.0	1.7308323988635648e+18
14057.0	1.7305289862676477e+18
14058.0	1.7302255468281853e+18
14059.0	1.7299156817149947e+18
14060.0	1.729618934706995e+18
14061.0	1.7293063600734203e+18
14062.0	1.7290122705764347e+18
14063.0	1.7286884417863677e+18
14064.0	1.7280700956803072e+18
14065.0	1.7280914463653888e+18
14066.0	1.7277981370089472e+18
14067.0	1.7274908924968957e+18
14068.0	1.7271951521218557e+18
14069.0	1.726888711238451e+18
14070.0	1.726588729583206e+18
14071.0	1.72628336747479e+18
14072.0	1.725984863892275e+18
14073.0	1.725682436118937e+18
14074.0	1.7253800469331965e+18
14075.0	1.7250549766291453e+18
14076.0	1.724765817955942e+18
14077.0	1.7241076309950467e+18
14078.0	1.72414309802967e+18
14079.0	1.7238559912099835e+18
14080.0	1.7235673241092093e+18
14081.0	1.7232656328556544e+18
14082.0	1.7229621598617597e+18
14083.0	1.7226597622874107e+18
14084.0	1.7223574485991421e+18
14085.0	1.7216071631110141e+18
14086.0	1.7217214847385595e+18
14087.0	1.721450207222169e+18
14088.0	1.7211362199470077e+18
14089.0	1.7208463482421248e+18
14090.0	1.7205455428255741e+18
14091.0	1.7202505037381627e+18
14092.0	1.71994963289047e+18
14093.0	1.719648528839475e+18
14094.0	1.7193472956039163e+18
14095.0	1.719045189953126e+18
14096.0	1.7186779568275453e+18
14097.0	1.7184138549264381e+18
14098.0	1.7181125948473344e+18
14099.0	1.7178424212717563e+18
14100.0	1.717526034854707e+18
14101.0	1.717242466349875e+18
14102.0	1.71693955874816e+18
14103.0	1.71662015243223e+18
14104.0	1.716337687868211e+18
14105.0	1.7160409509265403e+18
14106.0	1.715740731034828e+18
14107.0	1.7154345854304253e+18
14108.0	1.7151243881283581e+18
14109.0	1.714833820169011e+18
14110.0	1.7145371117486077e+18
14111.0	1.7142289310679037e+18
14112.0	1.7139301439504381e+18
14113.0	1.7136399685779453e+18
14114.0	1.7133230754889725e+18
14115.0	1.7130350106902523e+18
14116.0	1.7126899889209344e+18
14117.0	1.7095280558080005e+18
14118.0	1.7121272055988221e+18
14119.0	1.711790822418022e+18
14120.0	1.7115050544201728e+18
14121.0	1.7112216369102848e+18
14122.0	1.710896627004211e+18
14123.0	1.7106194522963965e+18
14124.0	1.710313571772006e+18
14125.0	1.7094414467858424e+18
14126.0	1.7097417992175613e+18
14127.0	1.7094498790146043e+18
14128.0	1.7091500835864576e+18
14129.0	1.7088385306853368e+18
14130.0	1.7085283333832704e+18
14131.0	1.7082558965612541e+18
14132.0	1.7079465649635325e+18
14133.0	1.7069516055904243e+18
14134.0	1.7073507305259003e+18
14135.0	1.70704065569751e+18
14136.0	1.7067373991297021e+18
14137.0	1.706457865545318e+18
14138.0	1.7061385062055933e+18
14139.0	1.7058685574447104e+18
14140.0	1.7055669936979965e+18
14141.0	1.7052438024421376e+18
14142.0	1.7047820867469312e+18
14143.0	1.7046727294975995e+18
14144.0	1.704380493882982e+18
14145.0	1.7040811665391616e+18
14146.0	1.703779237049139e+18
14147.0	1.7034852717035515e+18
14148.0	1.7031859762364413e+18
14149.0	1.7028907827986427e+18
14150.0	1.702597003680153e+18
14151.0	1.7022915761405944e+18
14152.0	1.702000223007539e+18
14153.0	1.7017053684695037e+18
14154.0	1.7013765316804603e+18
14155.0	1.7010174908694525e+18
14156.0	1.7008033901051904e+18
14157.0	1.7005173838708728e+18
14158.0	1.7002154426367995e+18
14159.0	1.6999237690589181e+18
14160.0	1.6996178113593336e+18
14161.0	1.6992523096424448e+18
14162.0	1.6988956847505405e+18
14163.0	1.6987268724031485e+18
14164.0	1.6983490578874365e+18
14165.0	1.6981002349969405e+18
14166.0	1.6978461054730235e+18
14167.0	1.697533764042752e+18
14168.0	1.6972496452452347e+18
14169.0	1.696959875881369e+18
14170.0	1.6966588087402493e+18
14171.0	1.696363892126515e+18
14172.0	1.6960719987671035e+18
14173.0	1.6957402343538688e+18
14174.0	1.6954731612078077e+18
14175.0	1.6951841115865085e+18
14176.0	1.694889262081638e+18
14177.0	1.6945937163223037e+18
14178.0	1.6942975699386363e+18
14179.0	1.693995575017472e+18
14180.0	1.6937072803708928e+18
14181.0	1.6934119057391616e+18
14182.0	1.6931154506547197e+18
14183.0	1.6928210776227837e+18
14184.0	1.6925187236691965e+18
14185.0	1.692226587040153e+18
14186.0	1.6914155109875712e+18
14187.0	1.6915984262627325e+18
14188.0	1.6913396494499835e+18
14189.0	1.6910461790322685e+18
14190.0	1.6907519318294525e+18
14191.0	1.690455198243225e+18
14192.0	1.6901545387884541e+18
14193.0	1.6897875640319997e+18
14194.0	1.6895723375165437e+18
14195.0	1.689283499288166e+18
14196.0	1.688988960161792e+18
14197.0	1.6886946341060605e+18
14198.0	1.688393214643404e+18
14199.0	1.6881000646705147e+18
14200.0	1.6874828325715963e+18
14201.0	1.6874982273449981e+18
14202.0	1.687220208743219e+18
14203.0	1.6869217823358976e+18
14204.0	1.6866323401277437e+18
14205.0	1.6863381046689787e+18
14206.0	1.6858840326733824e+18
14207.0	1.6857529170526205e+18
14208.0	1.685460673049395e+18
14209.0	1.6849905049927675e+18
14210.0	1.6847514128875512e+18
14211.0	1.684571175256064e+18
14212.0	1.6842863165833213e+18
14213.0	1.6839930223263744e+18
14214.0	1.6836997482020861e+18
14215.0	1.6833900978372605e+18
14216.0	1.6831151528214525e+18
14217.0	1.6828221152559104e+18
14218.0	1.6825140402716667e+18
14219.0	1.682235932750643e+18
14220.0	1.6819395850403835e+18
14221.0	1.6816477856333821e+18
14222.0	1.6813354576248832e+18
14223.0	1.681063723768217e+18
14224.0	1.6807691225661435e+18
14225.0	1.6794397412687882e+18
14226.0	1.680171877164646e+18
14227.0	1.6798872835719168e+18
14228.0	1.6767338883842056e+18
14229.0	1.678825894812055e+18
14230.0	1.6790149992022013e+18
14231.0	1.6787128180539387e+18
14232.0	1.6784016174743552e+18
14233.0	1.678103182678425e+18
14234.0	1.6778144719568896e+18
14235.0	1.677518991628697e+18
14236.0	1.677230282584883e+18
14237.0	1.6769363155615741e+18
14238.0	1.6766448433102848e+18
14239.0	1.6763381558018048e+18
14240.0	1.6737965686390792e+18
14241.0	1.6757506260860925e+18
14242.0	1.6754714834108413e+18
14243.0	1.6749838922153981e+18
14244.0	1.6748953236144125e+18
14245.0	1.6745912583847933e+18
14246.0	1.6742983315488763e+18
14247.0	1.6740160616005632e+18
14248.0	1.6737068675760123e+18
14249.0	1.6734336573243387e+18
14250.0	1.6731157878013947e+18
14251.0	1.6728224616677376e+18
14252.0	1.6725309642506235e+18
14253.0	1.6722383679258621e+18
14254.0	1.671943957984051e+18
14255.0	1.6716046354350077e+18
14256.0	1.6702904358404104e+18
14257.0	1.6709546625990653e+18
14258.0	1.6707499017109504e+18
14259.0	1.670436404330496e+18
14260.0	1.6701306378911741e+18
14261.0	1.6698531981033472e+18
14262.0	1.6696058700627965e+18
14263.0	1.6677596766928906e+18
14264.0	1.6686756338335736e+18
14265.0	1.6687313912332285e+18
14266.0	1.6684512201146365e+18
14267.0	1.668163445561753e+18
14268.0	1.6678736409657341e+18
14269.0	1.6675717030871037e+18
14270.0	1.667260215617126e+18
14271.0	1.666966912971571e+18
14272.0	1.6666742763814912e+18
14273.0	1.666366216496742e+18
14274.0	1.6636958558126088e+18
14275.0	1.665546696471347e+18
14276.0	1.6654954336878587e+18
14277.0	1.6652134808289272e+18
14278.0	1.6649380660510715e+18
14279.0	1.6646477497499648e+18
14280.0	1.6643502930657277e+18
14281.0	1.664070492723609e+18
14282.0	1.6637814531686397e+18
14283.0	1.6634920008941563e+18
14284.0	1.6632024462786557e+18
14285.0	1.6629123145269243e+18
14286.0	1.6626204966649853e+18
14287.0	1.6623333948784637e+18
14288.0	1.6620398103756797e+18
14289.0	1.6602989041024993e+18
14290.0	1.6614613822996477e+18
14291.0	1.6611757250314237e+18
14292.0	1.6608831639388157e+18
14293.0	1.660561898707353e+18
14294.0	1.660093879812096e+18
14295.0	1.6599658763649021e+18
14296.0	1.6585260556877832e+18
14297.0	1.6593961053323261e+18
14298.0	1.658687692419891e+18
14299.0	1.6588072082735104e+18
14300.0	1.6585321206513661e+18
14301.0	1.658249562134937e+18
14302.0	1.6579605796225024e+18
14303.0	1.6576309845032957e+18
14304.0	1.6573632872447997e+18
14305.0	1.6570955866308605e+18
14306.0	1.6567862617440253e+18
14307.0	1.6565006816509947e+18
14308.0	1.6562218225106941e+18
14309.0	1.6559192907186176e+18
14310.0	1.655542630475366e+18
14311.0	1.655092752783769e+18
14312.0	1.6549777516789757e+18
14313.0	1.6545805477347328e+18
14314.0	1.6544845283721213e+18
14315.0	1.6542111285379072e+18
14316.0	1.6538585503105021e+18
14317.0	1.6536082107596797e+18
14318.0	1.6533276319547392e+18
14319.0	1.653036159703449e+18
14320.0	1.6527485378232315e+18
14321.0	1.652458119181107e+18
14322.0	1.6521219390046205e+18
14323.0	1.6518624692928507e+18
14324.0	1.651600518230835e+18
14325.0	1.6513014660333565e+18
14326.0	1.6510263985438712e+18
14327.0	1.6507307185668093e+18
14328.0	1.650443049710387e+18
14329.0	1.650165074729369e+18
14330.0	1.6498780568289275e+18
14331.0	1.649590661441126e+18
14332.0	1.649304007606272e+18
14333.0	1.649017135667609e+18
14334.0	1.6487301597102077e+18
14335.0	1.648425262330675e+18
14336.0	1.6480509878075387e+18
14337.0	1.6478656935231485e+18
14338.0	1.6475791772614653e+18
14339.0	1.6472819168706557e+18
14340.0	1.6470088005713915e+18
14341.0	1.6467170951167995e+18
14342.0	1.646433764848435e+18
14343.0	1.6461479716847613e+18
14344.0	1.645854823389593e+18
14345.0	1.6455748485644285e+18
14346.0	1.6452505483345915e+18
14347.0	1.6449264511090685e+18
14348.0	1.6446812571303933e+18
14349.0	1.644398805988147e+18
14350.0	1.644028705636352e+18
14351.0	1.6437322908172285e+18
14352.0	1.643528024856985e+18
14353.0	1.6432529607229435e+18
14354.0	1.6429580222988285e+18
14355.0	1.6426523129020413e+18
14356.0	1.6423725377257467e+18
14357.0	1.6421113030508541e+18
14358.0	1.6418273352482813e+18
14359.0	1.6415227163705344e+18
14360.0	1.641248111932211e+18
14361.0	1.6409669123702781e+18
14362.0	1.6406846206115837e+18
14363.0	1.6403977352511488e+18
14364.0	1.6398483451805693e+18
14365.0	1.639770415012249e+18
14366.0	1.6394903680450557e+18
14367.0	1.6392579918594048e+18
14368.0	1.6389723262025725e+18
14369.0	1.6386878970265597e+18
14370.0	1.6384029729226752e+18
14371.0	1.6381182451122176e+18
14372.0	1.6378258283036672e+18
14373.0	1.6375451253473275e+18
14374.0	1.6372624359686141e+18
14375.0	1.6369742503739387e+18
14376.0	1.63669340145582e+18
14377.0	1.6364076603015163e+18
14378.0	1.6360905138765821e+18
14379.0	1.635806398434508e+18
14380.0	1.635520544872857e+18
14381.0	1.635221113510297e+18
14382.0	1.6349499584675837e+18
14383.0	1.6346638566031357e+18
14384.0	1.6343592494694397e+18
14385.0	1.6340982815522813e+18
14386.0	1.6337906813632507e+18
14387.0	1.6335287823106048e+18
14388.0	1.6332394877419515e+18
14389.0	1.6329597746413563e+18
14390.0	1.6326728322383867e+18
14391.0	1.6323916695863293e+18
14392.0	1.6321060827824123e+18
14393.0	1.631823358171545e+18
14394.0	1.631488590636646e+18
14395.0	1.6312400512811005e+18
14396.0	1.6309708121964541e+18
14397.0	1.6306869685452797e+18
14398.0	1.6304025058148347e+18
14399.0	1.6301184457375747e+18
14400.0	1.6298066361450493e+18
14401.0	1.6295407273377787e+18
14402.0	1.6292576235618296e+18
14403.0	1.6282856355528689e+18
14404.0	1.6239415009476575e+18
14405.0	1.6260343697244096e+18
14406.0	1.6281194320625656e+18
14407.0	1.6268488985280515e+18
14408.0	1.6275426800304125e+18
14409.0	1.6272518755123197e+18
14410.0	1.6269775596421115e+18
14411.0	1.6267133688217595e+18
14412.0	1.6264269364461565e+18
14413.0	1.6261494027059195e+18
14414.0	1.6258579942080507e+18
14415.0	1.6255490853961723e+18
14416.0	1.6252648088928253e+18
14417.0	1.624971174058393e+18
14418.0	1.6246683956412416e+18
14419.0	1.624413940639334e+18
14420.0	1.6241257651109885e+18
14421.0	1.6238483857211387e+18
14422.0	1.623557039298969e+18
14423.0	1.6232391261552637e+18
14424.0	1.6189163757895657e+18
14425.0	1.622686273267302e+18
14426.0	1.622431902151475e+18
14427.0	1.6221505784381435e+18
14428.0	1.6218397838671872e+18
14429.0	1.6215825690132477e+18
14430.0	1.6213012989870077e+18
14431.0	1.6205544360509435e+18
14432.0	1.6207318517547e+18
14433.0	1.619687572399718e+18
14434.0	1.6201488015556603e+18
14435.0	1.6198278232145915e+18
14436.0	1.6196078672019453e+18
14437.0	1.6193277246046205e+18
14438.0	1.618981550240563e+18
14439.0	1.6187501488111616e+18
14440.0	1.618480280580915e+18
14441.0	1.6181848455512061e+18
14442.0	1.6178920160231421e+18
14443.0	1.6175522086125565e+18
14444.0	1.6173437332488187e+18
14445.0	1.6170658287321085e+18
14446.0	1.6149852090007562e+18
14447.0	1.616480099211673e+18
14448.0	1.6162231242719232e+18
14449.0	1.6159423323963387e+18
14450.0	1.615652794558054e+18
14451.0	1.6153733901582333e+18
14452.0	1.615095049433907e+18
14453.0	1.6148029346152448e+18
14454.0	1.6145301756706816e+18
14455.0	1.6142312660795387e+18
14456.0	1.613928722543411e+18
14457.0	1.613646311666483e+18
14458.0	1.613366593532723e+18
14459.0	1.6130783123079163e+18
14460.0	1.6127852848087037e+18
14461.0	1.6124274838339581e+18
14462.0	1.6119816830058493e+18
14463.0	1.6119136966934525e+18
14464.0	1.6116667595620347e+18
14465.0	1.611357025311129e+18
14466.0	1.6110812900884475e+18
14467.0	1.610758919238451e+18
14468.0	1.6105060345839613e+18
14469.0	1.610167965292953e+18
14470.0	1.6099030480191488e+18
14471.0	1.6096550556008443e+18
14472.0	1.609381798372966e+18
14473.0	1.6091054625259515e+18
14474.0	1.6088287861014525e+18
14475.0	1.6085455581741053e+18
14476.0	1.6082185048031232e+18
14477.0	1.6079840096550907e+18
14478.0	1.6077019410333693e+18
14479.0	1.6074192030007293e+18
14480.0	1.607117776827187e+18
14481.0	1.6068634308771837e+18
14482.0	1.6065771109089277e+18
14483.0	1.6062866033475581e+18
14484.0	1.6060048769810424e+18
14485.0	1.605681497820364e+18
14486.0	1.605027072311296e+18
14487.0	1.6051758140751872e+18
14488.0	1.6048810685890557e+18
14489.0	1.6045737687121915e+18
14490.0	1.6043233385644024e+18
14491.0	1.6040542806736893e+18
14492.0	1.603775787276697e+18
14493.0	1.603481117288038e+18
14494.0	1.6031839156174843e+18
14495.0	1.6029315560898557e+18
14496.0	1.6024603663007741e+18
14497.0	1.6023711249334267e+18
14498.0	1.6020932204167163e+18
14499.0	1.6018130442649597e+18
14500.0	1.6015320309301243e+18
14501.0	1.6012214628515837e+18
14502.0	1.6006335707480067e+18
14503.0	1.6006632311881723e+18
14504.0	1.6004002432942075e+18
14505.0	1.6000894839554048e+18
14506.0	1.5997760184516605e+18
14507.0	1.5991836988407805e+18
14508.0	1.5992573592076285e+18
14509.0	1.598978129290854e+18
14510.0	1.598694339326771e+18
14511.0	1.5984187567767547e+18
14512.0	1.598117089011302e+18
14513.0	1.5978575287025656e+18
14514.0	1.597531616182272e+18
14515.0	1.5972891568898048e+18
14516.0	1.5932432691757084e+18
14517.0	1.596697045316403e+18
14518.0	1.596398051839181e+18
14519.0	1.596116375804313e+18
14520.0	1.5958390484238333e+18
14521.0	1.5955603755106296e+18
14522.0	1.5952786810208253e+18
14523.0	1.5949213783293947e+18
14524.0	1.5946703089696765e+18
14525.0	1.594433191542784e+18
14526.0	1.594158065333043e+18
14527.0	1.5938513509810168e+18
14528.0	1.5933945107447805e+18
14529.0	1.5933062374227965e+18
14530.0	1.5930162885427197e+18
14531.0	1.5927594964746237e+18
14532.0	1.5924192931217403e+18
14533.0	1.5922022764773376e+18
14534.0	1.591924739381657e+18
14535.0	1.5916299720851453e+18
14536.0	1.5913599008505853e+18
14537.0	1.591065390245478e+18
14538.0	1.5908060480405504e+18
14539.0	1.590526662095667e+18
14540.0	1.5902469607391232e+18
14541.0	1.5899360571162621e+18
14542.0	1.5896842545922048e+18
14543.0	1.5893620397703163e+18
14544.0	1.5891248636231677e+18
14545.0	1.5888289839972347e+18
14546.0	1.5830036091240412e+18
14547.0	1.5830899933315026e+18
14548.0	1.5879788774293504e+18
14549.0	1.5875513067241467e+18
14550.0	1.587436136169472e+18
14551.0	1.587171051123507e+18
14552.0	1.58689042366464e+18
14553.0	1.586598619224473e+18
14554.0	1.5863334637142013e+18
14555.0	1.5860537002819581e+18
14556.0	1.5857729503494144e+18
14557.0	1.585493408376422e+18
14558.0	1.5852051489619963e+18
14559.0	1.5821431996678088e+18
14560.0	1.5846407231504381e+18
14561.0	1.5843533009190912e+18
14562.0	1.584024672167526e+18
14563.0	1.5837796140843003e+18
14564.0	1.583467168635289e+18
14565.0	1.5832289355235328e+18
14566.0	1.582950024373862e+18
14567.0	1.5826678970318843e+18
14568.0	1.5823705057787901e+18
14569.0	1.5821065347399675e+18
14570.0	1.5810503586611195e+18
14571.0	1.5815448218042365e+18
14572.0	1.581211822587904e+18
14573.0	1.5809185350418432e+18
14574.0	1.5806376861237248e+18
14575.0	1.5804184532090875e+18
14576.0	1.5801362218483707e+18
14577.0	1.579866274765209e+18
14578.0	1.5795905227653115e+18
14579.0	1.5793177151668221e+18
14580.0	1.579038503704985e+18
14581.0	1.578750465749811e+18
14582.0	1.5784713482403832e+18
14583.0	1.57819940634624e+18
14584.0	1.577889034561126e+18
14585.0	1.5776397771407357e+18
14586.0	1.5773565206921213e+18
14587.0	1.5770805707210747e+18
14588.0	1.576802164565606e+18
14589.0	1.5765255854489597e+18
14590.0	1.5762489778110464e+18
14591.0	1.5759675869888512e+18
14592.0	1.5756814482145275e+18
14593.0	1.5752468294008824e+18
14594.0	1.5751368161624064e+18
14595.0	1.5748511924486141e+18
14596.0	1.574327738276249e+18
14597.0	1.5739948917325816e+18
14598.0	1.5740009466298363e+18
14599.0	1.573754460805529e+18
14600.0	1.5734721422032893e+18
14601.0	1.5731969522401275e+18
14602.0	1.5729055873630205e+18
14603.0	1.5726415391490043e+18
14604.0	1.5722893266649088e+18
14605.0	1.5720351115771896e+18
14606.0	1.5716925745135613e+18
14607.0	1.5715245272072192e+18
14608.0	1.5712490302210048e+18
14609.0	1.5709624854380541e+18
14610.0	1.5706276944150525e+18
14611.0	1.5703950128840701e+18
14612.0	1.5701489213243387e+18
14613.0	1.5698758268354557e+18
14614.0	1.569588577409433e+18
14615.0	1.5693182444503037e+18
14616.0	1.569046272357171e+18
14617.0	1.5687561422831613e+18
14618.0	1.5684708339810304e+18
14619.0	1.568018943023513e+18
14620.0	1.5672826379894781e+18
14621.0	1.5676566474326013e+18
14622.0	1.567377434293043e+18
14623.0	1.5671044387897341e+18
14624.0	1.5667431112441853e+18
14625.0	1.5665444404854781e+18
14626.0	1.5662521042075648e+18
14627.0	1.5659550082334715e+18
14628.0	1.565687532434227e+18
14629.0	1.5654090960797693e+18
14630.0	1.5651212443516925e+18
14631.0	1.5648480424886267e+18
14632.0	1.5642238579113984e+18
14633.0	1.5642470507347965e+18
14634.0	1.5640090004946941e+18
14635.0	1.5636252099346424e+18
14636.0	1.5631243009851387e+18
14637.0	1.5631839993528315e+18
14638.0	1.5628880375185403e+18
14639.0	1.5625976171986941e+18
14640.0	1.5623374210334715e+18
14641.0	1.5607378661605363e+18
14642.0	1.5617770855071741e+18
14643.0	1.5614961325703165e+18
14644.0	1.5611547229356032e+18
14645.0	1.5608571420999677e+18
14646.0	1.560592899270246e+18
14647.0	1.560287995179827e+18
