# Flux units: erg / (cm m2 s)
# Wavelength units: Angstrom
wave	flux
14000.0	1.7502936036802552e+18
14001.0	1.750066775719936e+18
14002.0	1.7499540814823421e+18
14003.0	1.7496505648676861e+18
14004.0	1.7493440065437696e+18
14005.0	1.7490361647628285e+18
14006.0	1.7487189747171325e+18
14007.0	1.7484077573603328e+18
14008.0	1.7479976198602752e+18
14009.0	1.7477900521439227e+18
14010.0	1.7474716222619648e+18
14011.0	1.7464306798952448e+18
14012.0	1.7468633928171517e+18
14013.0	1.746570846824038e+18
14014.0	1.746258198370713e+18
14015.0	1.745955270636339e+18
14016.0	1.7456499102056443e+18
14017.0	1.7453427982335995e+18
14018.0	1.7450214373720061e+18
14019.0	1.7447278142816253e+18
14020.0	1.7444195228712957e+18
14021.0	1.7441111492526075e+18
14022.0	1.743801290850304e+18
14023.0	1.74348257240023e+18
14024.0	1.7431743699091453e+18
14025.0	1.7428819749109757e+18
14026.0	1.7425742103052285e+18
14027.0	1.7422680898666493e+18
14028.0	1.7419517470703608e+18
14029.0	1.7416350569857024e+18
14030.0	1.740058857675162e+18
14031.0	1.7408874340417528e+18
14032.0	1.7407243997675515e+18
14033.0	1.7403762775687163e+18
14034.0	1.7401188899094525e+18
14035.0	1.739816099748249e+18
14036.0	1.7394996629995515e+18
14037.0	1.7392031659720704e+18
14038.0	1.7388993339457533e+18
14039.0	1.7385887105023997e+18
14040.0	1.738284448979353e+18
14041.0	1.7379801790676987e+18
14042.0	1.7376638765367293e+18
14043.0	1.737324475134771e+18
14044.0	1.7370416884482043e+18
14045.0	1.7367462769065981e+18
14046.0	1.7364477615800317e+18
14047.0	1.7361357355614205e+18
14048.0	1.7358405605785595e+18
14049.0	1.7355367084195835e+18
14050.0	1.735231492272947e+18
14051.0	1.7349174412443648e+18
14052.0	1.7346160150708221e+18
14053.0	1.7343160988467197e+18
14054.0	1.734011245087948e+18
14055.0	1.733706300732211e+18
14056.0	1.7334013664428027e+18
14057.0	1.7330965915369472e+18
14058.0	1.7327917679771643e+18
14059.0	1.732474525922099e+18
14060.0	1.7321822550753277e+18
14061.0	1.7318694791151613e+18
14062.0	1.7315719452557307e+18
14063.0	1.73124707460055e+18
14064.0	1.730682187415552e+18
14065.0	1.7306480759799805e+18
14066.0	1.730353223119667e+18
14067.0	1.7300483710386168e+18
14068.0	1.729747570655232e+18
14069.0	1.7294413579419643e+18
14070.0	1.729138676832665e+18
14071.0	1.7288323450011643e+18
14072.0	1.728531979147673e+18
14073.0	1.7282281706094584e+18
14074.0	1.727924184232755e+18
14075.0	1.7275996776431616e+18
14076.0	1.7273084503392253e+18
14077.0	1.7267218601476093e+18
14078.0	1.7266793399713787e+18
14079.0	1.726393580362137e+18
14080.0	1.726096791411097e+18
14081.0	1.7257991032012797e+18
14082.0	1.7254962257985533e+18
14083.0	1.725190840202035e+18
14084.0	1.7248803325214715e+18
14085.0	1.7242218553147387e+18
14086.0	1.7242424459919357e+18
14087.0	1.7239700477575163e+18
14088.0	1.7236635347320824e+18
14089.0	1.723373570752512e+18
14090.0	1.7230718878875643e+18
14091.0	1.7227721176252413e+18
14092.0	1.7224701126377467e+18
14093.0	1.7221676060114944e+18
14094.0	1.7218646447226875e+18
14095.0	1.721559507428966e+18
14096.0	1.7212185172246525e+18
14097.0	1.7209248102481915e+18
14098.0	1.7206352522772472e+18
14099.0	1.7203518481891328e+18
14100.0	1.7200379095678976e+18
14101.0	1.719751104738099e+18
14102.0	1.7194471267500032e+18
14103.0	1.7191289535594496e+18
14104.0	1.7188429305479165e+18
14105.0	1.7185448044527613e+18
14106.0	1.7182432138625021e+18
14107.0	1.717930889209446e+18
14108.0	1.7176253341630461e+18
14109.0	1.7173333250408448e+18
14110.0	1.7170349741309947e+18
14111.0	1.7167276188893184e+18
14112.0	1.7164238942371835e+18
14113.0	1.7161309086810107e+18
14114.0	1.7158120878899197e+18
14115.0	1.7155149365510144e+18
14116.0	1.7151205947998203e+18
14117.0	1.7125619586301952e+18
14118.0	1.714575966103142e+18
14119.0	1.7142784171442176e+18
14120.0	1.7139943587446781e+18
14121.0	1.7137017204768763e+18
14122.0	1.7133984504872952e+18
14123.0	1.7131035842052093e+18
14124.0	1.7127894593568765e+18
14125.0	1.712006589159833e+18
14126.0	1.7122104105238525e+18
14127.0	1.7119223490805757e+18
14128.0	1.711623062002073e+18
14129.0	1.71131179934679e+18
14130.0	1.7109982700896253e+18
14131.0	1.7107204226154493e+18
14132.0	1.7104017477861376e+18
14133.0	1.709523187059916e+18
14134.0	1.7097975901716477e+18
14135.0	1.7095075037183997e+18
14136.0	1.7092169022046203e+18
14137.0	1.7089184170770427e+18
14138.0	1.7086107564900347e+18
14139.0	1.7083266360147965e+18
14140.0	1.708023845853593e+18
14141.0	1.7076860164767741e+18
14142.0	1.7073139817119741e+18
14143.0	1.7071231878561787e+18
14144.0	1.706833171867238e+18
14145.0	1.7065337556041725e+18
14146.0	1.706231869734912e+18
14147.0	1.7059371276042237e+18
14148.0	1.7056381727145984e+18
14149.0	1.7053412159913981e+18
14150.0	1.7050444773720061e+18
14151.0	1.7047411906052093e+18
14152.0	1.7044456884666365e+18
14153.0	1.7041494900735995e+18
14154.0	1.7038220122390525e+18
14155.0	1.703510004675379e+18
14156.0	1.703249796766105e+18
14157.0	1.7029560159698941e+18
14158.0	1.7026541670105085e+18
14159.0	1.7023596345950205e+18
14160.0	1.7020453184864253e+18
14161.0	1.7016989025304576e+18
14162.0	1.701348532184678e+18
14163.0	1.7011474069192704e+18
14164.0	1.7008074602577915e+18
14165.0	1.700546559449497e+18
14166.0	1.700272970032742e+18
14167.0	1.6999619607134205e+18
14168.0	1.6996776892432384e+18
14169.0	1.699384688587571e+18
14170.0	1.6990839318249472e+18
14171.0	1.6987868694052861e+18
14172.0	1.6984930332442621e+18
14173.0	1.6981747677790203e+18
14174.0	1.697890509730611e+18
14175.0	1.6976018174640125e+18
14176.0	1.6973059596484605e+18
14177.0	1.6970092562612221e+18
14178.0	1.6967120713678843e+18
14179.0	1.6964111485108221e+18
14180.0	1.696119120933683e+18
14181.0	1.6958224544563197e+18
14182.0	1.695524804834099e+18
14183.0	1.6952284218916861e+18
14184.0	1.6949245747658747e+18
14185.0	1.6946215832780797e+18
14186.0	1.6939408208953341e+18
14187.0	1.6939812002988032e+18
14188.0	1.693739106749644e+18
14189.0	1.6934473140535296e+18
14190.0	1.6931519444549632e+18
14191.0	1.6928543636193277e+18
14192.0	1.6925478606602237e+18
14193.0	1.6922049041661947e+18
14194.0	1.691967863914496e+18
14195.0	1.6916772925997053e+18
14196.0	1.691382107550515e+18
14197.0	1.6910865785683968e+18
14198.0	1.690785003077632e+18
14199.0	1.690487579947827e+18
14200.0	1.6899499154735104e+18
14201.0	1.689865066381312e+18
14202.0	1.6896049020927997e+18
14203.0	1.689309131518771e+18
14204.0	1.6890164227866621e+18
14205.0	1.688719165751296e+18
14206.0	1.6882909457678333e+18
14207.0	1.6881282873032696e+18
14208.0	1.6878374005768187e+18
14209.0	1.687396892960358e+18
14210.0	1.6871360391282685e+18
14211.0	1.6869461545975805e+18
14212.0	1.6866611717734397e+18
14213.0	1.6863678758387707e+18
14214.0	1.6860726069035005e+18
14215.0	1.68576446145495e+18
14216.0	1.6854858690723837e+18
14217.0	1.685191804741222e+18
14218.0	1.68488382538711e+18
14219.0	1.6846033036247037e+18
14220.0	1.684305863717683e+18
14221.0	1.6840135828045821e+18
14222.0	1.6837054289674237e+18
14223.0	1.6834244508647424e+18
14224.0	1.6831226069385213e+18
14225.0	1.6819961745899523e+18
14226.0	1.6824968285257723e+18
14227.0	1.6822296043847675e+18
14228.0	1.6796153869762565e+18
14229.0	1.6811424139444206e+18
14230.0	1.6813618431524861e+18
14231.0	1.6810702652047357e+18
14232.0	1.6807847689977853e+18
14233.0	1.6804905352167421e+18
14234.0	1.680199401865216e+18
14235.0	1.6799035339833341e+18
14236.0	1.6796130431991803e+18
14237.0	1.679317561193267e+18
14238.0	1.6790224717742075e+18
14239.0	1.6787021678772221e+18
14240.0	1.6764356230381568e+18
14241.0	1.6780868618027005e+18
14242.0	1.6778124469469181e+18
14243.0	1.67736939422679e+18
14244.0	1.6772440164139005e+18
14245.0	1.6769458718638075e+18
14246.0	1.6766550656679933e+18
14247.0	1.6763651973185533e+18
14248.0	1.6760576759824381e+18
14249.0	1.6757810666668032e+18
14250.0	1.6754918341738493e+18
14251.0	1.67520190374871e+18
14252.0	1.674908965168742e+18
14253.0	1.6746141810950141e+18
14254.0	1.6743162194165757e+18
14255.0	1.673967875758489e+18
14256.0	1.6729145383845888e+18
14257.0	1.6732480560168952e+18
14258.0	1.6731420458221563e+18
14259.0	1.672829593662259e+18
14260.0	1.6725096135655421e+18
14261.0	1.6722230285172733e+18
14262.0	1.6719516369158141e+18
14263.0	1.6704846170161152e+18
14264.0	1.670916628650393e+18
14265.0	1.671081907716096e+18
14266.0	1.6708165861113853e+18
14267.0	1.6705305094127616e+18
14268.0	1.6702389566308344e+18
14269.0	1.6699394061500416e+18
14270.0	1.6696573459169277e+18
14271.0	1.6693608052686848e+18
14272.0	1.6690607615377403e+18
14273.0	1.6687062623191037e+18
14274.0	1.6664944615358467e+18
14275.0	1.6678589760012288e+18
14276.0	1.6678727584841725e+18
14277.0	1.6676076499501053e+18
14278.0	1.6673304903417853e+18
14279.0	1.6670325152415741e+18
14280.0	1.666722648450662e+18
14281.0	1.6664403030048763e+18
14282.0	1.666150755100262e+18
14283.0	1.665860604893593e+18
14284.0	1.6655701946400763e+18
14285.0	1.665279215638937e+18
14286.0	1.664987469919027e+18
14287.0	1.6646960429662203e+18
14288.0	1.6643878673186816e+18
14289.0	1.6628297303588846e+18
14290.0	1.6638094090436605e+18
14291.0	1.6635350126428157e+18
14292.0	1.6632451275161597e+18
14293.0	1.6629530328301563e+18
14294.0	1.662516316864512e+18
14295.0	1.6623415200841725e+18
14296.0	1.6610669935722496e+18
14297.0	1.6617470982881277e+18
14298.0	1.661155506808422e+18
14299.0	1.6611873566752768e+18
14300.0	1.660921025082163e+18
14301.0	1.660637964926976e+18
14302.0	1.6603378960302075e+18
14303.0	1.6599967162433533e+18
14304.0	1.659728054294937e+18
14305.0	1.659455795311411e+18
14306.0	1.6591546174406656e+18
14307.0	1.6588624573235197e+18
14308.0	1.65857758019584e+18
14309.0	1.658274956129075e+18
14310.0	1.6579373566001147e+18
14311.0	1.657588497881497e+18
14312.0	1.657351524738662e+18
14313.0	1.6569527588356093e+18
14314.0	1.6568401468063741e+18
14315.0	1.6565599656214525e+18
14316.0	1.656221970150195e+18
14317.0	1.6559729962647547e+18
14318.0	1.655705231897395e+18
14319.0	1.6554213664358397e+18
14320.0	1.6551339509153792e+18
14321.0	1.6548428897058813e+18
14322.0	1.6545163329404925e+18
14323.0	1.6542458791854075e+18
14324.0	1.6539842334687232e+18
14325.0	1.6536863154110461e+18
14326.0	1.6534099896303613e+18
14327.0	1.6531102009131005e+18
14328.0	1.6528001344733181e+18
14329.0	1.6525226795859965e+18
14330.0	1.6522352204447741e+18
14331.0	1.6519473703944187e+18
14332.0	1.651660127679283e+18
14333.0	1.651372621561856e+18
14334.0	1.6510848084213757e+18
14335.0	1.6507799127195643e+18
14336.0	1.6504253480697856e+18
14337.0	1.6502182081724413e+18
14338.0	1.6499324250750976e+18
14339.0	1.649635498550886e+18
14340.0	1.6493601089388541e+18
14341.0	1.6490691366486016e+18
14342.0	1.6487818620567547e+18
14343.0	1.6484992548864e+18
14344.0	1.648202398826496e+18
14345.0	1.647922091812454e+18
14346.0	1.647632592561766e+18
14347.0	1.647325707082137e+18
14348.0	1.647059851961958e+18
14349.0	1.6467768639488e+18
14350.0	1.6464194136178685e+18
14351.0	1.646126647843225e+18
14352.0	1.6459064334614525e+18
14353.0	1.6456312200101885e+18
14354.0	1.6453382931742715e+18
14355.0	1.645027548934963e+18
14356.0	1.6447266998976512e+18
14357.0	1.6444619050975232e+18
14358.0	1.6441796586373115e+18
14359.0	1.6438761822879741e+18
14360.0	1.6436017607213056e+18
14361.0	1.6433177576865784e+18
14362.0	1.6430345029156861e+18
14363.0	1.6427445523578877e+18
14364.0	1.6422592311197693e+18
14365.0	1.6420978376572925e+18
14366.0	1.641846409265152e+18
14367.0	1.641606131010764e+18
14368.0	1.6413211918073853e+18
14369.0	1.6410365394943997e+18
14370.0	1.6407514778173437e+18
14371.0	1.6404664496947197e+18
14372.0	1.640174583178854e+18
14373.0	1.6398924407373821e+18
14374.0	1.6396086390292477e+18
14375.0	1.6393196531613693e+18
14376.0	1.63904020849623e+18
14377.0	1.6387542643376125e+18
14378.0	1.6384668270067707e+18
14379.0	1.6381847600627712e+18
14380.0	1.6378988108709885e+18
14381.0	1.637601001865216e+18
14382.0	1.6373281137360893e+18
14383.0	1.6370435520200704e+18
14384.0	1.6367391915114496e+18
14385.0	1.6364759972577275e+18
14386.0	1.636170091567513e+18
14387.0	1.6358988056625152e+18
14388.0	1.6355884942753787e+18
14389.0	1.6353070413774843e+18
14390.0	1.635020910991769e+18
14391.0	1.634738867535872e+18
14392.0	1.6344537102286848e+18
14393.0	1.634170151790182e+18
14394.0	1.633839060143308e+18
14395.0	1.6335887256256512e+18
14396.0	1.6333154230992893e+18
14397.0	1.6330324854177787e+18
14398.0	1.6327476720435197e+18
14399.0	1.632461229601587e+18
14400.0	1.6321542031933437e+18
14401.0	1.6318815046467581e+18
14402.0	1.6315913645064187e+18
14403.0	1.630960267716198e+18
14404.0	1.6275488590790636e+18
14405.0	1.6284911262498772e+18
14406.0	1.6304329245851648e+18
14407.0	1.6297441846362112e+18
14408.0	1.629878142317363e+18
14409.0	1.6295962448232443e+18
14410.0	1.6293241938771963e+18
14411.0	1.629055443009536e+18
14412.0	1.628770933302886e+18
14413.0	1.6284928526254075e+18
14414.0	1.6282069621538813e+18
14415.0	1.6279247861579776e+18
14416.0	1.6276413082501115e+18
14417.0	1.627349747079577e+18
14418.0	1.6270582513401853e+18
14419.0	1.6267887404646395e+18
14420.0	1.6265015581474808e+18
14421.0	1.6262223970172923e+18
14422.0	1.625927393162035e+18
14423.0	1.625592920906137e+18
14424.0	1.6235823863169016e+18
14425.0	1.6250111004770304e+18
14426.0	1.624778970916454e+18
14427.0	1.624501195584307e+18
14428.0	1.6241929998041088e+18
14429.0	1.623933764973363e+18
14430.0	1.623641831348633e+18
14431.0	1.6229965527777277e+18
14432.0	1.6230764576243707e+18
14433.0	1.6224604922052605e+18
14434.0	1.6224969960718328e+18
14435.0	1.622201802634035e+18
14436.0	1.6219588299587581e+18
14437.0	1.6216809388638203e+18
14438.0	1.621355937346355e+18
14439.0	1.6211042052866043e+18
14440.0	1.620835405765017e+18
14441.0	1.6205411166191613e+18
14442.0	1.6202497987182587e+18
14443.0	1.6199184386359293e+18
14444.0	1.6196961690451963e+18
14445.0	1.6194123908251643e+18
14446.0	1.6178850283126792e+18
14447.0	1.618806253499187e+18
14448.0	1.6185767713832957e+18
14449.0	1.6182988299567101e+18
14450.0	1.618010770191155e+18
14451.0	1.6177320519794688e+18
14452.0	1.6174537817194493e+18
14453.0	1.617168970022912e+18
14454.0	1.6168887989043197e+18
14455.0	1.6165976806522875e+18
14456.0	1.616320599896883e+18
14457.0	1.6160387829334013e+18
14458.0	1.6157564928524288e+18
14459.0	1.6154678425288701e+18
14460.0	1.6151735282171904e+18
14461.0	1.6148381080485888e+18
14462.0	1.6145081421529088e+18
14463.0	1.6143073440432123e+18
14464.0	1.6140559710158843e+18
14465.0	1.6137432940412925e+18
14466.0	1.613482305991475e+18
14467.0	1.613182295814963e+18
14468.0	1.6129209151782912e+18
14469.0	1.6125954875195387e+18
14470.0	1.6123246931869693e+18
14471.0	1.6120755783729147e+18
14472.0	1.6118022875906048e+18
14473.0	1.6115265121026048e+18
14474.0	1.6112505352880123e+18
14475.0	1.6109683223822333e+18
14476.0	1.6106695050657792e+18
14477.0	1.6104078056620032e+18
14478.0	1.6101265457020923e+18
14479.0	1.6098456363859965e+18
14480.0	1.6095459416211453e+18
14481.0	1.609289377723187e+18
14482.0	1.6090031433187325e+18
14483.0	1.6087165347823613e+18
14484.0	1.6084273324883963e+18
14485.0	1.608110046812569e+18
14486.0	1.6075224952864765e+18
14487.0	1.6076004724310013e+18
14488.0	1.6073197208207357e+18
14489.0	1.6070150616776704e+18
14490.0	1.6067582494769147e+18
14491.0	1.606488411445657e+18
14492.0	1.606210865961369e+18
14493.0	1.6059179861016576e+18
14494.0	1.6056232859140093e+18
14495.0	1.6053618583011325e+18
14496.0	1.6049312492421115e+18
14497.0	1.6048055291740157e+18
14498.0	1.6045332383137787e+18
14499.0	1.6042541191266301e+18
14500.0	1.603973625885491e+18
14501.0	1.603669609309798e+18
14502.0	1.603132392787149e+18
14503.0	1.6031136761249787e+18
14504.0	1.6028455862796285e+18
14505.0	1.6025663462965248e+18
14506.0	1.6022690926166013e+18
14507.0	1.601717962748723e+18
14508.0	1.6017332971241472e+18
14509.0	1.6014595986554877e+18
14510.0	1.6011777313603584e+18
14511.0	1.600901717635891e+18
14512.0	1.600606522520371e+18
14513.0	1.6003396473454592e+18
14514.0	1.6000235075534848e+18
14515.0	1.599728767100518e+18
14516.0	1.5961407497437204e+18
14517.0	1.5991074363277312e+18
14518.0	1.5989160636579837e+18
14519.0	1.5986383705341947e+18
14520.0	1.5983676449882112e+18
14521.0	1.5980909568196603e+18
14522.0	1.597810089446604e+18
14523.0	1.5974944798146557e+18
14524.0	1.5972307520454653e+18
14525.0	1.5969702404685821e+18
14526.0	1.5966952048558077e+18
14527.0	1.5963797143420923e+18
14528.0	1.5959718585434112e+18
14529.0	1.5958487003561981e+18
14530.0	1.5955640748867584e+18
14531.0	1.595304917231206e+18
14532.0	1.5950051402579965e+18
14533.0	1.5947504117874685e+18
14534.0	1.5944748560809981e+18
14535.0	1.594182987887411e+18
14536.0	1.5939130928136187e+18
14537.0	1.5936237428801533e+18
14538.0	1.593362135751065e+18
14539.0	1.5930845768450043e+18
14540.0	1.592806348528025e+18
14541.0	1.5925000787722237e+18
14542.0	1.5922461522526205e+18
14543.0	1.5919433251815421e+18
14544.0	1.591687350163865e+18
14545.0	1.5913858417819648e+18
14546.0	1.588555580807576e+18
14547.0	1.5883257782468588e+18
14548.0	1.5905360204267515e+18
14549.0	1.5901480942829563e+18
14550.0	1.5900083786612733e+18
14551.0	1.5897490096128e+18
14552.0	1.5894710010773501e+18
14553.0	1.589183510059417e+18
14554.0	1.5889184015253504e+18
14555.0	1.588640399700787e+18
14556.0	1.588361263736422e+18
14557.0	1.5880795340144637e+18
14558.0	1.5877683703447547e+18
14559.0	1.5850505754378204e+18
14560.0	1.5872087310729219e+18
14561.0	1.586960138030284e+18
14562.0	1.5866600288681981e+18
14563.0	1.5864102194774013e+18
14564.0	1.5861135127347197e+18
14565.0	1.5858668557828096e+18
14566.0	1.5855912749105155e+18
14567.0	1.5853102145994747e+18
14568.0	1.585025352571289e+18
14569.0	1.5847445908946941e+18
14570.0	1.583797793875558e+18
14571.0	1.584178329655705e+18
14572.0	1.5838536519385088e+18
14573.0	1.5835598812086267e+18
14574.0	1.583309226246144e+18
14575.0	1.5830565194301435e+18
14576.0	1.5827790511210493e+18
14577.0	1.5825101861683195e+18
14578.0	1.5822400562135035e+18
14579.0	1.5819691964497915e+18
14580.0	1.581692793493913e+18
14581.0	1.5814096913956864e+18
14582.0	1.581131313761485e+18
14583.0	1.5808615612940285e+18
14584.0	1.580561457165107e+18
14585.0	1.5803061398142976e+18
14586.0	1.5800289885945853e+18
14587.0	1.579755588760371e+18
14588.0	1.5794798384381947e+18
14589.0	1.579204497480089e+18
14590.0	1.5789289115746304e+18
14591.0	1.578648255594496e+18
14592.0	1.578360737733017e+18
14593.0	1.5779575829102592e+18
14594.0	1.5778181390794747e+18
14595.0	1.577537644160614e+18
14596.0	1.5770556750102523e+18
14597.0	1.5767346765365243e+18
14598.0	1.5766912369688576e+18
14599.0	1.5764466083823613e+18
14600.0	1.5761697373421563e+18
14601.0	1.575894310820249e+18
14602.0	1.575612245553971e+18
14603.0	1.5753405318299643e+18
14604.0	1.5750072440455163e+18
14605.0	1.5747515542405112e+18
14606.0	1.57440473563136e+18
14607.0	1.574234693514035e+18
14608.0	1.5739547287551997e+18
14609.0	1.5736695613816832e+18
14610.0	1.5733730375106557e+18
14611.0	1.5731070817271805e+18
14612.0	1.572867568513843e+18
14613.0	1.5725970812043264e+18
14614.0	1.5723087060271101e+18
14615.0	1.5720399652257787e+18
14616.0	1.5717749925871616e+18
14617.0	1.5714749471784957e+18
14618.0	1.5711934640816128e+18
14619.0	1.5707123858014203e+18
14620.0	1.5701653260861437e+18
14621.0	1.5703894193602557e+18
14622.0	1.5701207842553853e+18
14623.0	1.5698505804808192e+18
14624.0	1.569509281575731e+18
14625.0	1.5692964340695037e+18
14626.0	1.5690174927208448e+18
14627.0	1.5687430862536701e+18
14628.0	1.5684808634007555e+18
14629.0	1.5682056046510077e+18
14630.0	1.5679197024354304e+18
14631.0	1.567646758941491e+18
14632.0	1.5672162488680443e+18
14633.0	1.567072557046169e+18
14634.0	1.5668255209291776e+18
14635.0	1.5665102065762296e+18
14636.0	1.5661151014617085e+18
14637.0	1.5659850528718848e+18
14638.0	1.5656948523335677e+18
14639.0	1.5654095759081472e+18
14640.0	1.5651429859459067e+18
14641.0	1.5643213603799035e+18
14642.0	1.5645905038344192e+18
14643.0	1.5643305710714877e+18
14644.0	1.564041125507891e+18
14645.0	1.563747983923609e+18
14646.0	1.563483949131366e+18
14647.0	1.5632019258081277e+18
14648.0	1.5629430701424637e+18
