# Flux units: erg / (cm m2 s)
# Wavelength units: Angstrom
wave	flux
14000.0	1.3291736457543677e+18
14001.0	1.3286305412677635e+18
14002.0	1.3288157902536704e+18
14003.0	1.328609368421171e+18
14004.0	1.3283949572784123e+18
14005.0	1.328180690419712e+18
14006.0	1.327956877325107e+18
14007.0	1.3277290620256253e+18
14008.0	1.327414855807795e+18
14009.0	1.3272818485559293e+18
14010.0	1.3270057987604477e+18
14011.0	1.3264468322549757e+18
14012.0	1.3265535378653181e+18
14013.0	1.3264378916765693e+18
14014.0	1.3262412375392253e+18
14015.0	1.3260387516415997e+18
14016.0	1.3258260526137341e+18
14017.0	1.3256129643544573e+18
14018.0	1.3253266561302528e+18
14019.0	1.3251890586320893e+18
14020.0	1.3249764778835965e+18
14021.0	1.3247627562844157e+18
14022.0	1.3245472361676797e+18
14023.0	1.3243269647433723e+18
14024.0	1.3241138278301693e+18
14025.0	1.323907931124531e+18
14026.0	1.3236942372077565e+18
14027.0	1.3234780090925053e+18
14028.0	1.3232588491587581e+18
14029.0	1.323039194297139e+18
14030.0	1.3227872139345917e+18
14031.0	1.3225745367171072e+18
14032.0	1.3224042915954685e+18
14033.0	1.3221646047379456e+18
14034.0	1.321988221671833e+18
14035.0	1.321771579998208e+18
14036.0	1.3215305828401152e+18
14037.0	1.3213400498700285e+18
14038.0	1.3211369985802237e+18
14039.0	1.3209210154123261e+18
14040.0	1.320709849822003e+18
14041.0	1.320497538347827e+18
14042.0	1.3202719124750333e+18
14043.0	1.320044368966451e+18
14044.0	1.319806459654963e+18
14045.0	1.319596773815091e+18
14046.0	1.319433456005939e+18
14047.0	1.3192168092991485e+18
14048.0	1.3190093363740672e+18
14049.0	1.3187975131168765e+18
14050.0	1.318586802189107e+18
14051.0	1.31836787294208e+18
14052.0	1.3181588598685693e+18
14053.0	1.3179497956245501e+18
14054.0	1.317739070436147e+18
14055.0	1.3175270970228733e+18
14056.0	1.3173150741168125e+18
14057.0	1.317101320640921e+18
14058.0	1.3168895326158845e+18
14059.0	1.3166103807131645e+18
14060.0	1.3164634869596157e+18
14061.0	1.3162483955007485e+18
14062.0	1.316038435353395e+18
14063.0	1.3158110780719101e+18
14064.0	1.3155904719421437e+18
14065.0	1.3153936164782075e+18
14066.0	1.3151931807563776e+18
14067.0	1.3149836702384125e+18
14068.0	1.3147737260294141e+18
14069.0	1.3145584357605373e+18
14070.0	1.3143483648835581e+18
14071.0	1.3141361901436925e+18
14072.0	1.3139271451934717e+18
14073.0	1.3137122475114493e+18
14074.0	1.3135044675633152e+18
14075.0	1.3132732473278464e+18
14076.0	1.3130798899134464e+18
14077.0	1.312857198375731e+18
14078.0	1.3126527931645952e+18
14079.0	1.3124427843633152e+18
14080.0	1.3122094585872381e+18
14081.0	1.3120205370687485e+18
14082.0	1.3118105240731645e+18
14083.0	1.3115947489427453e+18
14084.0	1.3113620573454333e+18
14085.0	1.311087592158003e+18
14086.0	1.310901733320294e+18
14087.0	1.3107024787144701e+18
14088.0	1.3105345622704125e+18
14089.0	1.3103391286755325e+18
14090.0	1.3101313428553725e+18
14091.0	1.309920632766464e+18
14092.0	1.3097121909571581e+18
14093.0	1.3095016310243325e+18
14094.0	1.3092923033780221e+18
14095.0	1.3090816251658237e+18
14096.0	1.3088708404183037e+18
14097.0	1.3086463344246781e+18
14098.0	1.308451207852851e+18
14099.0	1.3082382806548477e+18
14100.0	1.3080241152983037e+18
14101.0	1.3078183997865981e+18
14102.0	1.3076067283632125e+18
14103.0	1.3073864468725757e+18
14104.0	1.307185782980608e+18
14105.0	1.3069808660643837e+18
14106.0	1.3067711542198272e+18
14107.0	1.3065053418815483e+18
14108.0	1.3063385402834941e+18
14109.0	1.3061427476561917e+18
14110.0	1.3059332228775933e+18
14111.0	1.3057190659096573e+18
14112.0	1.3055037848682493e+18
14113.0	1.3053012226342912e+18
14114.0	1.3050774682599421e+18
14115.0	1.304869830079283e+18
14116.0	1.3046284285902845e+18
14117.0	1.3043614116478973e+18
14118.0	1.3042249944268797e+18
14119.0	1.3040320203718653e+18
14120.0	1.3038274842984445e+18
14121.0	1.3036105540567037e+18
14122.0	1.3034050566488061e+18
14123.0	1.303183124280115e+18
14124.0	1.3029193906388992e+18
14125.0	1.3026010756808701e+18
14126.0	1.3025099879809021e+18
14127.0	1.3023498729422845e+18
14128.0	1.3021488466624507e+18
14129.0	1.301937118196531e+18
14130.0	1.3017041480974333e+18
14131.0	1.3014968303615997e+18
14132.0	1.3012418577825792e+18
14133.0	1.3009034579804157e+18
14134.0	1.3007711973146621e+18
14135.0	1.3006743676125181e+18
14136.0	1.3004867580723195e+18
14137.0	1.3002875705753597e+18
14138.0	1.3000815757230075e+18
14139.0	1.2998754432974845e+18
14140.0	1.2996694476062717e+18
14141.0	1.2994597307285501e+18
14142.0	1.2992542584864765e+18
14143.0	1.2990459198570493e+18
14144.0	1.2988354127724544e+18
14145.0	1.2986292610531325e+18
14146.0	1.2984249531498493e+18
14147.0	1.2982174307319803e+18
14148.0	1.2980091004911613e+18
14149.0	1.297802016797491e+18
14150.0	1.297593850134528e+18
14151.0	1.2973869014974461e+18
14152.0	1.2971790812839933e+18
14153.0	1.2969734899236861e+18
14154.0	1.2967433593683965e+18
14155.0	1.2965525571239933e+18
14156.0	1.296350825362227e+18
14157.0	1.2961423416098813e+18
14158.0	1.2959302197182464e+18
14159.0	1.2957217611317245e+18
14160.0	1.2954987541823483e+18
14161.0	1.2952767404441595e+18
14162.0	1.295059987202048e+18
14163.0	1.2948322046181373e+18
14164.0	1.2946753040941053e+18
14165.0	1.2944808637104125e+18
14166.0	1.2942746222329853e+18
14167.0	1.2940558070710272e+18
14168.0	1.2938636626493437e+18
14169.0	1.2936608697286653e+18
14170.0	1.2934521485787133e+18
14171.0	1.2932418151383037e+18
14172.0	1.2930369829470205e+18
14173.0	1.292830474711859e+18
14174.0	1.2926210958950397e+18
14175.0	1.2924198716440573e+18
14176.0	1.292214952211251e+18
14177.0	1.2920090764771325e+18
14178.0	1.2918036285620221e+18
14179.0	1.2915964031008765e+18
14180.0	1.2913901238747136e+18
14181.0	1.2911820478087165e+18
14182.0	1.2909760923828221e+18
14183.0	1.2907700287438845e+18
14184.0	1.290562891363123e+18
14185.0	1.290356506440499e+18
14186.0	1.2900892713943037e+18
14187.0	1.289915190162227e+18
14188.0	1.2897247863767037e+18
14189.0	1.2895294601560061e+18
14190.0	1.289329430442803e+18
14191.0	1.2891244262850557e+18
14192.0	1.2889096074559485e+18
14193.0	1.2887092925300733e+18
14194.0	1.288505996292915e+18
14195.0	1.2882989453148157e+18
14196.0	1.2880977068031997e+18
14197.0	1.2878922857316352e+18
14198.0	1.2876841006137341e+18
14199.0	1.2874750002987005e+18
14200.0	1.2872657691213821e+18
14201.0	1.2870607800631293e+18
14202.0	1.286859262210867e+18
14203.0	1.2866517523759101e+18
14204.0	1.2864449337622525e+18
14205.0	1.2862261244723197e+18
14206.0	1.2859905153171456e+18
14207.0	1.2858054089375741e+18
14208.0	1.2856038969573373e+18
14209.0	1.2853557283782653e+18
14210.0	1.2851599030353917e+18
14211.0	1.2849936030760955e+18
14212.0	1.2848041195208701e+18
14213.0	1.284604043670323e+18
14214.0	1.2844018337579003e+18
14215.0	1.284190288163635e+18
14216.0	1.2839921626644477e+18
14217.0	1.2837902706802688e+18
14218.0	1.2835789171851261e+18
14219.0	1.2833837335707645e+18
14220.0	1.2831774895767552e+18
14221.0	1.2829728050249725e+18
14222.0	1.2827643137228797e+18
14223.0	1.2825611785469952e+18
14224.0	1.2823525932924928e+18
14225.0	1.2821090803908603e+18
14226.0	1.2819283193102333e+18
14227.0	1.2816985620479997e+18
14228.0	1.2813548983943165e+18
14229.0	1.2812245159378941e+18
14230.0	1.2811210751737853e+18
14231.0	1.2809250401157117e+18
14232.0	1.2807257511165952e+18
14233.0	1.2805186372239357e+18
14234.0	1.2803161907527677e+18
14235.0	1.2801067624431613e+18
14236.0	1.2798985093775357e+18
14237.0	1.2796791657332733e+18
14238.0	1.2794357736275963e+18
14239.0	1.2790554374963197e+18
14240.0	1.2778404164141053e+18
14241.0	1.2785247028510717e+18
14242.0	1.2785751058022397e+18
14243.0	1.2783958504767488e+18
14244.0	1.2782485649752061e+18
14245.0	1.2780605997580285e+18
14246.0	1.2778682925973501e+18
14247.0	1.2776637934338045e+18
14248.0	1.2774567424557056e+18
14249.0	1.2772649243508736e+18
14250.0	1.2770650808647677e+18
14251.0	1.2768617301016573e+18
14252.0	1.2766572678479872e+18
14253.0	1.2764446443175933e+18
14254.0	1.2762402508505085e+18
14255.0	1.2760153430425597e+18
14256.0	1.2758016986185725e+18
14257.0	1.275603105035059e+18
14258.0	1.2754268662530045e+18
14259.0	1.2752139029839872e+18
14260.0	1.2750139739340797e+18
14261.0	1.2748049776377853e+18
14262.0	1.2746181885034493e+18
14263.0	1.274380201177907e+18
14264.0	1.274188878000947e+18
14265.0	1.27400876703744e+18
14266.0	1.2738268533620736e+18
14267.0	1.2736310053699581e+18
14268.0	1.273424117969715e+18
14269.0	1.2732225925677053e+18
14270.0	1.273025055109939e+18
14271.0	1.272816438817587e+18
14272.0	1.272606639731507e+18
14273.0	1.2723785761292285e+18
14274.0	1.272122162387353e+18
14275.0	1.2719595207000061e+18
14276.0	1.2717834345906173e+18
14277.0	1.2716028731588605e+18
14278.0	1.2714082163490813e+18
14279.0	1.2712087344119805e+18
14280.0	1.271005908775731e+18
14281.0	1.2708090885439485e+18
14282.0	1.2706079255298045e+18
14283.0	1.2704028022538237e+18
14284.0	1.2701934393753597e+18
14285.0	1.2699943785463808e+18
14286.0	1.2697822423941117e+18
14287.0	1.2695498032939003e+18
14288.0	1.2692037648252925e+18
14289.0	1.2683976321794045e+18
14290.0	1.2688077780680701e+18
14291.0	1.2687394419507197e+18
14292.0	1.2685570543190013e+18
14293.0	1.2683505360175101e+18
14294.0	1.2681024764903421e+18
14295.0	1.2678420664156157e+18
14296.0	1.2671837427204093e+18
14297.0	1.2673185216462845e+18
14298.0	1.2672310125264893e+18
14299.0	1.2671219715276797e+18
14300.0	1.2669624118149117e+18
14301.0	1.2667759372533757e+18
14302.0	1.2665771532484605e+18
14303.0	1.2663478665871357e+18
14304.0	1.2661731453042685e+18
14305.0	1.2659776194347008e+18
14306.0	1.2657832914583552e+18
14307.0	1.2655851886084093e+18
14308.0	1.2653857964294144e+18
14309.0	1.2651849966419965e+18
14310.0	1.264982846288691e+18
14311.0	1.2647667171590144e+18
14312.0	1.2644922830094333e+18
14313.0	1.2641504128401408e+18
14314.0	1.2641695262834688e+18
14315.0	1.2639710853726205e+18
14316.0	1.2637648984211453e+18
14317.0	1.2635748201136125e+18
14318.0	1.2633830733119485e+18
14319.0	1.2631846282067963e+18
14320.0	1.2629811616808957e+18
14321.0	1.2627763865321472e+18
14322.0	1.2625708899631101e+18
14323.0	1.2623752005156861e+18
14324.0	1.2621814261874685e+18
14325.0	1.261975312216883e+18
14326.0	1.2617798693945344e+18
14327.0	1.2615794613551101e+18
14328.0	1.261385660183347e+18
14329.0	1.2611916417466365e+18
14330.0	1.2609929332391933e+18
14331.0	1.2607920806035453e+18
14332.0	1.260593544901427e+18
14333.0	1.2603946644275197e+18
14334.0	1.2601938092752893e+18
14335.0	1.259987291812659e+18
14336.0	1.2597901955956736e+18
14337.0	1.2595919484616701e+18
14338.0	1.259394926064435e+18
14339.0	1.2591849524953088e+18
14340.0	1.2590002412191741e+18
14341.0	1.2587994070384637e+18
14342.0	1.2585858708275195e+18
14343.0	1.25840073424896e+18
14344.0	1.2581681609310205e+18
14345.0	1.257984835452928e+18
14346.0	1.2578038470410237e+18
14347.0	1.2576056024236032e+18
14348.0	1.2574082864250877e+18
14349.0	1.2572102246793213e+18
14350.0	1.2570070383329277e+18
14351.0	1.2568039098679293e+18
14352.0	1.2565966231699453e+18
14353.0	1.256409730855731e+18
14354.0	1.2562176250216445e+18
14355.0	1.2560198593937403e+18
14356.0	1.2558049491288061e+18
14357.0	1.2556040939765757e+18
14358.0	1.2554186973511677e+18
14359.0	1.255213465862144e+18
14360.0	1.2550262648471552e+18
14361.0	1.2548305619779581e+18
14362.0	1.254629194281779e+18
14363.0	1.2544308548730877e+18
14364.0	1.254227094745907e+18
14365.0	1.2540279802298365e+18
14366.0	1.2538314653433853e+18
14367.0	1.2536404911325181e+18
14368.0	1.253440438770073e+18
14369.0	1.2532443416363005e+18
14370.0	1.25304844582912e+18
14371.0	1.2528531548405757e+18
14372.0	1.2526472497463293e+18
14373.0	1.2524498951602176e+18
14374.0	1.252250659009331e+18
14375.0	1.2520409714917373e+18
14376.0	1.2518630944145403e+18
14377.0	1.251663305454387e+18
14378.0	1.2514647194206205e+18
14379.0	1.2512699485257725e+18
14380.0	1.2510731350048768e+18
14381.0	1.2508680503164925e+18
14382.0	1.2506783545294845e+18
14383.0	1.2504823991631872e+18
14384.0	1.2502689015398397e+18
14385.0	1.2500883057147901e+18
14386.0	1.2498728728395773e+18
14387.0	1.2496934983958525e+18
14388.0	1.249494309221171e+18
14389.0	1.249295507600179e+18
14390.0	1.2490983887339517e+18
14391.0	1.2489027882057725e+18
14392.0	1.2487041879113725e+18
14393.0	1.2485072863100925e+18
14394.0	1.248271476667187e+18
14395.0	1.2481025410072573e+18
14396.0	1.2479046621331453e+18
14397.0	1.2477094055378941e+18
14398.0	1.2475106752200701e+18
14399.0	1.247295474709299e+18
14400.0	1.2470823042416637e+18
14401.0	1.246861196473139e+18
14402.0	1.2465945394020352e+18
14403.0	1.246152581395251e+18
14404.0	1.2441655399415803e+18
14405.0	1.2440308801339387e+18
14406.0	1.2455582871060477e+18
14407.0	1.245592851526451e+18
14408.0	1.2454804727005181e+18
14409.0	1.2453098148593661e+18
14410.0	1.2451380497219581e+18
14411.0	1.2449551419965437e+18
14412.0	1.2447631519252477e+18
14413.0	1.2445678844248061e+18
14414.0	1.2443811439443965e+18
14415.0	1.2441873134125056e+18
14416.0	1.2439899747647485e+18
14417.0	1.243796045247283e+18
14418.0	1.243602489861734e+18
14419.0	1.2434054230048765e+18
14420.0	1.2432068562649085e+18
14421.0	1.243004693328691e+18
14422.0	1.2428060603187197e+18
14423.0	1.242592791704371e+18
14424.0	1.2423429823135741e+18
14425.0	1.2422010638434301e+18
14426.0	1.2420323462873088e+18
14427.0	1.2418367113658365e+18
14428.0	1.2416198641713152e+18
14429.0	1.2414448325099517e+18
14430.0	1.2412520262270973e+18
14431.0	1.2410458636025853e+18
14432.0	1.2408560612802557e+18
14433.0	1.2406413984792573e+18
14434.0	1.2404607900712957e+18
14435.0	1.2402730840621056e+18
14436.0	1.2400847421964288e+18
14437.0	1.2398895854256125e+18
14438.0	1.2396954638090237e+18
14439.0	1.2394990344863744e+18
14440.0	1.2393028652105725e+18
14441.0	1.2390881126514683e+18
14442.0	1.238878773261107e+18
14443.0	1.2386670640889853e+18
14444.0	1.2384762459062272e+18
14445.0	1.2382235843887101e+18
14446.0	1.237562941243392e+18
14447.0	1.2377247834963965e+18
14448.0	1.2377019471888381e+18
14449.0	1.2375390882365437e+18
14450.0	1.2373493630894077e+18
14451.0	1.2371611537637373e+18
14452.0	1.2369726005051392e+18
14453.0	1.2367783723532283e+18
14454.0	1.2365825176502267e+18
14455.0	1.2363871184486397e+18
14456.0	1.2361925086150653e+18
14457.0	1.2360002903736317e+18
14458.0	1.2358091475517437e+18
14459.0	1.2356136636252157e+18
14460.0	1.2354197424963581e+18
14461.0	1.2352208016244733e+18
14462.0	1.2350291731021821e+18
14463.0	1.234838307943219e+18
14464.0	1.2346342835748864e+18
14465.0	1.2344267225694205e+18
14466.0	1.2342488832409597e+18
14467.0	1.2340508080734203e+18
14468.0	1.23386017611776e+18
14469.0	1.2336279953866752e+18
14470.0	1.2334641398677501e+18
14471.0	1.2332790494265341e+18
14472.0	1.2330888805220347e+18
14473.0	1.2329027020783613e+18
14474.0	1.2327110307741693e+18
14475.0	1.2325198971797504e+18
14476.0	1.2323257084542973e+18
14477.0	1.232132365300531e+18
14478.0	1.2319364720099325e+18
14479.0	1.2317419401904125e+18
14480.0	1.2315288796135424e+18
14481.0	1.2313532112568317e+18
14482.0	1.2311545723748352e+18
14483.0	1.2309540947099645e+18
14484.0	1.2307427235987453e+18
14485.0	1.2305087477055488e+18
14486.0	1.2302576875732992e+18
14487.0	1.2301513728720893e+18
14488.0	1.2299834060963837e+18
14489.0	1.2298018338373627e+18
14490.0	1.229614864347955e+18
14491.0	1.2294248783151101e+18
14492.0	1.2292317834641403e+18
14493.0	1.229032799810355e+18
14494.0	1.2288143571025917e+18
14495.0	1.2286293597749245e+18
14496.0	1.2284106872193021e+18
14497.0	1.2282436004085757e+18
14498.0	1.228066314728243e+18
14499.0	1.2278776524177405e+18
14500.0	1.227676395451187e+18
14501.0	1.2274318205517824e+18
14502.0	1.227147015566131e+18
14503.0	1.2270711590617085e+18
14504.0	1.2269011630817277e+18
14505.0	1.2267069298966525e+18
14506.0	1.2264831251906557e+18
14507.0	1.2262365068263421e+18
14508.0	1.226107120097689e+18
14509.0	1.2259382926508027e+18
14510.0	1.2257478687326205e+18
14511.0	1.225553649808179e+18
14512.0	1.2253515372036093e+18
14513.0	1.2251322967392253e+18
14514.0	1.2248762218971133e+18
14515.0	1.2244160857767936e+18
14516.0	1.222539188423885e+18
14517.0	1.2237187760259067e+18
14518.0	1.2240683494539261e+18
14519.0	1.223937190212403e+18
14520.0	1.2238185148973056e+18
14521.0	1.2236417576992765e+18
14522.0	1.2234582141173757e+18
14523.0	1.223271176680243e+18
14524.0	1.2230786329608192e+18
14525.0	1.2228879380905981e+18
14526.0	1.2226854328991744e+18
14527.0	1.2224473918865403e+18
14528.0	1.222232172081971e+18
14529.0	1.2221104508633083e+18
14530.0	1.2219261254631421e+18
14531.0	1.2217459062865917e+18
14532.0	1.2215590433325053e+18
14533.0	1.221366480319283e+18
14534.0	1.2211759356051453e+18
14535.0	1.2209786162511872e+18
14536.0	1.220793311900467e+18
14537.0	1.2205984596361213e+18
14538.0	1.2204154000769024e+18
14539.0	1.2202237161897981e+18
14540.0	1.2200324810932221e+18
14541.0	1.2198187804655613e+18
14542.0	1.2196459508137981e+18
14543.0	1.2194403644866557e+18
14544.0	1.2192484843061245e+18
14545.0	1.2190254345748477e+18
14546.0	1.2185472344260605e+18
14547.0	1.2183107394338813e+18
14548.0	1.2184118129328125e+18
14549.0	1.2182342730776573e+18
14550.0	1.2180818587811837e+18
14551.0	1.2179191550181373e+18
14552.0	1.2177256323481597e+18
14553.0	1.217531893252096e+18
14554.0	1.2173504317227005e+18
14555.0	1.217150987534336e+18
14556.0	1.2169389847609344e+18
14557.0	1.2166917338955776e+18
14558.0	1.2162270134009853e+18
14559.0	1.2148645390450683e+18
14560.0	1.215831739675443e+18
14561.0	1.2159214659043325e+18
14562.0	1.2157713559584765e+18
14563.0	1.215627680913817e+18
14564.0	1.215393720958976e+18
14565.0	1.2152654742421501e+18
14566.0	1.2150756987633661e+18
14567.0	1.214880509276979e+18
14568.0	1.2146702764998656e+18
14569.0	1.2143901339025405e+18
14570.0	1.213913697878016e+18
14571.0	1.2140378903805952e+18
14572.0	1.2138966564208637e+18
14573.0	1.213712056713216e+18
14574.0	1.2135566728495101e+18
14575.0	1.2133769100132347e+18
14576.0	1.213184441791283e+18
14577.0	1.2129916883566587e+18
14578.0	1.212812797935616e+18
14579.0	1.2126227817037821e+18
14580.0	1.2124361813131261e+18
14581.0	1.2122467304734717e+18
14582.0	1.2120575723962365e+18
14583.0	1.2118683857977344e+18
14584.0	1.211677370482688e+18
14585.0	1.211491201266483e+18
14586.0	1.2113026446524416e+18
14587.0	1.2111130696613885e+18
14588.0	1.2109246581702653e+18
14589.0	1.2107341948256253e+18
14590.0	1.210542927852339e+18
14591.0	1.2103460052795392e+18
14592.0	1.2101414104858624e+18
14593.0	1.209933693452288e+18
14594.0	1.2097695686590461e+18
14595.0	1.2095892194590717e+18
14596.0	1.2093899279433725e+18
14597.0	1.2092052435107837e+18
14598.0	1.209028335317811e+18
14599.0	1.2088479794069501e+18
14600.0	1.208661212921856e+18
14601.0	1.2084701313368061e+18
14602.0	1.208277957554995e+18
14603.0	1.2080902767116285e+18
14604.0	1.207883541984051e+18
14605.0	1.2076486861258752e+18
14606.0	1.2074013161422845e+18
14607.0	1.2073382145163261e+18
14608.0	1.2071096694079485e+18
14609.0	1.2068953799000064e+18
14610.0	1.2067067066843133e+18
14611.0	1.2064911874064381e+18
14612.0	1.206402843620147e+18
14613.0	1.2062151116062717e+18
14614.0	1.2059759951740925e+18
14615.0	1.2058022889127933e+18
14616.0	1.2056508342730752e+18
14617.0	1.2053471851184125e+18
14618.0	1.2051871464161277e+18
14619.0	1.205061698138931e+18
14620.0	1.2048744258207744e+18
14621.0	1.2047004309913597e+18
14622.0	1.2045120027230208e+18
14623.0	1.2043279700852733e+18
14624.0	1.204128654242611e+18
14625.0	1.2039495541063675e+18
14626.0	1.2037246597201917e+18
14627.0	1.203539539079987e+18
14628.0	1.2033959445659648e+18
14629.0	1.2032130091581437e+18
14630.0	1.202984519414579e+18
14631.0	1.2027952027926525e+18
14632.0	1.202559955186483e+18
14633.0	1.2024375117086717e+18
14634.0	1.2022733550387197e+18
14635.0	1.2020849972346877e+18
14636.0	1.2018899042172925e+18
14637.0	1.2017132275499008e+18
14638.0	1.2015221593866237e+18
14639.0	1.2013323176378365e+18
14640.0	1.2011398242500608e+18
14641.0	1.2009364919418877e+18
14642.0	1.2007648090128381e+18
14643.0	1.2005862407143421e+18
14644.0	1.2003885044465661e+18
14645.0	1.200154966438707e+18
14646.0	1.1999728212377597e+18
