# Flux units: erg / (cm m2 s)
# Wavelength units: Angstrom
wave	flux
14000.0	2.106540154263961e+18
14001.0	2.1060804853891067e+18
14002.0	2.1057041573347328e+18
14003.0	2.1052693002846205e+18
14004.0	2.1048338778423293e+18
14005.0	2.1043983530590205e+18
14006.0	2.1039573236711421e+18
14007.0	2.1035201412988925e+18
14008.0	2.1030139810807805e+18
14009.0	2.1026555811594237e+18
14010.0	2.1022106225475576e+18
14011.0	2.1013251714187264e+18
14012.0	2.1013513002549243e+18
14013.0	2.1009174414491645e+18
14014.0	2.1004782122565627e+18
14015.0	2.1000464992567293e+18
14016.0	2.0996139557847037e+18
14017.0	2.09917968425943e+18
14018.0	2.0987453187817464e+18
14019.0	2.0983113442131965e+18
14020.0	2.0978767019114493e+18
14021.0	2.0974421837611005e+18
14022.0	2.0970052463362045e+18
14023.0	2.0965583935766528e+18
14024.0	2.096125907147161e+18
14025.0	2.0957076662517755e+18
14026.0	2.0952736933609472e+18
14027.0	2.0948419820388347e+18
14028.0	2.0944086701703163e+18
14029.0	2.0939743936118781e+18
14030.0	2.0924553945415683e+18
14031.0	2.0930720729923576e+18
14032.0	2.0926743808311293e+18
14033.0	2.0922032329850877e+18
14034.0	2.0918089013002237e+18
14035.0	2.091379214988083e+18
14036.0	2.0909473241497592e+18
14037.0	2.0905152856719357e+18
14038.0	2.0900832388055037e+18
14039.0	2.0896477979082747e+18
14040.0	2.0892134005538808e+18
14041.0	2.0887850681630717e+18
14042.0	2.0883470720958461e+18
14043.0	2.0878942533582845e+18
14044.0	2.0874844144926715e+18
14045.0	2.0870594140569597e+18
14046.0	2.0866261407760381e+18
14047.0	2.086190001946624e+18
14048.0	2.0857659947220987e+18
14049.0	2.0853370231193597e+18
14050.0	2.0849062899089405e+18
14051.0	2.0844686579073021e+18
14052.0	2.084041447912243e+18
14053.0	2.0836141993295867e+18
14054.0	2.083184046610841e+18
14055.0	2.0827537311531003e+18
14056.0	2.0823234911928317e+18
14057.0	2.081893408938393e+18
14058.0	2.0814633988259835e+18
14059.0	2.0810334977654781e+18
14060.0	2.0806036940128253e+18
14061.0	2.0801689678249976e+18
14062.0	2.0797443331325947e+18
14063.0	2.0793021008183293e+18
14064.0	2.0787121333731328e+18
14065.0	2.07844971422679e+18
14066.0	2.0780270290468861e+18
14067.0	2.0775853419921403e+18
14068.0	2.0771690036330496e+18
14069.0	2.0767374047182843e+18
14070.0	2.0763105453670392e+18
14071.0	2.075880582230835e+18
14072.0	2.075454164120371e+18
14073.0	2.0750257025449981e+18
14074.0	2.0745973265334267e+18
14075.0	2.0741541446287355e+18
14076.0	2.0737260034981888e+18
14077.0	2.0730660045979645e+18
14078.0	2.072865964818432e+18
14079.0	2.0724486651248637e+18
14080.0	2.0720294477955072e+18
14081.0	2.071601898900684e+18
14082.0	2.071170924098355e+18
14083.0	2.070745712269721e+18
14084.0	2.070318753932902e+18
14085.0	2.0695854167883773e+18
14086.0	2.069443506706841e+18
14087.0	2.0690380282396672e+18
14088.0	2.0685995556995067e+18
14089.0	2.068172968139161e+18
14090.0	2.067754074610073e+18
14091.0	2.0673312938000381e+18
14092.0	2.0669050048741373e+18
14093.0	2.0664785968300027e+18
14094.0	2.0660521720086525e+18
14095.0	2.065625280780697e+18
14096.0	2.0651494604799997e+18
14097.0	2.0647503909093373e+18
14098.0	2.0643247764275197e+18
14099.0	2.0639218581635067e+18
14100.0	2.063487762799001e+18
14101.0	2.0630714311507965e+18
14102.0	2.062645813313536e+18
14103.0	2.0622099949289467e+18
14104.0	2.0617954735423483e+18
14105.0	2.0613699513352187e+18
14106.0	2.0609451975245824e+18
14107.0	2.060519178711859e+18
14108.0	2.0600858014121981e+18
14109.0	2.0596664901304315e+18
14110.0	2.0591704633507837e+18
14111.0	2.0584404296400893e+18
14112.0	2.0580193617838077e+18
14113.0	2.0575948646645755e+18
14114.0	2.0571660608339965e+18
14115.0	2.0567504740941821e+18
14116.0	2.0562844265218045e+18
14117.0	2.054135335616512e+18
14118.0	2.0554760029470715e+18
14119.0	2.0550209863942136e+18
14120.0	2.0546058425729021e+18
14121.0	2.0541935290679293e+18
14122.0	2.053759468935577e+18
14123.0	2.0533332940947453e+18
14124.0	2.0529072937369592e+18
14125.0	2.0521502218649597e+18
14126.0	2.0520866529935355e+18
14127.0	2.051671160206131e+18
14128.0	2.0512477116628987e+18
14129.0	2.0508165053349883e+18
14130.0	2.0503862871851003e+18
14131.0	2.0499812197597181e+18
14132.0	2.0495533403537403e+18
14133.0	2.0487093272707062e+18
14134.0	2.048712791765811e+18
14135.0	2.0482738712739837e+18
14136.0	2.0478238744641533e+18
14137.0	2.047442429358899e+18
14138.0	2.047004540665856e+18
14139.0	2.0466039309467645e+18
14140.0	2.0461753418645501e+18
14141.0	2.045742293398323e+18
14142.0	2.0451948914278397e+18
14143.0	2.0449117322870776e+18
14144.0	2.044497980974694e+18
14145.0	2.0440773593923581e+18
14146.0	2.0436526961786877e+18
14147.0	2.043233269134131e+18
14148.0	2.0428091797012475e+18
14149.0	2.0423885161758715e+18
14150.0	2.0419740367323133e+18
14151.0	2.041542989787955e+18
14152.0	2.0411333539266555e+18
14153.0	2.0407129890357243e+18
14154.0	2.0402721207091197e+18
14155.0	2.039804625263001e+18
14156.0	2.0394428917088253e+18
14157.0	2.0390329890897917e+18
14158.0	2.0386100019199992e+18
14159.0	2.0381936316841976e+18
14160.0	2.0377688761958397e+18
14161.0	2.0373070497710077e+18
14162.0	2.0368506625196027e+18
14163.0	2.0365127542898688e+18
14164.0	2.0360307616514043e+18
14165.0	2.0356027228618752e+18
14166.0	2.0352559310962683e+18
14167.0	2.0348278973399037e+18
14168.0	2.034416110639513e+18
14169.0	2.0340026395066365e+18
14170.0	2.0335795550289912e+18
14171.0	2.0331636713324544e+18
14172.0	2.0327474437029883e+18
14173.0	2.032286477949337e+18
14174.0	2.0319062961684475e+18
14175.0	2.031493158902169e+18
14176.0	2.031074627760947e+18
14177.0	2.030657232437248e+18
14178.0	2.030238627476275e+18
14179.0	2.0298137193152507e+18
14180.0	2.0292745381806075e+18
14181.0	2.0288554433249275e+18
14182.0	2.0284371437092861e+18
14183.0	2.028020083929907e+18
14184.0	2.0275983114305536e+18
14185.0	2.0271835568406525e+18
14186.0	2.0264105147367424e+18
14187.0	2.026327413830451e+18
14188.0	2.0259323959574528e+18
14189.0	2.0255128229511158e+18
14190.0	2.0250967496720381e+18
14191.0	2.0246785507196925e+18
14192.0	2.024258883760947e+18
14193.0	2.0237905611980797e+18
14194.0	2.0234293141831675e+18
14195.0	2.023016656745267e+18
14196.0	2.022600229466931e+18
14197.0	2.022184011903795e+18
14198.0	2.0216314677166077e+18
14199.0	2.021215396115251e+18
14200.0	2.0205919111479293e+18
14201.0	2.02037428045742e+18
14202.0	2.0199688405778427e+18
14203.0	2.0195436656590845e+18
14204.0	2.0191345633132544e+18
14205.0	2.0187187517587453e+18
14206.0	2.018205580342067e+18
14207.0	2.017889151981977e+18
14208.0	2.0174740819804155e+18
14209.0	2.0169522535202808e+18
14210.0	2.016569546768383e+18
14211.0	2.016223956251443e+18
14212.0	2.0158122718920701e+18
14213.0	2.0153954990030845e+18
14214.0	2.0149823114051581e+18
14215.0	2.0145591614963707e+18
14216.0	2.014153579010457e+18
14217.0	2.0136750022131707e+18
14218.0	2.012938567994572e+18
14219.0	2.0125335324459005e+18
14220.0	2.012118980860313e+18
14221.0	2.011700743320371e+18
14222.0	2.011263448540774e+18
14223.0	2.0108748898959352e+18
14224.0	2.0104603416657915e+18
14225.0	2.009434495438029e+18
14226.0	2.0096279702929403e+18
14227.0	2.009217896546304e+18
14228.0	2.0073721964265472e+18
14229.0	2.0081253474631665e+18
14230.0	2.007977041906892e+18
14231.0	2.007543884388761e+18
14232.0	2.007150317744947e+18
14233.0	2.0067331824680955e+18
14234.0	2.0063236791468032e+18
14235.0	2.0059084816383997e+18
14236.0	2.0054971328233472e+18
14237.0	2.0050831080423421e+18
14238.0	2.0046707005849597e+18
14239.0	2.004252018448793e+18
14240.0	2.002629987139584e+18
14241.0	2.003290985961881e+18
14242.0	2.002882553026969e+18
14243.0	2.0023501465321472e+18
14244.0	2.002060182552576e+18
14245.0	2.0016350495768573e+18
14246.0	2.0012188018147325e+18
14247.0	2.0008184169103355e+18
14248.0	2.0003983288434688e+18
14249.0	1.9999959373840384e+18
14250.0	1.9995834544291837e+18
14251.0	1.9991732196212733e+18
14252.0	1.9987609514147837e+18
14253.0	1.9983481782140925e+18
14254.0	1.9979345762189307e+18
14255.0	1.9974982075416573e+18
14256.0	1.9964488899887107e+18
14257.0	1.9966625344126968e+18
14258.0	1.9962887195852797e+18
14259.0	1.9958618048692221e+18
14260.0	1.9954447216017405e+18
14261.0	1.9950378187489277e+18
14262.0	1.9946628379049984e+18
14263.0	1.9932843077533699e+18
14264.0	1.9936428939018237e+18
14265.0	1.9933977099894784e+18
14266.0	1.9928880164896765e+18
14267.0	1.9924772380999677e+18
14268.0	1.9920662298623997e+18
14269.0	1.991650567625113e+18
14270.0	1.9912441395675133e+18
14271.0	1.9908319334367227e+18
14272.0	1.990421113103974e+18
14273.0	1.9900042311630843e+18
14274.0	1.988124169627239e+18
14275.0	1.9890436550164477e+18
14276.0	1.9887631198322683e+18
14277.0	1.9883565659455483e+18
14278.0	1.9879592814706688e+18
14279.0	1.9875485366353915e+18
14280.0	1.987133661249536e+18
14281.0	1.9867294679171064e+18
14282.0	1.9863198001790973e+18
14283.0	1.985909926081331e+18
14284.0	1.985500072116224e+18
14285.0	1.9850899362938875e+18
14286.0	1.984679023686451e+18
14287.0	1.9842709380399101e+18
14288.0	1.9838607032319997e+18
14289.0	1.9826025546383347e+18
14290.0	1.9825627305607163e+18
14291.0	1.9821549250936832e+18
14292.0	1.9817466817413115e+18
14293.0	1.98126551957504e+18
14294.0	1.9806812043739133e+18
14295.0	1.9803693964591101e+18
14296.0	1.9793665299841024e+18
14297.0	1.9795598639103992e+18
14298.0	1.9788844970803192e+18
14299.0	1.9787306130997243e+18
14300.0	1.97832945476567e+18
14301.0	1.977922993153638e+18
14302.0	1.9775161255329787e+18
14303.0	1.9770799984476155e+18
14304.0	1.9766859318427645e+18
14305.0	1.976288343700275e+18
14306.0	1.975855013376819e+18
14307.0	1.9754560562135037e+18
14308.0	1.975056327298252e+18
14309.0	1.974637225731686e+18
14310.0	1.9741248914980861e+18
14311.0	1.9736875413536768e+18
14312.0	1.9733585737023488e+18
14313.0	1.9729481023356925e+18
14314.0	1.9726020923883515e+18
14315.0	1.972206319540633e+18
14316.0	1.9717600304955387e+18
14317.0	1.971366829595033e+18
14318.0	1.9709888456294397e+18
14319.0	1.9705832564326392e+18
14320.0	1.9701762160066555e+18
14321.0	1.9697698550579197e+18
14322.0	1.9693306510311421e+18
14323.0	1.9689410924642301e+18
14324.0	1.968549708536217e+18
14325.0	1.968062214648627e+18
14326.0	1.9675993111265277e+18
14327.0	1.9671868097167355e+18
14328.0	1.966780275962675e+18
14329.0	1.9663785086156797e+18
14330.0	1.9659717114593277e+18
14331.0	1.9655647112986621e+18
14332.0	1.9651582312316925e+18
14333.0	1.964751640435097e+18
14334.0	1.9643450479607805e+18
14335.0	1.963928568673075e+18
14336.0	1.9634636703399933e+18
14337.0	1.9631231448645627e+18
14338.0	1.9627169164558333e+18
14339.0	1.9623035711520763e+18
14340.0	1.9619063504306173e+18
14341.0	1.9614964209680381e+18
14342.0	1.961094972388147e+18
14343.0	1.9606856771043325e+18
14344.0	1.9602778649264125e+18
14345.0	1.9598768290660347e+18
14346.0	1.9594667653857277e+18
14347.0	1.9590380555075581e+18
14348.0	1.958657519727411e+18
14349.0	1.9582545125441533e+18
14350.0	1.957797531379302e+18
14351.0	1.9573848554864635e+18
14352.0	1.9570322000838653e+18
14353.0	1.9566330969587712e+18
14354.0	1.9562219226267643e+18
14355.0	1.9558043108769787e+18
14356.0	1.9554042380287992e+18
14357.0	1.9550145922203645e+18
14358.0	1.9546098116853752e+18
14359.0	1.9541922183905275e+18
14360.0	1.953795547961753e+18
14361.0	1.9533938494013437e+18
14362.0	1.9527411536232445e+18
14363.0	1.952311116667289e+18
14364.0	1.9517371613970427e+18
14365.0	1.9514674022187003e+18
14366.0	1.951069201707827e+18
14367.0	1.9506937074810877e+18
14368.0	1.950288965533696e+18
14369.0	1.9498850876129277e+18
14370.0	1.9494809764888573e+18
14371.0	1.9490770448809981e+18
14372.0	1.9486686169792512e+18
14373.0	1.948268622983987e+18
14374.0	1.9478646494330877e+18
14375.0	1.9474599410401275e+18
14376.0	1.9470571184062461e+18
14377.0	1.9466527958892544e+18
14378.0	1.9462473794977787e+18
14379.0	1.9458457614680061e+18
14380.0	1.9454412611125245e+18
14381.0	1.94502865232855e+18
14382.0	1.944633602578841e+18
14383.0	1.944226152788787e+18
14384.0	1.9438120374108155e+18
14385.0	1.943424564251852e+18
14386.0	1.943008757730509e+18
14387.0	1.942617752967577e+18
14388.0	1.9422130361860093e+18
14389.0	1.9418112956825592e+18
14390.0	1.941406862435942e+18
14391.0	1.941005462509977e+18
14392.0	1.9406011769028605e+18
14393.0	1.9401997685882875e+18
14394.0	1.9397657638207488e+18
14395.0	1.9393812082196477e+18
14396.0	1.9389910137962493e+18
14397.0	1.9385887448104955e+18
14398.0	1.9381853483958264e+18
14399.0	1.9377830156566525e+18
14400.0	1.9373650633293821e+18
14401.0	1.936972471441817e+18
14402.0	1.9365607484948475e+18
14403.0	1.9345151193251822e+18
14404.0	1.9310721577779177e+18
14405.0	1.933487892332541e+18
14406.0	1.9342283094622203e+18
14407.0	1.9322454824452099e+18
14408.0	1.9334016540868605e+18
14409.0	1.933010171173273e+18
14410.0	1.9326106016415741e+18
14411.0	1.9322204424503293e+18
14412.0	1.9318165628518392e+18
14413.0	1.9314173070540797e+18
14414.0	1.9310130684231677e+18
14415.0	1.9306119251886077e+18
14416.0	1.9302064148447227e+18
14417.0	1.929791718975078e+18
14418.0	1.9293795715645437e+18
14419.0	1.9290029314539515e+18
14420.0	1.9285983656673275e+18
14421.0	1.9281996148637693e+18
14422.0	1.9277924133765115e+18
14423.0	1.9273675303813112e+18
14424.0	1.920042636463305e+18
14425.0	1.9265717132066816e+18
14426.0	1.926190544925491e+18
14427.0	1.9257915676295165e+18
14428.0	1.9253722714472445e+18
14429.0	1.924985900551372e+18
14430.0	1.9245876295761917e+18
14431.0	1.923905068675891e+18
14432.0	1.9237779779092477e+18
14433.0	1.9220835260694515e+18
14434.0	1.922967566234419e+18
14435.0	1.92253989486592e+18
14436.0	1.922181268452147e+18
14437.0	1.9217813902196733e+18
14438.0	1.921320887517184e+18
14439.0	1.9209678227505147e+18
14440.0	1.9205786769031165e+18
14441.0	1.9201730541518843e+18
14442.0	1.919768562185011e+18
14443.0	1.9193361176985597e+18
14444.0	1.9189724748972032e+18
14445.0	1.9185742609645565e+18
14446.0	1.9163660588941317e+18
14447.0	1.9177596935733243e+18
14448.0	1.9173743578316797e+18
14449.0	1.9169744024240125e+18
14450.0	1.91656925111255e+18
14451.0	1.9161723156037627e+18
14452.0	1.9156709805129725e+18
14453.0	1.915216591427993e+18
14454.0	1.9148379615395835e+18
14455.0	1.9144299211915256e+18
14456.0	1.914028249474662e+18
14457.0	1.9136266314448893e+18
14458.0	1.9132291406102525e+18
14459.0	1.9128245597241341e+18
14460.0	1.912417158588006e+18
14461.0	1.9119691934990333e+18
14462.0	1.9114814026547197e+18
14463.0	1.9111987149537277e+18
14464.0	1.9108218785497083e+18
14465.0	1.910410823335936e+18
14466.0	1.9100283397210112e+18
14467.0	1.9096019635535864e+18
14468.0	1.9092277695610875e+18
14469.0	1.9087977661595643e+18
14470.0	1.9084090682638333e+18
14471.0	1.9080264101658621e+18
14472.0	1.9076301088358397e+18
14473.0	1.9072344282628093e+18
14474.0	1.9068367730114555e+18
14475.0	1.906434012453273e+18
14476.0	1.9059544676106235e+18
14477.0	1.9056369151770621e+18
14478.0	1.905236112519987e+18
14479.0	1.904837093280972e+18
14480.0	1.904424330146611e+18
14481.0	1.904039980905267e+18
14482.0	1.9036372488683515e+18
14483.0	1.9032318593204221e+18
14484.0	1.9028321757036536e+18
14485.0	1.9024087053500413e+18
14486.0	1.901793751597056e+18
14487.0	1.9016399968010237e+18
14488.0	1.9012148940242936e+18
14489.0	1.9008161734197243e+18
14490.0	1.9004363422826493e+18
14491.0	1.9000437084520445e+18
14492.0	1.8996454961971197e+18
14493.0	1.8992385866334205e+18
14494.0	1.8988285179199483e+18
14495.0	1.8984468781989888e+18
14496.0	1.8979358140006397e+18
14497.0	1.8976481518551037e+18
14498.0	1.8972499530219515e+18
14499.0	1.8968510663229437e+18
14500.0	1.896451500146688e+18
14501.0	1.8960093533962237e+18
14502.0	1.8954455600857088e+18
14503.0	1.895232038135398e+18
14504.0	1.8948501987655675e+18
14505.0	1.8944168952856568e+18
14506.0	1.89397726176215e+18
14507.0	1.8934541397786621e+18
14508.0	1.8931759131394043e+18
14509.0	1.8927321574539261e+18
14510.0	1.8923304219836413e+18
14511.0	1.8919332499161088e+18
14512.0	1.8915206713311227e+18
14513.0	1.891134396065382e+18
14514.0	1.8907059596558333e+18
14515.0	1.890334008777113e+18
14516.0	1.888056300378523e+18
14517.0	1.889532537680691e+18
14518.0	1.8891374845755387e+18
14519.0	1.8887385408339965e+18
14520.0	1.8883391977947133e+18
14521.0	1.8878014175576056e+18
14522.0	1.886811962789068e+18
14523.0	1.8863042775220221e+18
14524.0	1.8859242551246845e+18
14525.0	1.8856118583295992e+18
14526.0	1.8852175518105597e+18
14527.0	1.8847998444306424e+18
14528.0	1.8843115016159232e+18
14529.0	1.8840098455945213e+18
14530.0	1.883604489601024e+18
14531.0	1.8832180482408443e+18
14532.0	1.8827025431134203e+18
14533.0	1.882420097004339e+18
14534.0	1.8820225826815997e+18
14535.0	1.8816136816623613e+18
14536.0	1.8812201636724733e+18
14537.0	1.8808137976905725e+18
14538.0	1.8804248179376125e+18
14539.0	1.8800255134859261e+18
14540.0	1.879626019451699e+18
14541.0	1.8792065924071421e+18
14542.0	1.8788246355968e+18
14543.0	1.8783629953990653e+18
14544.0	1.8780258773762045e+18
14545.0	1.8776186658226173e+18
14546.0	1.8692184110792658e+18
14547.0	1.8695435350704067e+18
14548.0	1.8764132312416253e+18
14549.0	1.8759283847987197e+18
14550.0	1.8756243480903675e+18
14551.0	1.8752308619771904e+18
14552.0	1.8748302824570875e+18
14553.0	1.8744259448406013e+18
14554.0	1.874032193647411e+18
14555.0	1.873632093955686e+18
14556.0	1.873230410494771e+18
14557.0	1.8728325304287232e+18
14558.0	1.872430531556147e+18
14559.0	1.8706454408069094e+18
14560.0	1.8716215912431613e+18
14561.0	1.8712271387623424e+18
14562.0	1.8708080472621053e+18
14563.0	1.870429840159539e+18
14564.0	1.870008274019942e+18
14565.0	1.8696332864651261e+18
14566.0	1.8692333042139133e+18
14567.0	1.8688304564142077e+18
14568.0	1.8684059240628221e+18
14569.0	1.8680298728325117e+18
14570.0	1.867232008837529e+18
14571.0	1.8672275377094653e+18
14572.0	1.8667897245138941e+18
14573.0	1.86626885067735e+18
14574.0	1.8658450598789112e+18
14575.0	1.8654892017057787e+18
14576.0	1.8650873169182715e+18
14577.0	1.8646932301807613e+18
14578.0	1.8642966822256637e+18
14579.0	1.863897298921062e+18
14580.0	1.8634961808523261e+18
14581.0	1.8630888820572155e+18
14582.0	1.8626882673049597e+18
14583.0	1.8622914676916221e+18
14584.0	1.8618718275764221e+18
14585.0	1.8614882182103037e+18
14586.0	1.8610840550768635e+18
14587.0	1.860683569509171e+18
14588.0	1.8602833523769336e+18
14589.0	1.859889425022976e+18
14590.0	1.8594957812039677e+18
14591.0	1.8590988440174587e+18
14592.0	1.8587016635613184e+18
14593.0	1.8582153491120123e+18
14594.0	1.8579186440470525e+18
14595.0	1.8575194939457533e+18
14596.0	1.8569810157764603e+18
14597.0	1.8565601408581627e+18
14598.0	1.8563238958465021e+18
14599.0	1.8559456736444413e+18
14600.0	1.8555471141011453e+18
14601.0	1.855153656509235e+18
14602.0	1.8547518069538813e+18
14603.0	1.854362719826739e+18
14604.0	1.8539252807630843e+18
14605.0	1.8535443909836797e+18
14606.0	1.853121491055411e+18
14607.0	1.8527766991339523e+18
14608.0	1.852385323594547e+18
14609.0	1.8519807695519744e+18
14610.0	1.8515582471110656e+18
14611.0	1.8511873783627776e+18
14612.0	1.8508040625979387e+18
14613.0	1.850410811365785e+18
14614.0	1.8500128037928955e+18
14615.0	1.8496182456156155e+18
14616.0	1.8492239072198653e+18
14617.0	1.848827161293619e+18
14618.0	1.8484166161072125e+18
14619.0	1.847918903217356e+18
14620.0	1.8472373103624195e+18
14621.0	1.8472396910493693e+18
14622.0	1.8468408244830205e+18
14623.0	1.8464463854239744e+18
14624.0	1.8459998849859581e+18
14625.0	1.8456487361773565e+18
14626.0	1.8452519449526264e+18
14627.0	1.8448502178709504e+18
14628.0	1.8444585302753275e+18
14629.0	1.8440599858315261e+18
14630.0	1.843658020513382e+18
14631.0	1.843262245987942e+18
14632.0	1.8423041797128195e+18
14633.0	1.842383354750566e+18
14634.0	1.842059522605056e+18
14635.0	1.8415781809225725e+18
14636.0	1.8410369143799803e+18
14637.0	1.840868503008051e+18
14638.0	1.8404597882159104e+18
14639.0	1.840052585050931e+18
14640.0	1.83966186382295e+18
14641.0	1.8370866668634094e+18
14642.0	1.8388594599133181e+18
14643.0	1.8384649017360381e+18
14644.0	1.8380534589685755e+18
14645.0	1.837644682100736e+18
14646.0	1.8369505130446843e+18
14647.0	1.836413825004339e+18
