# Flux units: erg / (cm m2 s)
# Wavelength units: Angstrom
wave	flux
14000.0	2.1361819280998395e+18
14001.0	2.1355895313137661e+18
14002.0	2.135229327841689e+18
14003.0	2.1347324622012416e+18
14004.0	2.1342306288271355e+18
14005.0	2.1337350852313088e+18
14006.0	2.1332202126049275e+18
14007.0	2.1327131782938621e+18
14008.0	2.1319766920658944e+18
14009.0	2.131740539328921e+18
14010.0	2.1312053478162427e+18
14011.0	2.129313320769946e+18
14012.0	2.1302395069792253e+18
14013.0	2.1297485821509627e+18
14014.0	2.1292324327784448e+18
14015.0	2.1287472105259003e+18
14016.0	2.12825338323927e+18
14017.0	2.1277552408526845e+18
14018.0	2.1272582862929915e+18
14019.0	2.1267644019638264e+18
14020.0	2.126262585366937e+18
14021.0	2.1257666374402043e+18
14022.0	2.1252507799912445e+18
14023.0	2.1246332190588928e+18
14024.0	2.124194085496422e+18
14025.0	2.1237772639535101e+18
14026.0	2.1232641646788605e+18
14027.0	2.122765782378086e+18
14028.0	2.1222561626980347e+18
14029.0	2.1217653217558528e+18
14030.0	2.115317398083999e+18
14031.0	2.1206895515664374e+18
14032.0	2.1202772531609592e+18
14033.0	2.1196122210959355e+18
14034.0	2.1192875383455736e+18
14035.0	2.1187943016169467e+18
14036.0	2.1182935352737787e+18
14037.0	2.1177997834846203e+18
14038.0	2.1173191749664768e+18
14039.0	2.1168160380026877e+18
14040.0	2.1163011100114944e+18
14041.0	2.1158280663400443e+18
14042.0	2.1153180171632637e+18
14043.0	2.114753697048166e+18
14044.0	2.1143109798723584e+18
14045.0	2.1138314132193277e+18
14046.0	2.1133341449256955e+18
14047.0	2.1128109591887867e+18
14048.0	2.1123481697517565e+18
14049.0	2.111869450348134e+18
14050.0	2.1113744738222077e+18
14051.0	2.110850221054361e+18
14052.0	2.1103762428919803e+18
14053.0	2.1098958860320765e+18
14054.0	2.1094066338922493e+18
14055.0	2.1089104443736061e+18
14056.0	2.1084221888004093e+18
14057.0	2.107924610128281e+18
14058.0	2.1074380373098493e+18
14059.0	2.1069383799406592e+18
14060.0	2.1064547984998397e+18
14061.0	2.1059472541614077e+18
14062.0	2.105472536123801e+18
14063.0	2.1049304609193981e+18
14064.0	2.1036284197732355e+18
14065.0	2.1039575904288765e+18
14066.0	2.1034800353640443e+18
14067.0	2.1028267439947773e+18
14068.0	2.102503935259443e+18
14069.0	2.101994454830284e+18
14070.0	2.1015216108077053e+18
14071.0	2.1010277533220856e+18
14072.0	2.1005415110148096e+18
14073.0	2.1000541278568443e+18
14074.0	2.09956328523694e+18
14075.0	2.099021451624448e+18
14076.0	2.0984026022019067e+18
14077.0	2.0966223382577152e+18
14078.0	2.0974895139651584e+18
14079.0	2.0970897816944637e+18
14080.0	2.0966303107907581e+18
14081.0	2.0961398574022653e+18
14082.0	2.0956045450936315e+18
14083.0	2.0951561404415997e+18
14084.0	2.0946751779241981e+18
14085.0	2.092639979149721e+18
14086.0	2.0935601993809917e+18
14087.0	2.0931905553694717e+18
14088.0	2.092655045089689e+18
14089.0	2.0920634167001088e+18
14090.0	2.0916967204454397e+18
14091.0	2.0912398768537597e+18
14092.0	2.0907487121113083e+18
14093.0	2.0902654309826555e+18
14094.0	2.089778432022937e+18
14095.0	2.089291173016371e+18
14096.0	2.0884923829190656e+18
14097.0	2.0881762833924096e+18
14098.0	2.0876810736631805e+18
14099.0	2.0873443348054016e+18
14100.0	2.0868111850799096e+18
14101.0	2.0863738064142328e+18
14102.0	2.0858819890380792e+18
14103.0	2.085369674937139e+18
14104.0	2.0849085196009472e+18
14105.0	2.0844226279374845e+18
14106.0	2.083945035962777e+18
14107.0	2.083436263532134e+18
14108.0	2.0829229327319037e+18
14109.0	2.082475558200934e+18
14110.0	2.0819465625141243e+18
14111.0	2.0813798868779003e+18
14112.0	2.0809819799683067e+18
14113.0	2.080423263443353e+18
14114.0	2.0799961692110845e+18
14115.0	2.0795372234342397e+18
14116.0	2.0786129833820147e+18
14117.0	2.069155997233974e+18
14118.0	2.0780957166469117e+18
14119.0	2.0774375196196856e+18
14120.0	2.0769776695508987e+18
14121.0	2.076581844693811e+18
14122.0	2.0759670369026045e+18
14123.0	2.075392824940953e+18
14124.0	2.0748646999916544e+18
14125.0	2.073537456111615e+18
14126.0	2.0741633083441152e+18
14127.0	2.0737535953076221e+18
14128.0	2.0732729381355515e+18
14129.0	2.0727624040972283e+18
14130.0	2.072249970878054e+18
14131.0	2.0718158788689912e+18
14132.0	2.0713295124103165e+18
14133.0	2.069490679205065e+18
14134.0	2.0703840844120064e+18
14135.0	2.069815767964057e+18
14136.0	2.068758709403648e+18
14137.0	2.0689228409077755e+18
14138.0	2.0683008390463483e+18
14139.0	2.0679560974565373e+18
14140.0	2.0673863230685176e+18
14141.0	2.0669588832255992e+18
14142.0	2.0655741958356997e+18
14143.0	2.065931902858035e+18
14144.0	2.065554772852736e+18
14145.0	2.065072404404633e+18
14146.0	2.0645738358767616e+18
14147.0	2.0640992419905536e+18
14148.0	2.0635795140378614e+18
14149.0	2.0630772712996864e+18
14150.0	2.06267363664855e+18
14151.0	2.06207661941719e+18
14152.0	2.0617121159446525e+18
14153.0	2.0612377686835197e+18
14154.0	2.0606895530180605e+18
14155.0	2.0587499743084552e+18
14156.0	2.059674288180427e+18
14157.0	2.059315604724121e+18
14158.0	2.0588172995985403e+18
14159.0	2.058363586635366e+18
14160.0	2.0578779046871035e+18
14161.0	2.0572393873342461e+18
14162.0	2.0566542349500406e+18
14163.0	2.0564470497542136e+18
14164.0	2.0556012750635003e+18
14165.0	2.0545778967642115e+18
14166.0	2.054998244877926e+18
14167.0	2.0545026190737405e+18
14168.0	2.053990820033331e+18
14169.0	2.0535792648585216e+18
14170.0	2.0530459641380861e+18
14171.0	2.05258571644928e+18
14172.0	2.0521369879969787e+18
14173.0	2.0512349827891203e+18
14174.0	2.051157394876006e+18
14175.0	2.050702205517824e+18
14176.0	2.0502089637560317e+18
14177.0	2.0497454830977021e+18
14178.0	2.0492672670105597e+18
14179.0	2.0487137900101627e+18
14180.0	2.0483275315216376e+18
14181.0	2.0478494244863997e+18
14182.0	2.0473738038345725e+18
14183.0	2.0468994783838205e+18
14184.0	2.0464102799310843e+18
14185.0	2.0459452306030592e+18
14186.0	2.0435570962464776e+18
14187.0	2.0449355525783547e+18
14188.0	2.044512498299699e+18
14189.0	2.0440211339083773e+18
14190.0	2.04355940646912e+18
14191.0	2.04307720914862e+18
14192.0	2.0426007865458688e+18
14193.0	2.0418284809617405e+18
14194.0	2.0416587509006333e+18
14195.0	2.0412060294709243e+18
14196.0	2.0407316587216893e+18
14197.0	2.0402540248039421e+18
14198.0	2.0397722519470077e+18
14199.0	2.0392846389411837e+18
14200.0	2.0377141740830723e+18
14201.0	2.0383356508176381e+18
14202.0	2.0378863284518912e+18
14203.0	2.0373174180904955e+18
14204.0	2.0369239084892155e+18
14205.0	2.0364661220179963e+18
14206.0	2.0356652884557821e+18
14207.0	2.035508908025446e+18
14208.0	2.0350366965039101e+18
14209.0	2.034209833091071e+18
14210.0	2.033867619827711e+18
14211.0	2.033601752963481e+18
14212.0	2.0331461307531264e+18
14213.0	2.03263986148311e+18
14214.0	2.0322049054474235e+18
14215.0	2.031697339298611e+18
14216.0	2.0312583315652605e+18
14217.0	2.03079353892864e+18
14218.0	2.0302902526476288e+18
14219.0	2.0298472250933243e+18
14220.0	2.02937270838231e+18
14221.0	2.0288705243643896e+18
14222.0	2.0281483709120512e+18
14223.0	2.0279583756517373e+18
14224.0	2.027499134595891e+18
14225.0	2.0239389254746138e+18
14226.0	2.0265548843581437e+18
14227.0	2.02608668091351e+18
14228.0	2.0188410845069338e+18
14229.0	2.0241044310327237e+18
14230.0	2.0246790053822461e+18
14231.0	2.0239421366337533e+18
14232.0	2.023743076643635e+18
14233.0	2.0232505479135235e+18
14234.0	2.0228049450565627e+18
14235.0	2.022328530842419e+18
14236.0	2.0218591076941821e+18
14237.0	2.0213818529415165e+18
14238.0	2.0209193956933624e+18
14239.0	2.020415377925734e+18
14240.0	2.016537359679489e+18
14241.0	2.0194921008857083e+18
14242.0	2.019040689756569e+18
14243.0	2.0181851943469056e+18
14244.0	2.018118395861401e+18
14245.0	2.0175946430545915e+18
14246.0	2.017093056305561e+18
14247.0	2.0166820514234365e+18
14248.0	2.016194185081651e+18
14249.0	2.0157489899110392e+18
14250.0	2.0152889787809784e+18
14251.0	2.0148246038970363e+18
14252.0	2.0143592391573501e+18
14253.0	2.0138933761343483e+18
14254.0	2.0134222786199547e+18
14255.0	2.012885902635827e+18
14256.0	2.0094638840872983e+18
14257.0	2.011964930785279e+18
14258.0	2.0115635342147581e+18
14259.0	2.011033018512179e+18
14260.0	2.01054082868183e+18
14261.0	2.010105917944627e+18
14262.0	2.0097064809529344e+18
14263.0	2.0048275004456996e+18
14264.0	2.0080814700101622e+18
14265.0	2.0082656133775355e+18
14266.0	2.0078379990515712e+18
14267.0	2.007369299001344e+18
14268.0	2.0068983927472125e+18
14269.0	2.0064163363553272e+18
14270.0	2.0059769679118333e+18
14271.0	2.0054931281018877e+18
14272.0	2.0050448073359355e+18
14273.0	2.0045785534038008e+18
14274.0	1.9976939859083305e+18
14275.0	2.0030568951447552e+18
14276.0	2.003085869396787e+18
14277.0	2.0026586342359035e+18
14278.0	2.0022647521804288e+18
14279.0	2.0017998773354496e+18
14280.0	2.0013186933587968e+18
14281.0	2.000875024914841e+18
14282.0	2.0003932403138555e+18
14283.0	1.9999243490033661e+18
14284.0	1.999461334751641e+18
14285.0	1.9989968625598461e+18
14286.0	1.9985198762426365e+18
14287.0	1.9980701042475003e+18
14288.0	1.9976078751694845e+18
14289.0	1.9949341389094858e+18
14290.0	1.9966642708545533e+18
14291.0	1.996219842402713e+18
14292.0	1.995757162017587e+18
14293.0	1.9952962029748221e+18
14294.0	1.994481256418509e+18
14295.0	1.9943225003343864e+18
14296.0	1.9920932579573775e+18
14297.0	1.99343684452352e+18
14298.0	1.991654317332889e+18
14299.0	1.9924334814429181e+18
14300.0	1.9920295297023997e+18
14301.0	1.991572525049446e+18
14302.0	1.9911228788834301e+18
14303.0	1.9905703380516861e+18
14304.0	1.9901659484258301e+18
14305.0	1.9897311920390144e+18
14306.0	1.9890182777995261e+18
14307.0	1.9887212522897403e+18
14308.0	1.9883270850215933e+18
14309.0	1.9878201362743293e+18
14310.0	1.9862275506569203e+18
14311.0	1.9854954516709373e+18
14312.0	1.986105808466739e+18
14313.0	1.985826051745382e+18
14314.0	1.9855303768014843e+18
14315.0	1.9851227693056e+18
14316.0	1.9845534009262077e+18
14317.0	1.983983611438694e+18
14318.0	1.9837753038471165e+18
14319.0	1.9833204970094587e+18
14320.0	1.9828623330508797e+18
14321.0	1.9823920827858944e+18
14322.0	1.981832515656089e+18
14323.0	1.9814486646980603e+18
14324.0	1.9810222834974717e+18
14325.0	1.980548263392051e+18
14326.0	1.980118924368281e+18
14327.0	1.9796417165918205e+18
14328.0	1.9791818145136637e+18
14329.0	1.9787469977288696e+18
14330.0	1.9782873993183232e+18
14331.0	1.9777973016068096e+18
14332.0	1.977372626649088e+18
14333.0	1.976917739280793e+18
14334.0	1.9764621221036027e+18
14335.0	1.975956134690816e+18
14336.0	1.9751735681613821e+18
14337.0	1.9750829896499197e+18
14338.0	1.9746266208534528e+18
14339.0	1.9741315721854973e+18
14340.0	1.973722335621939e+18
14341.0	1.973233447547699e+18
14342.0	1.9728028082896893e+18
14343.0	1.9723119304376317e+18
14344.0	1.9718657655439355e+18
14345.0	1.9714424847728635e+18
14346.0	1.9709728535871483e+18
14347.0	1.9703610170408955e+18
14348.0	1.970068601910067e+18
14349.0	1.9696255408013307e+18
14350.0	1.9689060213719035e+18
14351.0	1.9684007654457341e+18
14352.0	1.9682189423673341e+18
14353.0	1.9677843285868541e+18
14354.0	1.967298653349478e+18
14355.0	1.9667861513437181e+18
14356.0	1.966360238227456e+18
14357.0	1.9659727868788736e+18
14358.0	1.965516914688e+18
14359.0	1.9650213375377403e+18
14360.0	1.9645870509129725e+18
14361.0	1.964149851763507e+18
14362.0	1.9637014840213501e+18
14363.0	1.9632494907228152e+18
14364.0	1.9618774130884608e+18
14365.0	1.9622065535451128e+18
14366.0	1.9617434570850301e+18
14367.0	1.9614353703567355e+18
14368.0	1.9609814644555768e+18
14369.0	1.9605335882858493e+18
14370.0	1.9600799071993853e+18
14371.0	1.9596304925589501e+18
14372.0	1.9591566804910077e+18
14373.0	1.958721368778342e+18
14374.0	1.9582700348243965e+18
14375.0	1.957814733058867e+18
14376.0	1.95736540062679e+18
14377.0	1.956915541390131e+18
14378.0	1.9564584209743864e+18
14379.0	1.956013472428851e+18
14380.0	1.9555601621188603e+18
14381.0	1.9550772651884536e+18
14382.0	1.954654142123212e+18
14383.0	1.95414073582551e+18
14384.0	1.9536949366751227e+18
14385.0	1.953305319387955e+18
14386.0	1.952804819802521e+18
14387.0	1.9523986736021501e+18
14388.0	1.9519402093314043e+18
14389.0	1.9515008828309496e+18
14390.0	1.9510457521930235e+18
14391.0	1.9505863249100792e+18
14392.0	1.9501291306745853e+18
14393.0	1.9497003452989437e+18
14394.0	1.9491489469956093e+18
14395.0	1.9486041538822141e+18
14396.0	1.9483411492110333e+18
14397.0	1.9479007925895165e+18
14398.0	1.94743542784983e+18
14399.0	1.946987664087449e+18
14400.0	1.9464173628948477e+18
14401.0	1.9460830298898432e+18
14402.0	1.9456419266822141e+18
14403.0	1.932353591469651e+18
14404.0	1.9122524298149824e+18
14405.0	1.9409280574685082e+18
14406.0	1.9438503364395005e+18
14407.0	1.923565375350384e+18
14408.0	1.9427291218051064e+18
14409.0	1.9424634814332925e+18
14410.0	1.9419935230918648e+18
14411.0	1.941603989690777e+18
14412.0	1.9411550783668221e+18
14413.0	1.9407155773833216e+18
14414.0	1.9402642937610237e+18
14415.0	1.9398016100204541e+18
14416.0	1.9392953172623352e+18
14417.0	1.9386979460317181e+18
14418.0	1.938243892491059e+18
14419.0	1.9380082850136064e+18
14420.0	1.9375486077501437e+18
14421.0	1.9371151264317437e+18
14422.0	1.9366535298547707e+18
14423.0	1.9361684686635003e+18
14424.0	1.8694853399412403e+18
14425.0	1.9353010563973117e+18
14426.0	1.9348799784747005e+18
14427.0	1.9344356792074237e+18
14428.0	1.9339173487968253e+18
14429.0	1.933534548092518e+18
14430.0	1.9330981978701821e+18
14431.0	1.9312151936106504e+18
14432.0	1.9321339525464061e+18
14433.0	1.916672942696029e+18
14434.0	1.9312686491762683e+18
14435.0	1.9306304304578552e+18
14436.0	1.9304209719492603e+18
14437.0	1.9299745335869435e+18
14438.0	1.928954249006285e+18
14439.0	1.9289593694126075e+18
14440.0	1.9286382618869752e+18
14441.0	1.9281793261764605e+18
14442.0	1.927723942202572e+18
14443.0	1.9271784645787643e+18
14444.0	1.9268454536183803e+18
14445.0	1.9264133312544763e+18
14446.0	1.9097036502597699e+18
14447.0	1.9254814273699835e+18
14448.0	1.9250811196407803e+18
14449.0	1.9246347165106173e+18
14450.0	1.92417591501783e+18
14451.0	1.9237335031873528e+18
14452.0	1.9232860598697981e+18
14453.0	1.9225367139057664e+18
14454.0	1.922403808156057e+18
14455.0	1.921942696440627e+18
14456.0	1.9214411549900797e+18
14457.0	1.920960986034995e+18
14458.0	1.9205499660533755e+18
14459.0	1.9201276466167805e+18
14460.0	1.9196896639713277e+18
14461.0	1.918990382897561e+18
14462.0	1.9174886006063104e+18
14463.0	1.9182758513344507e+18
14464.0	1.9179338226204664e+18
14465.0	1.917466801969561e+18
14466.0	1.9170634927964155e+18
14467.0	1.916374284763136e+18
14468.0	1.9161528322228221e+18
14469.0	1.9155863931453435e+18
14470.0	1.915222151397376e+18
14471.0	1.9148173540851707e+18
14472.0	1.9143890669928443e+18
14473.0	1.9139711163432955e+18
14474.0	1.9135363398238203e+18
14475.0	1.9130725571756027e+18
14476.0	1.911620856551834e+18
14477.0	1.9122040443240443e+18
14478.0	1.911759513531187e+18
14479.0	1.9113039953395712e+18
14480.0	1.910840934111641e+18
14481.0	1.91044833551319e+18
14482.0	1.90999799309271e+18
14483.0	1.9095356448964603e+18
14484.0	1.9091060508590075e+18
14485.0	1.9085722669547517e+18
14486.0	1.907465801170944e+18
14487.0	1.9077832193867773e+18
14488.0	1.906997591015424e+18
14489.0	1.9067639800266747e+18
14490.0	1.906439782137856e+18
14491.0	1.9060358018760696e+18
14492.0	1.9055877277351933e+18
14493.0	1.9050936638898173e+18
14494.0	1.9046351945859072e+18
14495.0	1.904259774178918e+18
14496.0	1.9034674399543299e+18
14497.0	1.9033733365497853e+18
14498.0	1.9029338489880573e+18
14499.0	1.9025022500732925e+18
14500.0	1.9020623128821763e+18
14501.0	1.9011289594462205e+18
14502.0	1.9000500535951365e+18
14503.0	1.9006035154960381e+18
14504.0	1.9002845638426621e+18
14505.0	1.8993961112698872e+18
14506.0	1.898384950139289e+18
14507.0	1.8983490720628736e+18
14508.0	1.8985449125052413e+18
14509.0	1.8981044434763768e+18
14510.0	1.8976613806899197e+18
14511.0	1.897229122430566e+18
14512.0	1.8967427274506235e+18
14513.0	1.8963509777793021e+18
14514.0	1.8957684040531965e+18
14515.0	1.89546422641623e+18
14516.0	1.889690119359697e+18
14517.0	1.8945941599944704e+18
14518.0	1.8941560045436925e+18
14519.0	1.893713673243852e+18
14520.0	1.893277656888115e+18
14521.0	1.8928324919164925e+18
14522.0	1.89236974274478e+18
14523.0	1.8907086943420406e+18
14524.0	1.890376485332581e+18
14525.0	1.891070216503296e+18
14526.0	1.8906365388914683e+18
14527.0	1.8901325110575096e+18
14528.0	1.8893573734793213e+18
14529.0	1.889304708120576e+18
14530.0	1.8888272822403072e+18
14531.0	1.888427858670387e+18
14532.0	1.8864049794056187e+18
14533.0	1.887553245623091e+18
14534.0	1.8871222540435453e+18
14535.0	1.8866521195413504e+18
14536.0	1.8862347544166397e+18
14537.0	1.885768107897651e+18
14538.0	1.8853693520609275e+18
14539.0	1.884930723492659e+18
14540.0	1.884496831132467e+18
14541.0	1.883993200918528e+18
14542.0	1.8836098415329275e+18
14543.0	1.882467353388646e+18
14544.0	1.8827409226727424e+18
14545.0	1.882279290863616e+18
14546.0	1.8242028907265843e+18
14547.0	1.8288725217771246e+18
14548.0	1.8809585565433853e+18
14549.0	1.8802446977466365e+18
14550.0	1.8800982611722235e+18
14551.0	1.8796884726382587e+18
14552.0	1.879241190381977e+18
14553.0	1.8787893816328187e+18
14554.0	1.8783761437032443e+18
14555.0	1.8779370520838144e+18
14556.0	1.8774743901536253e+18
14557.0	1.8770660880809981e+18
14558.0	1.876624632551833e+18
14559.0	1.8719014184288161e+18
14560.0	1.8754347621941243e+18
14561.0	1.8752997693587453e+18
14562.0	1.8747835226783744e+18
14563.0	1.8744372879163387e+18
14564.0	1.8738448777084925e+18
14565.0	1.8735762191155192e+18
14566.0	1.873139863860019e+18
14567.0	1.872689214416486e+18
14568.0	1.8718890955636736e+18
14569.0	1.8718170776862717e+18
14570.0	1.8700239523282941e+18
14571.0	1.870946316687769e+18
14572.0	1.870252132532224e+18
14573.0	1.8699157627731965e+18
14574.0	1.8692208152543227e+18
14575.0	1.8691559008501752e+18
14576.0	1.8687201831288824e+18
14577.0	1.8683170450833405e+18
14578.0	1.8678970476134397e+18
14579.0	1.867467525718016e+18
14580.0	1.86703020073943e+18
14581.0	1.8665524946796541e+18
14582.0	1.8661401023217661e+18
14583.0	1.8657102666924032e+18
14584.0	1.8651961507184637e+18
14585.0	1.8648372609023997e+18
14586.0	1.8643787194564603e+18
14587.0	1.8639240065712123e+18
14588.0	1.8635011720740861e+18
14589.0	1.8630885851004925e+18
14590.0	1.8626715320319997e+18
14591.0	1.8622216358854653e+18
14592.0	1.8618058058760187e+18
14593.0	1.8611000135647224e+18
14594.0	1.8609828364550141e+18
14595.0	1.8605469308289021e+18
14596.0	1.8593590586376174e+18
14597.0	1.8588782185938924e+18
14598.0	1.859231865529958e+18
14599.0	1.8588760912429046e+18
14600.0	1.8584037085937661e+18
14601.0	1.857993049322291e+18
14602.0	1.8574808526618621e+18
14603.0	1.8571427900817405e+18
14604.0	1.8565536128434168e+18
14605.0	1.8561072030023675e+18
14606.0	1.8556738642903037e+18
14607.0	1.855468982606233e+18
14608.0	1.8550471597752315e+18
14609.0	1.854518118789939e+18
14610.0	1.8538535246102525e+18
14611.0	1.8537309251043323e+18
14612.0	1.8533711595175933e+18
14613.0	1.8529647968911355e+18
14614.0	1.8525382462406656e+18
14615.0	1.8520773828280315e+18
14616.0	1.8517077539160061e+18
14617.0	1.851284469789491e+18
14618.0	1.8506835669549056e+18
14619.0	1.8499579624292332e+18
14620.0	1.8479223794565125e+18
14621.0	1.8496026629373947e+18
14622.0	1.849172686379417e+18
14623.0	1.8487583596085245e+18
14624.0	1.84818218303488e+18
14625.0	1.8479068118777856e+18
14626.0	1.8474586471399421e+18
14627.0	1.8470079775637504e+18
14628.0	1.846650695004979e+18
14629.0	1.846228009825075e+18
14630.0	1.8457865559736315e+18
14631.0	1.8453739690000384e+18
14632.0	1.838209275684458e+18
14633.0	1.84366270806753e+18
14634.0	1.8440675422896125e+18
14635.0	1.8420268204556206e+18
14636.0	1.8384325770739692e+18
14637.0	1.8428440671682555e+18
14638.0	1.8423669080457213e+18
14639.0	1.8419357721821181e+18
14640.0	1.841559806515609e+18
14641.0	1.8167910287540063e+18
14642.0	1.8407083460263933e+18
14643.0	1.8402895732932605e+18
14644.0	1.839825990293913e+18
14645.0	1.8393721179471864e+18
14646.0	1.838806859985715e+18
14647.0	1.8383667181125627e+18
14648.0	1.8381323739594747e+18
