# Flux units: erg / (cm m2 s)
# Wavelength units: Angstrom
wave	flux
14000.0	2.321967447696998e+18
14001.0	2.3213354633920507e+18
14002.0	2.3208736252231675e+18
14003.0	2.3203210223157243e+18
14004.0	2.3197683539771387e+18
14005.0	2.3192143031959547e+18
14006.0	2.3186460723118075e+18
14007.0	2.3180834064302075e+18
14008.0	2.317332089143296e+18
14009.0	2.316997180679782e+18
14010.0	2.31641195783127e+18
14011.0	2.314752629093171e+18
14012.0	2.3153323003609083e+18
14013.0	2.3147848681914363e+18
14014.0	2.314216112180429e+18
14015.0	2.313674179582361e+18
14016.0	2.313127015848345e+18
14017.0	2.3125634389639163e+18
14018.0	2.3119763790102523e+18
14019.0	2.3114272657637376e+18
14020.0	2.310871067498905e+18
14021.0	2.3103201070809083e+18
14022.0	2.309768512484147e+18
14023.0	2.3091817545203707e+18
14024.0	2.308632141312819e+18
14025.0	2.3081145625214976e+18
14026.0	2.307561338857062e+18
14027.0	2.3070113196408827e+18
14028.0	2.3064489909813243e+18
14029.0	2.305902820458495e+18
14030.0	2.304543235139175e+18
14031.0	2.3047651540860928e+18
14032.0	2.3042590307778555e+18
14033.0	2.303609839760179e+18
14034.0	2.3031605660483581e+18
14035.0	2.3025870167867387e+18
14036.0	2.3020189654188027e+18
14037.0	2.3014650304004093e+18
14038.0	2.3009222908182523e+18
14039.0	2.3003631968059387e+18
14040.0	2.299798593155891e+18
14041.0	2.2992669080813565e+18
14042.0	2.298705976963891e+18
14043.0	2.2980986736214008e+18
14044.0	2.2976104918679547e+18
14045.0	2.2970728341045245e+18
14046.0	2.296519763112755e+18
14047.0	2.2959663096004605e+18
14048.0	2.2954351496527867e+18
14049.0	2.2948908246237176e+18
14050.0	2.2943413104017403e+18
14051.0	2.2937680547414008e+18
14052.0	2.2932375860150267e+18
14053.0	2.2926995188875261e+18
14054.0	2.292155396862771e+18
14055.0	2.291572709051596e+18
14056.0	2.2910207101239296e+18
14057.0	2.2904705281687547e+18
14058.0	2.289927642624819e+18
14059.0	2.2893820072951803e+18
14060.0	2.28883604480983e+18
14061.0	2.2882773551284221e+18
14062.0	2.2877445694685184e+18
14063.0	2.2871637573500923e+18
14064.0	2.286549045189017e+18
14065.0	2.286092251928985e+18
14066.0	2.2855575100456952e+18
14067.0	2.2849951578980347e+18
14068.0	2.2844739720052733e+18
14069.0	2.2839258972684283e+18
14070.0	2.283384479730892e+18
14071.0	2.282835386617036e+18
14072.0	2.2822942878466043e+18
14073.0	2.2817525683191805e+18
14074.0	2.2812069648662523e+18
14075.0	2.2806244330831864e+18
14076.0	2.280095835016396e+18
14077.0	2.2793680947511296e+18
14078.0	2.27897401975767e+18
14079.0	2.2784271093596163e+18
14080.0	2.2779085776224256e+18
14081.0	2.2773655947706365e+18
14082.0	2.2767788938493947e+18
14083.0	2.2762739147472893e+18
14084.0	2.275737924639129e+18
14085.0	2.2745788337618947e+18
14086.0	2.2746322826166264e+18
14087.0	2.2741121788542968e+18
14088.0	2.2735447415324664e+18
14089.0	2.273003944751923e+18
14090.0	2.2724804503142392e+18
14091.0	2.2719462285246461e+18
14092.0	2.271401527685939e+18
14093.0	2.2708640829931515e+18
14094.0	2.2703233046675448e+18
14095.0	2.269782610228019e+18
14096.0	2.2691973571805181e+18
14097.0	2.26864836640768e+18
14098.0	2.268136894522982e+18
14099.0	2.26762083574743e+18
14100.0	2.267053673571942e+18
14101.0	2.2665422536966136e+18
14102.0	2.2659826630787072e+18
14103.0	2.265397891537305e+18
14104.0	2.2648771066200056e+18
14105.0	2.2643364507680765e+18
14106.0	2.2638052505550843e+18
14107.0	2.2632438580641787e+18
14108.0	2.262696533268889e+18
14109.0	2.262178258223103e+18
14110.0	2.2616011387699192e+18
14111.0	2.2610045829119995e+18
14112.0	2.2605542153256957e+18
14113.0	2.260020847496396e+18
14114.0	2.259462615832985e+18
14115.0	2.2589531622473723e+18
14116.0	2.258273683321651e+18
14117.0	2.2565697087340547e+18
14118.0	2.2573445543886843e+18
14119.0	2.2567750954123261e+18
14120.0	2.256251501989068e+18
14121.0	2.255687775787417e+18
14122.0	2.255174611081625e+18
14123.0	2.254614052418355e+18
14124.0	2.2540795219279867e+18
14125.0	2.2526099753795576e+18
14126.0	2.253043944914944e+18
14127.0	2.2525199991701501e+18
14128.0	2.2519815696547837e+18
14129.0	2.2514225578508283e+18
14130.0	2.250819430357401e+18
14131.0	2.250336582080921e+18
14132.0	2.249790287406694e+18
14133.0	2.2481278733385692e+18
14134.0	2.2487324973596667e+18
14135.0	2.2481633638612984e+18
14136.0	2.2475726095646717e+18
14137.0	2.247126862423654e+18
14138.0	2.2465760295124987e+18
14139.0	2.2460600848220155e+18
14140.0	2.2454463474171901e+18
14141.0	2.2449860242309117e+18
14142.0	2.244307389199155e+18
14143.0	2.2438301713563645e+18
14144.0	2.2433928665104381e+18
14145.0	2.242857795793715e+18
14146.0	2.2423213074022395e+18
14147.0	2.2417910450356221e+18
14148.0	2.2412534845800445e+18
14149.0	2.2407169525678077e+18
14150.0	2.2401951308185595e+18
14151.0	2.239639731149209e+18
14152.0	2.239126895276851e+18
14153.0	2.2385989968199677e+18
14154.0	2.23800816870359e+18
14155.0	2.2373735856078848e+18
14156.0	2.236992707572531e+18
14157.0	2.2364692752105467e+18
14158.0	2.2359273744891901e+18
14159.0	2.2354087085342717e+18
14160.0	2.2348742904512504e+18
14161.0	2.2341884781264896e+18
14162.0	2.2335486286626808e+18
14163.0	2.2332445734993917e+18
14164.0	2.232645355097292e+18
14165.0	2.2313610994778115e+18
14166.0	2.2316378564329472e+18
14167.0	2.2310933133000701e+18
14168.0	2.2305803415322621e+18
14169.0	2.2300668630925304e+18
14170.0	2.2295271283097595e+18
14171.0	2.228991467035033e+18
14172.0	2.2284784231251965e+18
14173.0	2.2275686265782272e+18
14174.0	2.227410299990835e+18
14175.0	2.226891338756915e+18
14176.0	2.2263592208302075e+18
14177.0	2.2258320874143744e+18
14178.0	2.225295291999846e+18
14179.0	2.2246969107808256e+18
14180.0	2.2242490329333757e+18
14181.0	2.2237188192206845e+18
14182.0	2.2231910700810232e+18
14183.0	2.222664040683929e+18
14184.0	2.2221249602125821e+18
14185.0	2.2216065727594486e+18
14186.0	2.2207799324835837e+18
14187.0	2.2205030597656568e+18
14188.0	2.220017486869299e+18
14189.0	2.219487553336115e+18
14190.0	2.2189707563630587e+18
14191.0	2.2184442135052283e+18
14192.0	2.217899224098406e+18
14193.0	2.2173511443283965e+18
14194.0	2.216864693983641e+18
14195.0	2.2163432245559293e+18
14196.0	2.2158166531768315e+18
14197.0	2.2152812150390776e+18
14198.0	2.2147173613305853e+18
14199.0	2.214178158385561e+18
14200.0	2.213526272946995e+18
14201.0	2.2131494650642427e+18
14202.0	2.212622675581337e+18
14203.0	2.2120106897178621e+18
14204.0	2.2115698750783483e+18
14205.0	2.211046029996851e+18
14206.0	2.210259797645721e+18
14207.0	2.21000272707584e+18
14208.0	2.2094783484788733e+18
14209.0	2.208651255218175e+18
14210.0	2.2082513249763315e+18
14211.0	2.2078906987184123e+18
14212.0	2.2073813172748283e+18
14213.0	2.206853152060211e+18
14214.0	2.2063349709668347e+18
14215.0	2.2057865237757947e+18
14216.0	2.2052850829885432e+18
14217.0	2.204767319647846e+18
14218.0	2.2042167669161976e+18
14219.0	2.2037174132146176e+18
14220.0	2.2031995643101181e+18
14221.0	2.2026708404142077e+18
14222.0	2.2020959355535352e+18
14223.0	2.2016307872399357e+18
14224.0	2.2011104938950648e+18
14225.0	2.200181767615283e+18
14226.0	2.2000665450512376e+18
14227.0	2.199543017059123e+18
14228.0	2.198124897710899e+18
14229.0	2.1983877362876408e+18
14230.0	2.197979888877568e+18
14231.0	2.1974225698947067e+18
14232.0	2.1969402433896443e+18
14233.0	2.196400991790694e+18
14234.0	2.195898816161382e+18
14235.0	2.1953731809509373e+18
14236.0	2.1948543539347453e+18
14237.0	2.1943315054198781e+18
14238.0	2.193786703917875e+18
14239.0	2.193247512716902e+18
14240.0	2.190003473586587e+18
14241.0	2.1922169890013181e+18
14242.0	2.1916992038502395e+18
14243.0	2.1908503169859584e+18
14244.0	2.1906641251205117e+18
14245.0	2.1901014927933437e+18
14246.0	2.1895581592977403e+18
14247.0	2.1890943162515448e+18
14248.0	2.1885617470177277e+18
14249.0	2.1880583785283581e+18
14250.0	2.1875461432803323e+18
14251.0	2.187029655008051e+18
14252.0	2.1865127858929661e+18
14253.0	2.1859956080771067e+18
14254.0	2.1854739507445755e+18
14255.0	2.1849010188845053e+18
14256.0	2.1840392957722624e+18
14257.0	2.18391234257879e+18
14258.0	2.1834090193879037e+18
14259.0	2.1828465061789693e+18
14260.0	2.182359466953932e+18
14261.0	2.1818049195671552e+18
14262.0	2.1813435679375352e+18
14263.0	2.1802196823703555e+18
14264.0	2.1802028346900477e+18
14265.0	2.179771770968473e+18
14266.0	2.179269187652812e+18
14267.0	2.1787551891193853e+18
14268.0	2.178236729524224e+18
14269.0	2.1777036469075965e+18
14270.0	2.177209398512844e+18
14271.0	2.1766765323223037e+18
14272.0	2.1761776399941627e+18
14273.0	2.1756611550773243e+18
14274.0	2.1742557847355392e+18
14275.0	2.1745528605769728e+18
14276.0	2.174022948854169e+18
14277.0	2.1735441086545915e+18
14278.0	2.1730882381414395e+18
14279.0	2.1725730299707387e+18
14280.0	2.17204264009728e+18
14281.0	2.1715452291973112e+18
14282.0	2.1710317960560632e+18
14283.0	2.170517844498841e+18
14284.0	2.1700040120598525e+18
14285.0	2.1694900487585787e+18
14286.0	2.1689703677820925e+18
14287.0	2.1684243851640827e+18
14288.0	2.1679109469896696e+18
14289.0	2.165642449282657e+18
14290.0	2.1668668488286203e+18
14291.0	2.16637013753856e+18
14292.0	2.1658565987008504e+18
14293.0	2.1653448030158845e+18
14294.0	2.164543994619494e+18
14295.0	2.164287222684057e+18
14296.0	2.162380361223374e+18
14297.0	2.1632992661209083e+18
14298.0	2.1624200091402237e+18
14299.0	2.16223605367767e+18
14300.0	2.1617410150760443e+18
14301.0	2.161231635310182e+18
14302.0	2.1607318219128827e+18
14303.0	2.1601475016785917e+18
14304.0	2.159681668854579e+18
14305.0	2.159192166734233e+18
14306.0	2.158502842938163e+18
14307.0	2.158133502594252e+18
14308.0	2.157666547374489e+18
14309.0	2.157141405414195e+18
14310.0	2.1557846101458934e+18
14311.0	2.1559549005660155e+18
14312.0	2.1555187617366008e+18
14313.0	2.1550008675336187e+18
14314.0	2.1545992595701755e+18
14315.0	2.154096827249459e+18
14316.0	2.1534795230085117e+18
14317.0	2.1529785486278653e+18
14318.0	2.1525722833092605e+18
14319.0	2.1520647674920955e+18
14320.0	2.1515552585416701e+18
14321.0	2.151035220210483e+18
14322.0	2.1504375738335227e+18
14323.0	2.1499985409343483e+18
14324.0	2.1495204305436667e+18
14325.0	2.1489888125779965e+18
14326.0	2.1485051808055293e+18
14327.0	2.1479794147328e+18
14328.0	2.14746992255959e+18
14329.0	2.1469806452539387e+18
14330.0	2.1464706531196925e+18
14331.0	2.145956676396646e+18
14332.0	2.1454543648718843e+18
14333.0	2.144948934462668e+18
14334.0	2.1444424823209981e+18
14335.0	2.143896974498201e+18
14336.0	2.143353451420057e+18
14337.0	2.1429128766947325e+18
14338.0	2.1424075956027387e+18
14339.0	2.1418769943363581e+18
14340.0	2.1414005465677821e+18
14341.0	2.1408862225563643e+18
14342.0	2.1403574248407037e+18
14343.0	2.1398055131545595e+18
14344.0	2.1393089176272896e+18
14345.0	2.1388316880404477e+18
14346.0	2.1383225716768765e+18
14347.0	2.1377892961222653e+18
14348.0	2.1373114105462776e+18
14349.0	2.1368117783429115e+18
14350.0	2.136270786946662e+18
14351.0	2.1357513676947453e+18
14352.0	2.1352767066996733e+18
14353.0	2.1347867599831035e+18
14354.0	2.1342770111184893e+18
14355.0	2.1337685775876093e+18
14356.0	2.1332680192819195e+18
14357.0	2.1327719102939133e+18
14358.0	2.1322658591277048e+18
14359.0	2.1317245439311872e+18
14360.0	2.1312548506697725e+18
14361.0	2.1307537420713981e+18
14362.0	2.1302483989037053e+18
14363.0	2.1297459951042557e+18
14364.0	2.129115945212313e+18
14365.0	2.1287226251935734e+18
14366.0	2.1282134719201277e+18
14367.0	2.1277290264526843e+18
14368.0	2.127225070760755e+18
14369.0	2.1267260895133693e+18
14370.0	2.1262231236771837e+18
14371.0	2.1257203658784765e+18
14372.0	2.1252028088975355e+18
14373.0	2.1247141204721661e+18
14374.0	2.1242091615027192e+18
14375.0	2.1237045481439227e+18
14376.0	2.123205248129433e+18
14377.0	2.1227037536550904e+18
14378.0	2.1221972880916477e+18
14379.0	2.1217008368484347e+18
14380.0	2.1211981511917563e+18
14381.0	2.1206682713456635e+18
14382.0	2.120191197786931e+18
14383.0	2.1196329543794683e+18
14384.0	2.1191387982594045e+18
14385.0	2.1186910143643643e+18
14386.0	2.1181471825854461e+18
14387.0	2.117684497167155e+18
14388.0	2.1171769796722683e+18
14389.0	2.1166858669391867e+18
14390.0	2.1161812401586173e+18
14391.0	2.1156836581310461e+18
14392.0	2.115166908134195e+18
14393.0	2.114684413856972e+18
14394.0	2.1140989242507261e+18
14395.0	2.1136338866667517e+18
14396.0	2.113182141671014e+18
14397.0	2.1126837241380861e+18
14398.0	2.112169376638566e+18
14399.0	2.1116771331211261e+18
14400.0	2.1111338986110973e+18
14401.0	2.110670223337062e+18
14402.0	2.110174480092365e+18
14403.0	2.098620615412922e+18
14404.0	2.0805602796109768e+18
14405.0	2.106199065074063e+18
14406.0	2.1081512753496061e+18
14407.0	2.090496475057365e+18
14408.0	2.1070729114025976e+18
14409.0	2.106602525242163e+18
14410.0	2.1061291477041147e+18
14411.0	2.10564197426135e+18
14412.0	2.105136488487321e+18
14413.0	2.1046453002567677e+18
14414.0	2.1041446630981624e+18
14415.0	2.103649248686899e+18
14416.0	2.103140860454502e+18
14417.0	2.1025993925853181e+18
14418.0	2.1020656841785344e+18
14419.0	2.1016565398896635e+18
14420.0	2.1011482942636027e+18
14421.0	2.100662224761651e+18
14422.0	2.1001529087492093e+18
14423.0	2.099634863551283e+18
14424.0	2.0399565395984044e+18
14425.0	2.0986480411279357e+18
14426.0	2.0981759369805821e+18
14427.0	2.0976815627567101e+18
14428.0	2.0971204672225277e+18
14429.0	2.096683573418393e+18
14430.0	2.0961933951762427e+18
14431.0	2.095505937006592e+18
14432.0	2.0951341287342075e+18
14433.0	2.0816892822290345e+18
14434.0	2.0941724117368827e+18
14435.0	2.093663902708531e+18
14436.0	2.093215816823603e+18
14437.0	2.0927176962473981e+18
14438.0	2.0917975599022077e+18
14439.0	2.0916166427934712e+18
14440.0	2.091230672873062e+18
14441.0	2.0907264521011197e+18
14442.0	2.0902222380400635e+18
14443.0	2.0896484404756477e+18
14444.0	2.0892418412904445e+18
14445.0	2.0887541863415803e+18
14446.0	2.0742896240033853e+18
14447.0	2.0877329404264443e+18
14448.0	2.0872719226634237e+18
14449.0	2.0867776574914557e+18
14450.0	2.0862684303982587e+18
14451.0	2.0857766549651448e+18
14452.0	2.0852776015757304e+18
14453.0	2.0845086464016381e+18
14454.0	2.0843005082599421e+18
14455.0	2.0837903198322688e+18
14456.0	2.083243543651942e+18
14457.0	2.0827084511248381e+18
14458.0	2.0822875946614776e+18
14459.0	2.081774711812915e+18
14460.0	2.081315497600614e+18
14461.0	2.0807627571199992e+18
14462.0	2.0801860453531643e+18
14463.0	2.0798157956841472e+18
14464.0	2.0793433878691835e+18
14465.0	2.0788192911294461e+18
14466.0	2.0783530338418688e+18
14467.0	2.0776475317764096e+18
14468.0	2.077350120390656e+18
14469.0	2.0768385511981053e+18
14470.0	2.076327970183577e+18
14471.0	2.0758647764156416e+18
14472.0	2.075383974959513e+18
14473.0	2.0749131291033597e+18
14474.0	2.0744252208185336e+18
14475.0	2.073915775621529e+18
14476.0	2.0725626495303683e+18
14477.0	2.0729463461380093e+18
14478.0	2.0724467021905915e+18
14479.0	2.0719519471239163e+18
14480.0	2.071434975667814e+18
14481.0	2.0709820311011325e+18
14482.0	2.0704828049063933e+18
14483.0	2.0699726584217597e+18
14484.0	2.0694606815428605e+18
14485.0	2.0688844529598461e+18
14486.0	2.067849233301504e+18
14487.0	2.0679965708124152e+18
14488.0	2.06745020399616e+18
14489.0	2.066994264696422e+18
14490.0	2.06650493370368e+18
14491.0	2.0660281537462267e+18
14492.0	2.06554124035031e+18
14493.0	2.0650297097453565e+18
14494.0	2.0645119564709883e+18
14495.0	2.064066008003379e+18
14496.0	2.063283053920256e+18
14497.0	2.0630780648620027e+18
14498.0	2.0625869890387963e+18
14499.0	2.0621036626116603e+18
14500.0	2.0616125934993403e+18
14501.0	2.0606816056508416e+18
14502.0	2.0597907807797253e+18
14503.0	2.0600776577515515e+18
14504.0	2.0596352039780347e+18
14505.0	2.0587450971717622e+18
14506.0	2.057731043649126e+18
14507.0	2.0576556149637117e+18
14508.0	2.05768782554071e+18
14509.0	2.0571963940405243e+18
14510.0	2.0567036052635645e+18
14511.0	2.0562188880052221e+18
14512.0	2.055688840386969e+18
14513.0	2.0552384476348416e+18
14514.0	2.0546320972382208e+18
14515.0	2.0542514456952827e+18
14516.0	2.049549399385706e+18
14517.0	2.0532770484781053e+18
14518.0	2.05278770406359e+18
14519.0	2.052294727381811e+18
14520.0	2.0518073006030843e+18
14521.0	2.0513141695709181e+18
14522.0	2.0508211106807803e+18
14523.0	2.0493690275364854e+18
14524.0	2.0488228553359347e+18
14525.0	2.0493462256222205e+18
14526.0	2.0488633572130808e+18
14527.0	2.0483152237559803e+18
14528.0	2.047608381190963e+18
14529.0	2.04737671635927e+18
14530.0	2.0468648065892347e+18
14531.0	2.0464148081016827e+18
14532.0	2.044532731622195e+18
14533.0	2.0454384227844093e+18
14534.0	2.044952982428057e+18
14535.0	2.0444361535782912e+18
14536.0	2.0439635947683837e+18
14537.0	2.0434502857785344e+18
14538.0	2.0429929858465784e+18
14539.0	2.0425031062388733e+18
14540.0	2.04201677333463e+18
14541.0	2.041470562546483e+18
14542.0	2.0410269008134136e+18
14543.0	2.0399096724455414e+18
14544.0	2.0400530874433533e+18
14545.0	2.039547321489817e+18
14546.0	1.987751446996559e+18
14547.0	1.9921833230859994e+18
14548.0	2.0380678377963517e+18
14549.0	2.0373509221908477e+18
14550.0	2.0371007151800317e+18
14551.0	2.0366348974555133e+18
14552.0	2.0361356880379901e+18
14553.0	2.0356344989089787e+18
14554.0	2.0351657636265984e+18
14555.0	2.0346748455092224e+18
14556.0	2.0341625800622075e+18
14557.0	2.0336995842654203e+18
14558.0	2.033208716479692e+18
14559.0	2.0295582593580964e+18
14560.0	2.032184849963417e+18
14561.0	2.031728464389734e+18
14562.0	2.0311965461118973e+18
14563.0	2.0307596036538365e+18
14564.0	2.0302524384804864e+18
14565.0	2.0297867834949627e+18
14566.0	2.0292976118857725e+18
14567.0	2.028802266261094e+18
14568.0	2.0282571862573053e+18
14569.0	2.0278284377915387e+18
14570.0	2.0264250303840253e+18
14571.0	2.0268429726449661e+18
14572.0	2.0262627326296061e+18
14573.0	2.025763536633856e+18
14574.0	2.0253086526210045e+18
14575.0	2.0248524633407483e+18
14576.0	2.0243609294995453e+18
14577.0	2.023862664639283e+18
14578.0	2.0233896679440381e+18
14579.0	2.0229032410873848e+18
14580.0	2.022414681846579e+18
14581.0	2.021890920651161e+18
14582.0	2.0214315789320187e+18
14583.0	2.0209444021338112e+18
14584.0	2.0204266673143805e+18
14585.0	2.0199634785796093e+18
14586.0	2.0194658126659581e+18
14587.0	2.018962694157107e+18
14588.0	2.0184710630080512e+18
14589.0	2.0180043359584253e+18
14590.0	2.0175331881123837e+18
14591.0	2.0170505982050296e+18
14592.0	2.016568115671859e+18
14593.0	2.0158603402936315e+18
14594.0	2.0156330509598715e+18
14595.0	2.0151464345206776e+18
14596.0	2.0145230166622203e+18
14597.0	2.0141088912179197e+18
14598.0	2.0137308132999163e+18
14599.0	2.0132705320566776e+18
14600.0	2.0127951412527101e+18
14601.0	2.0123203561062397e+18
14602.0	2.0118151656112128e+18
14603.0	2.0113682977521661e+18
14604.0	2.0108042947264507e+18
14605.0	2.0104001903132672e+18
14606.0	2.0098161586470907e+18
14607.0	2.00947027452887e+18
14608.0	2.0089901441613821e+18
14609.0	2.0084321876443133e+18
14610.0	2.0080129787035643e+18
14611.0	2.0075624248901627e+18
14612.0	2.0070981439586301e+18
14613.0	2.006628141996441e+18
14614.0	2.0061452031229947e+18
14615.0	2.0056669971021821e+18
14616.0	2.005200627407257e+18
14617.0	2.0047220606763003e+18
14618.0	2.004207510172467e+18
14619.0	2.003711151203942e+18
14620.0	2.0030025050882045e+18
14621.0	2.0028168400273405e+18
14622.0	2.0023173286199293e+18
14623.0	2.001837040546611e+18
14624.0	2.001231347816857e+18
14625.0	2.0008735434866688e+18
14626.0	2.000372028879667e+18
14627.0	1.999867742676582e+18
14628.0	1.999446270489395e+18
14629.0	1.998966913551565e+18
14630.0	1.998484504838144e+18
14631.0	1.9979985427103736e+18
14632.0	1.9917363579191324e+18
14633.0	1.9964330657185764e+18
14634.0	1.9965451459100672e+18
14635.0	1.99593666145157e+18
14636.0	1.995075149732249e+18
14637.0	1.9951237516492797e+18
14638.0	1.9946316423495675e+18
14639.0	1.994137940892057e+18
14640.0	1.99366442745856e+18
14641.0	1.9721741559398246e+18
14642.0	1.9926903372644347e+18
14643.0	1.9922061602324477e+18
14644.0	1.9916964516331515e+18
14645.0	1.9911849998811133e+18
14646.0	1.990714655663718e+18
14647.0	1.990233480075673e+18
14648.0	1.9897824615333883e+18
14649.0	1.9893024704167928e+18
