# Flux units: erg / (cm m2 s)
# Wavelength units: Angstrom
wave	flux
14000.0	1.8808931639885816e+18
14001.0	1.8804451603120125e+18
14002.0	1.8801590416703483e+18
14003.0	1.8797867216928765e+18
14004.0	1.8794118297681917e+18
14005.0	1.8790368791232507e+18
14006.0	1.8786552226250747e+18
14007.0	1.8782794515742715e+18
14008.0	1.877824565883699e+18
14009.0	1.8775361907064824e+18
14010.0	1.8771514522337277e+18
14011.0	1.8762300995403773e+18
14012.0	1.876414180832051e+18
14013.0	1.8760403391610877e+18
14014.0	1.8756610717384704e+18
14015.0	1.8752899295215616e+18
14016.0	1.87491800884183e+18
14017.0	1.8745441839480827e+18
14018.0	1.8741701862490107e+18
14019.0	1.8737966331461627e+18
14020.0	1.873422348556697e+18
14021.0	1.8730481361092603e+18
14022.0	1.87267394043904e+18
14023.0	1.8722896197189632e+18
14024.0	1.8719149224099835e+18
14025.0	1.8715556265852928e+18
14026.0	1.8711811591241725e+18
14027.0	1.8708098927558653e+18
14028.0	1.8704369687986176e+18
14029.0	1.870063764661862e+18
14030.0	1.8692036756504576e+18
14031.0	1.8690840423563256e+18
14032.0	1.8686749584654333e+18
14033.0	1.8682660507353088e+18
14034.0	1.8679320784404477e+18
14035.0	1.8675608707923965e+18
14036.0	1.8671888544825341e+18
14037.0	1.8668168583053312e+18
14038.0	1.8664449208483837e+18
14039.0	1.8660693880340477e+18
14040.0	1.8656941370769403e+18
14041.0	1.8653261741424635e+18
14042.0	1.864946881554022e+18
14043.0	1.864550892280217e+18
14044.0	1.864204514911846e+18
14045.0	1.863840179211468e+18
14046.0	1.8634687786254333e+18
14047.0	1.8630947624714235e+18
14048.0	1.862728515846144e+18
14049.0	1.8623593818619904e+18
14050.0	1.8619885131137021e+18
14051.0	1.8616099000025083e+18
14052.0	1.861246846081433e+18
14053.0	1.860876321266073e+18
14054.0	1.860505831682867e+18
14055.0	1.8601353840427003e+18
14056.0	1.8597649850564605e+18
14057.0	1.8593947320319997e+18
14058.0	1.8590245310169083e+18
14059.0	1.8586544289873915e+18
14060.0	1.85828440581079e+18
14061.0	1.8579084032344061e+18
14062.0	1.857544589305446e+18
14063.0	1.857160813844889e+18
14064.0	1.8567182963179517e+18
14065.0	1.8564278776758272e+18
14066.0	1.8560660568801277e+18
14067.0	1.8556911163015165e+18
14068.0	1.855327324182937e+18
14069.0	1.8549564520792061e+18
14070.0	1.8545885562535933e+18
14071.0	1.8542172261318656e+18
14072.0	1.8538507949572093e+18
14073.0	1.8534819008872443e+18
14074.0	1.8531131628453883e+18
14075.0	1.8527289226559483e+18
14076.0	1.8523690345955328e+18
14077.0	1.8518961670848512e+18
14078.0	1.8516303354527736e+18
14079.0	1.851261334008627e+18
14080.0	1.850902091871027e+18
14081.0	1.850533885666918e+18
14082.0	1.85016163279831e+18
14083.0	1.8497963961614333e+18
14084.0	1.8494295405232125e+18
14085.0	1.8488048660512765e+18
14086.0	1.848684731118387e+18
14087.0	1.8483263714623483e+18
14088.0	1.8479479462559741e+18
14089.0	1.847586251289395e+18
14090.0	1.8472220078637056e+18
14091.0	1.8468565145354235e+18
14092.0	1.8464892814098427e+18
14093.0	1.8461221002936315e+18
14094.0	1.8457549778976765e+18
14095.0	1.8453878806675453e+18
14096.0	1.8449960437547008e+18
14097.0	1.844641818004684e+18
14098.0	1.8442769521442813e+18
14099.0	1.8439207047397376e+18
14100.0	1.843543334820249e+18
14101.0	1.8431877719261181e+18
14102.0	1.8428211427803133e+18
14103.0	1.8424416505430013e+18
14104.0	1.8420888072355837e+18
14105.0	1.841722194866995e+18
14106.0	1.841356468335411e+18
14107.0	1.840989213399449e+18
14108.0	1.8406144204603387e+18
14109.0	1.8402543579168765e+18
14110.0	1.8398876314632187e+18
14111.0	1.839515595020697e+18
14112.0	1.8391549083648e+18
14113.0	1.8387962030981115e+18
14114.0	1.838419237509529e+18
14115.0	1.8380641343111165e+18
14116.0	1.8376751478472696e+18
14117.0	1.8364915840450555e+18
14118.0	1.8369693907681277e+18
14119.0	1.836587232631193e+18
14120.0	1.8362285995065336e+18
14121.0	1.835863255495475e+18
14122.0	1.835492428690227e+18
14123.0	1.835132624515891e+18
14124.0	1.834766173208576e+18
14125.0	1.8340008083587064e+18
14126.0	1.834052440240947e+18
14127.0	1.833688549136793e+18
14128.0	1.8333232202252285e+18
14129.0	1.8329494708289533e+18
14130.0	1.8325779444137981e+18
14131.0	1.8322323908067325e+18
14132.0	1.8318633943957504e+18
14133.0	1.8310175676956662e+18
14134.0	1.831140397049446e+18
14135.0	1.8307632804659197e+18
14136.0	1.8303906652094461e+18
14137.0	1.8300483747708928e+18
14138.0	1.8296771016916987e+18
14139.0	1.8293232232300536e+18
14140.0	1.828952312538726e+18
14141.0	1.8285920067256315e+18
14142.0	1.8281664375422976e+18
14143.0	1.827864956003942e+18
14144.0	1.8275087371206653e+18
14145.0	1.8271459549904893e+18
14146.0	1.8267818139058176e+18
14147.0	1.826419377386291e+18
14148.0	1.826055536613785e+18
14149.0	1.8256933450416125e+18
14150.0	1.8253335056351232e+18
14151.0	1.8249652071563261e+18
14152.0	1.8246091426234365e+18
14153.0	1.824246912463667e+18
14154.0	1.823862566577766e+18
14155.0	1.823465621002649e+18
14156.0	1.823150544886169e+18
14157.0	1.8227994816413688e+18
14158.0	1.8224340621328381e+18
14159.0	1.8220759625236477e+18
14160.0	1.821707033221529e+18
14161.0	1.821301583275622e+18
14162.0	1.8208965275942907e+18
14163.0	1.8206290299846656e+18
14164.0	1.8202340775428093e+18
14165.0	1.819820923499315e+18
14166.0	1.8195449030639608e+18
14167.0	1.8191737205817341e+18
14168.0	1.8188225549959168e+18
14169.0	1.8184648949497853e+18
14170.0	1.8181004703301627e+18
14171.0	1.8177410486763515e+18
14172.0	1.81738307321856e+18
14173.0	1.8169729424293885e+18
14174.0	1.8166572187123712e+18
14175.0	1.8163021155139584e+18
14176.0	1.8159419489517565e+18
14177.0	1.8155818595647485e+18
14178.0	1.815220508531097e+18
14179.0	1.8144138851516413e+18
14180.0	1.8140205080903677e+18
14181.0	1.8136605462102013e+18
14182.0	1.813299953506713e+18
14183.0	1.8129408690749437e+18
14184.0	1.8125765501517821e+18
14185.0	1.8122212976361472e+18
14186.0	1.8116938387423227e+18
14187.0	1.811480497985945e+18
14188.0	1.8111420579184635e+18
14189.0	1.8107816011104253e+18
14190.0	1.8104230988480507e+18
14191.0	1.8100635463319547e+18
14192.0	1.8096987660353533e+18
14193.0	1.809321741726515e+18
14194.0	1.8089863165247485e+18
14195.0	1.8086297000214528e+18
14196.0	1.8082707212861435e+18
14197.0	1.807866833299046e+18
14198.0	1.8074993652924416e+18
14199.0	1.8071424669319165e+18
14200.0	1.8066940052373504e+18
14201.0	1.8064218301399037e+18
14202.0	1.806069627722137e+18
14203.0	1.8057002991222781e+18
14204.0	1.8053503733727227e+18
14205.0	1.8049923459055608e+18
14206.0	1.80452383040471e+18
14207.0	1.8042785223409661e+18
14208.0	1.8039208438398976e+18
14209.0	1.8034452802306045e+18
14210.0	1.8031193106677752e+18
14211.0	1.8028432046686203e+18
14212.0	1.80248921547735e+18
14213.0	1.8021314765783037e+18
14214.0	1.801774329914982e+18
14215.0	1.8014068082212861e+18
14216.0	1.8010563036577787e+18
14217.0	1.800654282974822e+18
14218.0	1.800286648873779e+18
14219.0	1.799939779932979e+18
14220.0	1.7995827859423224e+18
14221.0	1.7992237216432125e+18
14222.0	1.798852810951884e+18
14223.0	1.79851137950679e+18
14224.0	1.798154932453376e+18
14225.0	1.797512037924864e+18
14226.0	1.7974397583228928e+18
14227.0	1.797084972213862e+18
14228.0	1.7960345926631421e+18
14229.0	1.7962095924477947e+18
14230.0	1.7960157954703355e+18
14231.0	1.795650481658265e+18
14232.0	1.7953032184528896e+18
14233.0	1.7949428052656125e+18
14234.0	1.7945912689033216e+18
14235.0	1.7942330317209597e+18
14236.0	1.7938792941879293e+18
14237.0	1.793522385761075e+18
14238.0	1.793167433557606e+18
14239.0	1.7927939458859005e+18
14240.0	1.7909815669948416e+18
14241.0	1.7920518879444987e+18
14242.0	1.7916968669544443e+18
14243.0	1.791201950826496e+18
14244.0	1.7909860901322752e+18
14245.0	1.790615258293862e+18
14246.0	1.79025606648791e+18
14247.0	1.7899162255228923e+18
14248.0	1.789550690251571e+18
14249.0	1.7892084149125117e+18
14250.0	1.7888532630601723e+18
14251.0	1.7885006261125115e+18
14252.0	1.7881457242406912e+18
14253.0	1.7877902250999805e+18
14254.0	1.7874341505007608e+18
14255.0	1.7870516618526717e+18
14256.0	1.7864349028712448e+18
14257.0	1.7862433825619965e+18
14258.0	1.785863836637593e+18
14259.0	1.7854923504877563e+18
14260.0	1.7851432199782397e+18
14261.0	1.7847840902479872e+18
14262.0	1.784466252601753e+18
14263.0	1.7836864308248576e+18
14264.0	1.7836585621913597e+18
14265.0	1.783355290524057e+18
14266.0	1.7830054704709632e+18
14267.0	1.7826518369566715e+18
14268.0	1.7822982286082048e+18
14269.0	1.781942315070259e+18
14270.0	1.7815910655983608e+18
14271.0	1.7812363063328768e+18
14272.0	1.7808840267399163e+18
14273.0	1.7805290040721403e+18
14274.0	1.7795210591338493e+18
14275.0	1.7797641257615355e+18
14276.0	1.7794548814053376e+18
14277.0	1.7791031739154432e+18
14278.0	1.778765170055577e+18
14279.0	1.7784112311959544e+18
14280.0	1.7780534637756413e+18
14281.0	1.7777070360756221e+18
14282.0	1.7773546826629115e+18
14283.0	1.777002124568166e+18
14284.0	1.7766496134496253e+18
14285.0	1.7762970117341181e+18
14286.0	1.7759436483330043e+18
14287.0	1.7755924877803523e+18
14288.0	1.7752399380742144e+18
14289.0	1.773972971375819e+18
14290.0	1.7745340719431675e+18
14291.0	1.7741832435793915e+18
14292.0	1.773812817749606e+18
14293.0	1.773432959768985e+18
14294.0	1.772958342394675e+18
14295.0	1.7727192402231293e+18
14296.0	1.7716405608644608e+18
14297.0	1.772025051034419e+18
14298.0	1.771485541066342e+18
14299.0	1.7713117005873147e+18
14300.0	1.7709662577098747e+18
14301.0	1.7706172261859325e+18
14302.0	1.770267850729062e+18
14303.0	1.76988704819118e+18
14304.0	1.7695512757010427e+18
14305.0	1.7692140654034941e+18
14306.0	1.7688422571311104e+18
14307.0	1.7685031912734715e+18
14308.0	1.7681608907685885e+18
14309.0	1.767805973797273e+18
14310.0	1.767355272344371e+18
14311.0	1.7670000500277248e+18
14312.0	1.7667120204611581e+18
14313.0	1.7663170260762621e+18
14314.0	1.766053700960256e+18
14315.0	1.7657075198853117e+18
14316.0	1.7653107722813437e+18
14317.0	1.7649945418924027e+18
14318.0	1.7646578902761472e+18
14319.0	1.7643084057673725e+18
14320.0	1.7639579783790595e+18
14321.0	1.7636085307801597e+18
14322.0	1.7632233829433341e+18
14323.0	1.7628905598877693e+18
14324.0	1.7625392416292867e+18
14325.0	1.7621564962897917e+18
14326.0	1.7618153534128125e+18
14327.0	1.76145973683159e+18
14328.0	1.7611100191195133e+18
14329.0	1.7607664703897597e+18
14330.0	1.7604169456156672e+18
14331.0	1.7600672161595387e+18
14332.0	1.7597180621619197e+18
14333.0	1.7593687991123965e+18
14334.0	1.759019571295027e+18
14335.0	1.7586576783572987e+18
14336.0	1.7582878497964027e+18
14337.0	1.7579717183930365e+18
14338.0	1.7576213480472576e+18
14339.0	1.7572642852700157e+18
14340.0	1.7569251002941437e+18
14341.0	1.7565745420435456e+18
14342.0	1.7562279985807352e+18
14343.0	1.7558750915198976e+18
14344.0	1.7555255751344125e+18
14345.0	1.7551823434940416e+18
14346.0	1.7548309010841597e+18
14347.0	1.7544663036592125e+18
14348.0	1.7541365407678461e+18
14349.0	1.753789129922969e+18
14350.0	1.7534177863794688e+18
14351.0	1.753062820754227e+18
14352.0	1.7522101237841923e+18
14353.0	1.7518519906205693e+18
14354.0	1.7515020933922816e+18
14355.0	1.7511492802838525e+18
14356.0	1.750803475018547e+18
14357.0	1.7504623757623293e+18
14358.0	1.7501143156391933e+18
14359.0	1.749753716224819e+18
14360.0	1.74941692535767e+18
14361.0	1.7490334585978875e+18
14362.0	1.7486790650757117e+18
14363.0	1.7483311945351165e+18
14364.0	1.747911707092582e+18
14365.0	1.747620018415206e+18
14366.0	1.747275677800857e+18
14367.0	1.7469418766335995e+18
14368.0	1.7465941285666813e+18
14369.0	1.7462474022322176e+18
14370.0	1.7459003101544443e+18
14371.0	1.7455533288062976e+18
14372.0	1.7452015223308285e+18
14373.0	1.744859062442393e+18
14374.0	1.7445119250661379e+18
14375.0	1.74416397902807e+18
14376.0	1.7438188029083643e+18
14377.0	1.7434715095039995e+18
14378.0	1.7431229628415997e+18
14379.0	1.7427788084543488e+18
14380.0	1.7424308909375488e+18
14381.0	1.7420756988198907e+18
14382.0	1.7417379164192765e+18
14383.0	1.741386849819033e+18
14384.0	1.7410297568428032e+18
14385.0	1.7407004771352576e+18
14386.0	1.740341117557145e+18
14387.0	1.7400080025780224e+18
14388.0	1.739660182369075e+18
14389.0	1.739315788067635e+18
14390.0	1.7389683755450365e+18
14391.0	1.7386241188167675e+18
14392.0	1.7382766995832827e+18
14393.0	1.737932966304153e+18
14394.0	1.737553537820262e+18
14395.0	1.7372302442233853e+18
14396.0	1.7368959699386365e+18
14397.0	1.7365506109472765e+18
14398.0	1.7362042671333368e+18
14399.0	1.7358595658088443e+18
14400.0	1.735496973261209e+18
14401.0	1.7351622795460605e+18
14402.0	1.734778289337139e+18
14403.0	1.7328263508525036e+18
14404.0	1.7288841010348017e+18
14405.0	1.7321764921016292e+18
14406.0	1.7333974657400832e+18
14407.0	1.7308537696813059e+18
14408.0	1.732685833279897e+18
14409.0	1.7323460007034875e+18
14410.0	1.732013420917555e+18
14411.0	1.7316738014117885e+18
14412.0	1.731326729466675e+18
14413.0	1.7309855530352637e+18
14414.0	1.730638502900531e+18
14415.0	1.7302949407490043e+18
14416.0	1.7299493418434557e+18
14417.0	1.7295982802763768e+18
14418.0	1.7292439337304061e+18
14419.0	1.728916345166233e+18
14420.0	1.7285685216018424e+18
14421.0	1.7282284524666877e+18
14422.0	1.7278801155194877e+18
14423.0	1.727528527147827e+18
14424.0	1.7182628348166103e+18
14425.0	1.7268409649594365e+18
14426.0	1.7265077677719552e+18
14427.0	1.7261646669938688e+18
14428.0	1.725801653338112e+18
14429.0	1.7254716018786296e+18
14430.0	1.7251332238868475e+18
14431.0	1.7246600459976704e+18
14432.0	1.7244382193254397e+18
14433.0	1.7224364139216888e+18
14434.0	1.723741479999897e+18
14435.0	1.7233890578006008e+18
14436.0	1.7230713761824765e+18
14437.0	1.722728030457036e+18
14438.0	1.7223327357599736e+18
14439.0	1.7220279407214587e+18
14440.0	1.7216971040882688e+18
14441.0	1.7213460559429632e+18
14442.0	1.720998561212006e+18
14443.0	1.720617537214873e+18
14444.0	1.720319969801011e+18
14445.0	1.71998117405655e+18
14446.0	1.7173487768567816e+18
14447.0	1.7192791633297403e+18
14448.0	1.718953086392729e+18
14449.0	1.7186104184668157e+18
14450.0	1.7182627324755963e+18
14451.0	1.7178946705555453e+18
14452.0	1.7175371581489147e+18
14453.0	1.7171682171027453e+18
14454.0	1.7168532366163965e+18
14455.0	1.7165054801608704e+18
14456.0	1.7161613928824827e+18
14457.0	1.715815765455667e+18
14458.0	1.7154799074017275e+18
14459.0	1.7151352094326784e+18
14460.0	1.71479223280599e+18
14461.0	1.7144219747483643e+18
14462.0	1.7140125486022653e+18
14463.0	1.7137577597337597e+18
14464.0	1.713424765550592e+18
14465.0	1.7130622485004288e+18
14466.0	1.7127428858052603e+18
14467.0	1.7123648968065021e+18
14468.0	1.7120525335658493e+18
14469.0	1.7116881425006587e+18
14470.0	1.711346766420377e+18
14471.0	1.7110211777003515e+18
14472.0	1.7106837123891197e+18
14473.0	1.7103465926885376e+18
14474.0	1.7100059732606976e+18
14475.0	1.7096599750574072e+18
14476.0	1.7092169810575357e+18
14477.0	1.708980900462592e+18
14478.0	1.708639521026867e+18
14479.0	1.7082963179077627e+18
14480.0	1.7079397500583933e+18
14481.0	1.7076148911472635e+18
14482.0	1.7066362073513984e+18
14483.0	1.7062550323593213e+18
14484.0	1.7059117906526205e+18
14485.0	1.7055464533524477e+18
14486.0	1.7049542612484096e+18
14487.0	1.7048964687724541e+18
14488.0	1.7045461923790848e+18
14489.0	1.7042029724827643e+18
14490.0	1.7038676043235325e+18
14491.0	1.703530045059891e+18
14492.0	1.703190011156889e+18
14493.0	1.7028443501756419e+18
14494.0	1.7024873394077693e+18
14495.0	1.7021654299312125e+18
14496.0	1.7016956511059965e+18
14497.0	1.7014815570526203e+18
14498.0	1.7011413151121403e+18
14499.0	1.700800392016691e+18
14500.0	1.7004587844108288e+18
14501.0	1.7000663737171963e+18
14502.0	1.6995334035079168e+18
14503.0	1.6994169058754557e+18
14504.0	1.6990880892190715e+18
14505.0	1.6987055837937656e+18
14506.0	1.698316827177779e+18
14507.0	1.6978108481536e+18
14508.0	1.697686983645593e+18
14509.0	1.6973460118962176e+18
14510.0	1.697001944750489e+18
14511.0	1.6966634056974333e+18
14512.0	1.6963074820931581e+18
14513.0	1.695981363213107e+18
14514.0	1.6956060770238461e+18
14515.0	1.6952982201434112e+18
14516.0	1.692637836869633e+18
14517.0	1.6946149529223165e+18
14518.0	1.6942760548368381e+18
14519.0	1.6939353263570941e+18
14520.0	1.693594409972531e+18
14521.0	1.6932524752109565e+18
14522.0	1.692911199793971e+18
14523.0	1.6924576529252347e+18
14524.0	1.69212109693911e+18
14525.0	1.6918845063167995e+18
14526.0	1.691549191844659e+18
14527.0	1.6911803950825467e+18
14528.0	1.690745603463577e+18
14529.0	1.6905154435481597e+18
14530.0	1.690169165165363e+18
14531.0	1.689842693963776e+18
14532.0	1.6893552235642875e+18
14533.0	1.689162070831923e+18
14534.0	1.688823620698112e+18
14535.0	1.688472711803699e+18
14536.0	1.688138608646553e+18
14537.0	1.687789828780851e+18
14538.0	1.6874611144654848e+18
14539.0	1.6871206661652475e+18
14540.0	1.6867801021022205e+18
14541.0	1.686418282984243e+18
14542.0	1.68609695399936e+18
14543.0	1.6856818252775421e+18
14544.0	1.6854170254442496e+18
14545.0	1.6850699065229304e+18
14546.0	1.6735053782450125e+18
14547.0	1.674127967308998e+18
14548.0	1.6840408491360256e+18
14549.0	1.683599274488627e+18
14550.0	1.6833687605739515e+18
14551.0	1.6830342866403325e+18
14552.0	1.6826919727136765e+18
14553.0	1.6823457329184763e+18
14554.0	1.6820127722897403e+18
14555.0	1.6816717518864384e+18
14556.0	1.6813289329655805e+18
14557.0	1.6809909475606525e+18
14558.0	1.6806494506844152e+18
14559.0	1.6786011757477865e+18
14560.0	1.6799627273568253e+18
14561.0	1.6796217371525115e+18
14562.0	1.6792640217415677e+18
14563.0	1.6789458250629115e+18
14564.0	1.6785948272492544e+18
14565.0	1.6782659904602107e+18
14566.0	1.677925298890342e+18
14567.0	1.6775837902700536e+18
14568.0	1.6772270127054843e+18
14569.0	1.676902360154112e+18
14570.0	1.6760826539016187e+18
14571.0	1.6762180913332221e+18
14572.0	1.675769104511795e+18
14573.0	1.6749891048964088e+18
14574.0	1.6742885940527104e+18
14575.0	1.6739716422434813e+18
14576.0	1.6736282948403197e+18
14577.0	1.6732863751782395e+18
14578.0	1.6729496715526141e+18
14579.0	1.672610412756992e+18
14580.0	1.6722693973868541e+18
14581.0	1.6719235770220541e+18
14582.0	1.6715860429242365e+18
14583.0	1.6712452691460093e+18
14584.0	1.6708907716050941e+18
14585.0	1.67056208077783e+18
14586.0	1.6702173526097915e+18
14587.0	1.669876887532339e+18
14588.0	1.6695371908513787e+18
14589.0	1.6692035473899515e+18
14590.0	1.66886997271511e+18
14591.0	1.668534819304243e+18
14592.0	1.6681969697947648e+18
14593.0	1.6677561165676541e+18
14594.0	1.6675340332040187e+18
14595.0	1.6671948331286528e+18
14596.0	1.6667918980874237e+18
14597.0	1.6664510320345085e+18
14598.0	1.6661896430092285e+18
14599.0	1.665864119720345e+18
14600.0	1.6655281123491837e+18
14601.0	1.6651949722042365e+18
14602.0	1.6648550003769344e+18
14603.0	1.66452614177751e+18
14604.0	1.6641478944096253e+18
14605.0	1.663841359573811e+18
14606.0	1.663459771862221e+18
14607.0	1.6631760070639613e+18
14608.0	1.6628511766740992e+18
14609.0	1.662510074062438e+18
14610.0	1.6621575528775675e+18
14611.0	1.6618427552628733e+18
14612.0	1.6615147757895677e+18
14613.0	1.6611808420823037e+18
14614.0	1.660842663739392e+18
14615.0	1.660509775252684e+18
14616.0	1.6601760378388475e+18
14617.0	1.6598404800970752e+18
14618.0	1.6594997348401147e+18
14619.0	1.659116216070963e+18
14620.0	1.6586626876571648e+18
14621.0	1.6584988799533053e+18
14622.0	1.65816045666304e+18
14623.0	1.6578275966976e+18
14624.0	1.657435459472588e+18
14625.0	1.657152770093875e+18
14626.0	1.656816636893593e+18
14627.0	1.6564758127837181e+18
14628.0	1.656146950828851e+18
14629.0	1.6558104434966525e+18
14630.0	1.6554720353058813e+18
14631.0	1.6551363852894203e+18
14632.0	1.6540892739403779e+18
14633.0	1.6543559712767995e+18
14634.0	1.6541220952080384e+18
14635.0	1.653697925244518e+18
14636.0	1.653254575567667e+18
14637.0	1.6531143381745661e+18
14638.0	1.652772698691993e+18
14639.0	1.6524264186314747e+18
14640.0	1.652095761514496e+18
14641.0	1.6489491342557166e+18
14642.0	1.6514178244149243e+18
14643.0	1.6510845483745277e+18
14644.0	1.65073557389312e+18
14645.0	1.6503841314832381e+18
14646.0	1.6500570831454203e+18
14647.0	1.6497113080791037e+18
14648.0	1.64938723098624e+18
