# Flux units: erg / (cm m2 s)
# Wavelength units: Angstrom
wave	flux
14000.0	1.948270015492915e+18
14001.0	1.947792846304051e+18
14002.0	1.9473191734870016e+18
14003.0	1.9468465375019005e+18
14004.0	1.9463752369831933e+18
14005.0	1.9459038961991675e+18
14006.0	1.9454319833120765e+18
14007.0	1.9449610938351616e+18
14008.0	1.9444808812593147e+18
14009.0	1.9440197913542653e+18
14010.0	1.9435477543157755e+18
14011.0	1.94302574633943e+18
14012.0	1.9426081329119232e+18
14013.0	1.9421379514335227e+18
14014.0	1.9416678286753787e+18
14015.0	1.9411976304197627e+18
14016.0	1.9407281166745597e+18
14017.0	1.9402583596597245e+18
14018.0	1.9397884466167805e+18
14019.0	1.9393190838665208e+18
14020.0	1.9388437987590141e+18
14021.0	1.9383745903591421e+18
14022.0	1.9379056470392832e+18
14023.0	1.9374363195211773e+18
14024.0	1.9369670842777597e+18
14025.0	1.9364995334668283e+18
14026.0	1.9360309022031872e+18
14027.0	1.9355627860000763e+18
14028.0	1.935094639597977e+18
14029.0	1.9346262566371325e+18
14030.0	1.9341354828038141e+18
14031.0	1.9336890410860544e+18
14032.0	1.933223339124326e+18
14033.0	1.932751545355468e+18
14034.0	1.932288573046784e+18
14035.0	1.9318214114672635e+18
14036.0	1.9313543471955963e+18
14037.0	1.9308854844063744e+18
14038.0	1.9304179872825336e+18
14039.0	1.9299484399828987e+18
14040.0	1.929477412932812e+18
14041.0	1.9290118703546363e+18
14042.0	1.9285451231723515e+18
14043.0	1.92807627212718e+18
14044.0	1.9276130984919035e+18
14045.0	1.9271482219692027e+18
14046.0	1.926682536784691e+18
14047.0	1.9262169153535997e+18
14048.0	1.925751569068851e+18
14049.0	1.9252863737790461e+18
14050.0	1.9248212590198784e+18
14051.0	1.924355427873587e+18
14052.0	1.923891432154726e+18
14053.0	1.9234266093191163e+18
14054.0	1.922962179070361e+18
14055.0	1.9224973260357632e+18
14056.0	1.9220334779564027e+18
14057.0	1.9215692842663933e+18
14058.0	1.9211053204242427e+18
14059.0	1.9206414471790587e+18
14060.0	1.9201777148624893e+18
14061.0	1.919713537949696e+18
14062.0	1.9192448144113661e+18
14063.0	1.918779615766118e+18
14064.0	1.9183148801720317e+18
14065.0	1.9178541845315581e+18
14066.0	1.9173918816337915e+18
14067.0	1.9169292197036032e+18
14068.0	1.91646657455063e+18
14069.0	1.9160039411417083e+18
14070.0	1.915541683542425e+18
14071.0	1.9150792111947768e+18
14072.0	1.9146173612818427e+18
14073.0	1.9141553922506747e+18
14074.0	1.9136935993802744e+18
14075.0	1.913230132143718e+18
14076.0	1.9127703961599997e+18
14077.0	1.91230457675776e+18
14078.0	1.911847258370867e+18
14079.0	1.9113858933194747e+18
14080.0	1.9109255500005373e+18
14081.0	1.9104646832324605e+18
14082.0	1.9100011824414723e+18
14083.0	1.9095432231649275e+18
14084.0	1.90908292178903e+18
14085.0	1.9085976492048381e+18
14086.0	1.908161324148326e+18
14087.0	1.9076963083747325e+18
14088.0	1.9072352990003192e+18
14089.0	1.9067763263799293e+18
14090.0	1.906316847087616e+18
14091.0	1.9058574466482173e+18
14092.0	1.9053980764078077e+18
14093.0	1.9049388403851261e+18
14094.0	1.9044797268361216e+18
14095.0	1.9040207743483904e+18
14096.0	1.903560644100096e+18
14097.0	1.9031018207969277e+18
14098.0	1.9026435846963192e+18
14099.0	1.9021861924896765e+18
14100.0	1.9017269631778816e+18
14101.0	1.901269841084416e+18
14102.0	1.9008117274574843e+18
14103.0	1.9003527498039293e+18
14104.0	1.899896218268467e+18
14105.0	1.899437696955187e+18
14106.0	1.8989811201212408e+18
14107.0	1.8985211643559933e+18
14108.0	1.8980653961838587e+18
14109.0	1.8976090642972672e+18
14110.0	1.8971496303034365e+18
14111.0	1.8966897550688253e+18
14112.0	1.896239006639718e+18
14113.0	1.8957826227437565e+18
14114.0	1.8953203265568765e+18
14115.0	1.8948638604525565e+18
14116.0	1.894400633130188e+18
14117.0	1.8939146575806461e+18
14118.0	1.893495742241177e+18
14119.0	1.8930396536242173e+18
14120.0	1.892584056579686e+18
14121.0	1.8921277515366397e+18
14122.0	1.8916730520731643e+18
14123.0	1.8912166027460603e+18
14124.0	1.890762081121075e+18
14125.0	1.890265037642137e+18
14126.0	1.889853945518489e+18
14127.0	1.889399309808435e+18
14128.0	1.888944670742937e+18
14129.0	1.8884892750249984e+18
14130.0	1.888034607438233e+18
14131.0	1.8875820571361277e+18
14132.0	1.8871280690266107e+18
14133.0	1.886623271118438e+18
14134.0	1.8862205038493693e+18
14135.0	1.8857656684904445e+18
14136.0	1.885310442222387e+18
14137.0	1.8848601434226683e+18
14138.0	1.8844064606584827e+18
14139.0	1.8839539522994173e+18
14140.0	1.883495925914009e+18
14141.0	1.8830482493931517e+18
14142.0	1.8825902028750843e+18
14143.0	1.8821329415307256e+18
14144.0	1.881690808202035e+18
14145.0	1.88123745091584e+18
14146.0	1.8807803539881981e+18
14147.0	1.8803284663861245e+18
14148.0	1.879876635826585e+18
14149.0	1.8794249982050304e+18
14150.0	1.8789733035409403e+18
14151.0	1.8785217212841981e+18
14152.0	1.878070642343936e+18
14153.0	1.8776194442854392e+18
14154.0	1.8771658605068283e+18
14155.0	1.8767014537461755e+18
14156.0	1.8762660950573053e+18
14157.0	1.8758160344940541e+18
14158.0	1.8753651149373437e+18
14159.0	1.8749149503553533e+18
14160.0	1.8744647572520955e+18
14161.0	1.8740086518579197e+18
14162.0	1.8735546905919483e+18
14163.0	1.8731147835998203e+18
14164.0	1.8726628372774907e+18
14165.0	1.872162931605504e+18
14166.0	1.8717657142394875e+18
14167.0	1.8713153869185021e+18
14168.0	1.8708672741900283e+18
14169.0	1.8704185339936765e+18
14170.0	1.8699692518932477e+18
14171.0	1.8695205922275325e+18
14172.0	1.869072164087398e+18
14173.0	1.8686001153048576e+18
14174.0	1.8681748447559677e+18
14175.0	1.8677269618753533e+18
14176.0	1.8672785387683837e+18
14177.0	1.866830639110553e+18
14178.0	1.8663823468658683e+18
14179.0	1.8659301136531453e+18
14180.0	1.865487586059878e+18
14181.0	1.8650400521453568e+18
14182.0	1.8645868492095488e+18
14183.0	1.8641396810383355e+18
14184.0	1.8636920984698875e+18
14185.0	1.8632456148090875e+18
14186.0	1.862789747651379e+18
14187.0	1.8623497903276027e+18
14188.0	1.861905395430195e+18
14189.0	1.861458396708864e+18
14190.0	1.8610126478901245e+18
14191.0	1.860566472930099e+18
14192.0	1.8601196973457405e+18
14193.0	1.8596733848125437e+18
14194.0	1.8592286308827133e+18
14195.0	1.858783137077657e+18
14196.0	1.85833758958551e+18
14197.0	1.8578921914105853e+18
14198.0	1.857446442591846e+18
14199.0	1.8570008179245053e+18
14200.0	1.8565525944664061e+18
14201.0	1.8561118905565181e+18
14202.0	1.8556671752142843e+18
14203.0	1.8552169200353277e+18
14204.0	1.854777744529817e+18
14205.0	1.854333451973427e+18
14206.0	1.853878255904358e+18
14207.0	1.8534454054092797e+18
14208.0	1.8530014702075904e+18
14209.0	1.8525445947391992e+18
14210.0	1.8521061557534715e+18
14211.0	1.8516702971035643e+18
14212.0	1.851226821597593e+18
14213.0	1.8507834719207421e+18
14214.0	1.8503403504140288e+18
14215.0	1.849895826332057e+18
14216.0	1.8494544463003645e+18
14217.0	1.8490116502716413e+18
14218.0	1.8485678107000832e+18
14219.0	1.8481264541564923e+18
14220.0	1.8476840742027261e+18
14221.0	1.8472417479360512e+18
14222.0	1.8467955494879227e+18
14223.0	1.8463518558781435e+18
14224.0	1.8459099909849088e+18
14225.0	1.8454566907412475e+18
14226.0	1.8450265866764283e+18
14227.0	1.8445850858487803e+18
14228.0	1.8441167532195835e+18
14229.0	1.843698836124467e+18
14230.0	1.8432613249187837e+18
14231.0	1.8428203307630587e+18
14232.0	1.842379457403289e+18
14233.0	1.8419387232944123e+18
14234.0	1.8414981116592125e+18
14235.0	1.8410574262042621e+18
14236.0	1.8406169588531192e+18
14237.0	1.840176912610099e+18
14238.0	1.8397369049546747e+18
14239.0	1.839296514778726e+18
14240.0	1.8387296076169213e+18
14241.0	1.8384174289256445e+18
14242.0	1.8379778826436605e+18
14243.0	1.8375238593019904e+18
14244.0	1.83709911220224e+18
14245.0	1.8366583076290555e+18
14246.0	1.8362174778900475e+18
14247.0	1.8357817702350843e+18
14248.0	1.8353418380771323e+18
14249.0	1.8349041909759997e+18
14250.0	1.834465611061657e+18
14251.0	1.834027406956953e+18
14252.0	1.8335891072221181e+18
14253.0	1.833150876273869e+18
14254.0	1.832712635259289e+18
14255.0	1.8322722232729597e+18
14256.0	1.8318283551801341e+18
14257.0	1.831399447330816e+18
14258.0	1.8309619797458941e+18
14259.0	1.830523065964953e+18
14260.0	1.8300870412206075e+18
14261.0	1.8296480234209277e+18
14262.0	1.8292159346114555e+18
14263.0	1.8287656173567997e+18
14264.0	1.8283398082592765e+18
14265.0	1.827905266620825e+18
14266.0	1.827469048938496e+18
14267.0	1.8270325326217213e+18
14268.0	1.8265963870814205e+18
14269.0	1.8261600536363003e+18
14270.0	1.8257242587398144e+18
14271.0	1.825281930795417e+18
14272.0	1.8248469277835261e+18
14273.0	1.8244112738156541e+18
14274.0	1.8239560307703805e+18
14275.0	1.823538704233267e+18
14276.0	1.8230995119505405e+18
14277.0	1.8226669231800315e+18
14278.0	1.8222349585219581e+18
14279.0	1.821800047784755e+18
14280.0	1.8213645565558781e+18
14281.0	1.8209306608402432e+18
14282.0	1.8204961779220477e+18
14283.0	1.8200617973448704e+18
14284.0	1.8196275375636475e+18
14285.0	1.819193405289267e+18
14286.0	1.8187592730148861e+18
14287.0	1.8183255282941947e+18
14288.0	1.8178917080760317e+18
14289.0	1.8173767129759741e+18
14290.0	1.8170234686930944e+18
14291.0	1.8165911416471547e+18
14292.0	1.8161579891621885e+18
14293.0	1.815724663871897e+18
14294.0	1.8152790039724027e+18
14295.0	1.814857702912819e+18
14296.0	1.8143601796055037e+18
14297.0	1.81399360414679e+18
14298.0	1.813548237848576e+18
14299.0	1.813127391451545e+18
14300.0	1.812696490468966e+18
14301.0	1.8122632977186813e+18
14302.0	1.811831990727475e+18
14303.0	1.8113970095259643e+18
14304.0	1.8109675463507968e+18
14305.0	1.8105364104871933e+18
14306.0	1.8100936060698624e+18
14307.0	1.8096716171444221e+18
14308.0	1.8092429039108096e+18
14309.0	1.8088113251287037e+18
14310.0	1.8083279819243515e+18
14311.0	1.8079427703341053e+18
14312.0	1.8075159864803325e+18
14313.0	1.8070830403551232e+18
14314.0	1.8066578201378813e+18
14315.0	1.8062275935993856e+18
14316.0	1.8057924815355904e+18
14317.0	1.8053587150045181e+18
14318.0	1.8049372042297341e+18
14319.0	1.8045073568563197e+18
14320.0	1.804077536326451e+18
14321.0	1.8036479422889981e+18
14322.0	1.8032140952272893e+18
14323.0	1.8027877593251837e+18
14324.0	1.8023597909999613e+18
14325.0	1.8019296064045053e+18
14326.0	1.8014982490816507e+18
14327.0	1.8010651150516221e+18
14328.0	1.8006341939363837e+18
14329.0	1.800206109848371e+18
14330.0	1.7997775710978043e+18
14331.0	1.7993490323472384e+18
14332.0	1.7989208475959293e+18
14333.0	1.7984926796218365e+18
14334.0	1.798064632443699e+18
14335.0	1.7976337465606141e+18
14336.0	1.797205712804249e+18
14337.0	1.796781165353369e+18
14338.0	1.7963534755299323e+18
14339.0	1.7959250508644347e+18
14340.0	1.7954989196443643e+18
14341.0	1.795071723071078e+18
14342.0	1.7946448855302144e+18
14343.0	1.7942155515396093e+18
14344.0	1.7937899068588032e+18
14345.0	1.793364498736742e+18
14346.0	1.7929376964280323e+18
14347.0	1.792510249874227e+18
14348.0	1.7920850783109115e+18
14349.0	1.7916589118586877e+18
14350.0	1.791232084384153e+18
14351.0	1.790806208177766e+18
14352.0	1.7903812496850941e+18
14353.0	1.7899555831939064e+18
14354.0	1.789529737186508e+18
14355.0	1.7891042099462141e+18
14356.0	1.7886789444304893e+18
14357.0	1.7882538819190784e+18
14358.0	1.7878287573319677e+18
14359.0	1.787402164738457e+18
14360.0	1.7869787866595328e+18
14361.0	1.7865541167349755e+18
14362.0	1.7861294954643453e+18
14363.0	1.7857049446580221e+18
14364.0	1.7852771122282493e+18
14365.0	1.7848559118319613e+18
14366.0	1.784431637849702e+18
14367.0	1.7840081238753277e+18
14368.0	1.7835841770487805e+18
14369.0	1.783160434904268e+18
14370.0	1.78273678000128e+18
14371.0	1.782313220728422e+18
14372.0	1.78188978225152e+18
14373.0	1.781466457859686e+18
14374.0	1.7810432962068475e+18
14375.0	1.7806202234732536e+18
14376.0	1.7801972799242237e+18
14377.0	1.7797743984508925e+18
14378.0	1.779351483423129e+18
14379.0	1.7789291522424824e+18
14380.0	1.7785066600005627e+18
14381.0	1.7780830873059325e+18
14382.0	1.7776618650992637e+18
14383.0	1.7772362489397243e+18
14384.0	1.77681572298752e+18
14385.0	1.7763961281708032e+18
14386.0	1.7759728809541627e+18
14387.0	1.7755527090012152e+18
14388.0	1.7751309868335104e+18
14389.0	1.7747097595936763e+18
14390.0	1.7742847373475837e+18
14391.0	1.7738609968807933e+18
14392.0	1.773437189305139e+18
14393.0	1.7730185189130237e+18
14394.0	1.7725940436041725e+18
14395.0	1.7721742625603581e+18
14396.0	1.7717563538538493e+18
14397.0	1.7713359822520315e+18
14398.0	1.7709139966820347e+18
14399.0	1.7704953799770107e+18
14400.0	1.7700725807120381e+18
14401.0	1.7696547626024955e+18
14402.0	1.76923539931136e+18
14403.0	1.7680132361682926e+18
14404.0	1.7662919743373302e+18
14405.0	1.7678630213648374e+18
14406.0	1.7675570988974077e+18
14407.0	1.765924311715021e+18
14408.0	1.7667168774651896e+18
14409.0	1.766297785964953e+18
14410.0	1.7658800467083261e+18
14411.0	1.7654619014430715e+18
14412.0	1.7650429861036032e+18
14413.0	1.7646247267532797e+18
14414.0	1.764206014418124e+18
14415.0	1.7637877936553974e+18
14416.0	1.7633697054326781e+18
14417.0	1.7629498035929088e+18
14418.0	1.762528178733056e+18
14419.0	1.7621155900817405e+18
14420.0	1.7616975186362363e+18
14421.0	1.761280259207987e+18
14422.0	1.7608627816759293e+18
14423.0	1.7604448142491648e+18
14424.0	1.7550744794169306e+18
14425.0	1.7596103625015293e+18
14426.0	1.759193869792051e+18
14427.0	1.7587769593298941e+18
14428.0	1.7583565457850365e+18
14429.0	1.7579431736377344e+18
14430.0	1.7575268386340861e+18
14431.0	1.7571050325803005e+18
14432.0	1.7566899122470907e+18
14433.0	1.7553720401199096e+18
14434.0	1.7558605439959035e+18
14435.0	1.7554440126988288e+18
14436.0	1.7550296926388221e+18
14437.0	1.7546138861174781e+18
14438.0	1.7541715044859896e+18
14439.0	1.753776599020339e+18
14440.0	1.753367107443097e+18
14441.0	1.7529512120025085e+18
14442.0	1.7525356504285181e+18
14443.0	1.75211712432046e+18
14444.0	1.7517061110497275e+18
14445.0	1.7512915846299643e+18
14446.0	1.749923713043661e+18
14447.0	1.750460914466816e+18
14448.0	1.750047740290662e+18
14449.0	1.7496333212450813e+18
14450.0	1.7492189894410237e+18
14451.0	1.7488047918546941e+18
14452.0	1.748390206714675e+18
14453.0	1.747958434994585e+18
14454.0	1.7475627695210496e+18
14455.0	1.7471486776311803e+18
14456.0	1.746731627918131e+18
14457.0	1.7463159740694525e+18
14458.0	1.745906398606131e+18
14459.0	1.7454912950501368e+18
14460.0	1.7450819729227776e+18
14461.0	1.7446672267214843e+18
14462.0	1.7442498800517115e+18
14463.0	1.7438428278816763e+18
14464.0	1.743430541220249e+18
14465.0	1.74301613391872e+18
14466.0	1.7426052062117885e+18
14467.0	1.7421789139304443e+18
14468.0	1.7417742994898941e+18
14469.0	1.7413616303079421e+18
14470.0	1.7409483470798848e+18
14471.0	1.7405371207385085e+18
14472.0	1.7401266862817277e+18
14473.0	1.7397157552193533e+18
14474.0	1.7393041211916288e+18
14475.0	1.7388919452598264e+18
14476.0	1.7384225170784256e+18
14477.0	1.7380698079887357e+18
14478.0	1.7376583887093757e+18
14479.0	1.7372469492973568e+18
14480.0	1.7368349696589821e+18
14481.0	1.7364258018820093e+18
14482.0	1.7360147248578557e+18
14483.0	1.735603325711155e+18
14484.0	1.7351933543055352e+18
14485.0	1.734779203695411e+18
14486.0	1.7343449741131776e+18
14487.0	1.733962866307891e+18
14488.0	1.7335513883082747e+18
14489.0	1.733142351393587e+18
14490.0	1.7327316216578048e+18
14491.0	1.7323230779932672e+18
14492.0	1.731913494141337e+18
14493.0	1.7315038012375037e+18
14494.0	1.73109251449815e+18
14495.0	1.7306848684146688e+18
14496.0	1.730260403172147e+18
14497.0	1.7298641253302272e+18
14498.0	1.7294548820557816e+18
14499.0	1.7290462595383293e+18
14500.0	1.72863742059479e+18
14501.0	1.728201780048691e+18
14502.0	1.7277747915128827e+18
14503.0	1.7274095179661312e+18
14504.0	1.7270028348948475e+18
14505.0	1.7265693904863227e+18
14506.0	1.7261265760026621e+18
14507.0	1.725755767652352e+18
14508.0	1.7253708966395904e+18
14509.0	1.7249630525849597e+18
14510.0	1.7245552991272957e+18
14511.0	1.724147656399257e+18
14512.0	1.7237385674751995e+18
14513.0	1.7233327282978816e+18
14514.0	1.7229162339106816e+18
14515.0	1.722517402576486e+18
14516.0	1.7219120537796603e+18
14517.0	1.721704006234931e+18
14518.0	1.721297061439078e+18
14519.0	1.720890294481715e+18
14520.0	1.7204835862446077e+18
14521.0	1.7200763277148157e+18
14522.0	1.7196704465944568e+18
14523.0	1.7192036121706493e+18
14524.0	1.7187924579713021e+18
14525.0	1.7184510181375995e+18
14526.0	1.7180454339739643e+18
14527.0	1.7176342076325885e+18
14528.0	1.7172204496093181e+18
14529.0	1.7168267470700541e+18
14530.0	1.7164204666519547e+18
14531.0	1.7160162968076288e+18
14532.0	1.7155082877403133e+18
14533.0	1.7152054556360704e+18
14534.0	1.7148002808365053e+18
14535.0	1.7143938091581437e+18
14536.0	1.7139899027161085e+18
14537.0	1.713583756515737e+18
14538.0	1.7131798114861053e+18
14539.0	1.7127752658321403e+18
14540.0	1.7123706530693115e+18
14541.0	1.711964627664896e+18
14542.0	1.7115616053821437e+18
14543.0	1.7111172574609405e+18
14544.0	1.7107528496185336e+18
14545.0	1.7103478174253053e+18
14546.0	1.7044640897171415e+18
14547.0	1.7047118321549263e+18
14548.0	1.7091353280249853e+18
14549.0	1.7087213787414525e+18
14550.0	1.7083289898582013e+18
14551.0	1.7079253954723837e+18
14552.0	1.7075208816951293e+18
14553.0	1.7071168427130877e+18
14554.0	1.7067150351007741e+18
14555.0	1.7063115782881275e+18
14556.0	1.7059068715728893e+18
14557.0	1.7055054917795837e+18
14558.0	1.7050982013730813e+18
14559.0	1.7045456185982968e+18
14560.0	1.7042891033542653e+18
14561.0	1.7038884147822587e+18
14562.0	1.703483947981209e+18
14563.0	1.7030838835216381e+18
14564.0	1.702680849494835e+18
14565.0	1.7022790720815104e+18
14566.0	1.701876787996262e+18
14567.0	1.7014745995411453e+18
14568.0	1.7010703911092221e+18
14569.0	1.7006704726114296e+18
14570.0	1.7002273443938296e+18
14571.0	1.699866374202982e+18
14572.0	1.699460920901632e+18
14573.0	1.6990588347875325e+18
14574.0	1.698659963188019e+18
14575.0	1.6982600312684541e+18
14576.0	1.697858597788057e+18
14577.0	1.6974574411317248e+18
14578.0	1.6970559992627197e+18
14579.0	1.6966550053453821e+18
14580.0	1.6962541624229885e+18
14581.0	1.6958502509477885e+18
14582.0	1.6954522484080635e+18
14583.0	1.6950514289737725e+18
14584.0	1.6946497539014653e+18
14585.0	1.69424999982039e+18
14586.0	1.6938490730119165e+18
14587.0	1.6934475975884797e+18
14588.0	1.6930496671907835e+18
14589.0	1.6926646183395325e+18
14590.0	1.6922816179863552e+18
14591.0	1.691898594145075e+18
14592.0	1.6915156743225341e+18
14593.0	1.69112188789719e+18
14594.0	1.690750218875699e+18
14595.0	1.6903668863336448e+18
14596.0	1.6899776767328253e+18
14597.0	1.6895992716591104e+18
14598.0	1.6892194841427965e+18
14599.0	1.6888373041954813e+18
14600.0	1.6884548155473923e+18
14601.0	1.688072541647667e+18
14602.0	1.6876880783212541e+18
14603.0	1.68730766165934e+18
14604.0	1.686921732004249e+18
14605.0	1.6865427799932925e+18
14606.0	1.6861551541616635e+18
14607.0	1.6857793210351608e+18
14608.0	1.6853968877518843e+18
14609.0	1.685008787125043e+18
14610.0	1.6846320782278656e+18
14611.0	1.6842515760021504e+18
14612.0	1.6838701392855035e+18
14613.0	1.6834884811096067e+18
14614.0	1.6831064521572347e+18
14615.0	1.6827246933180416e+18
14616.0	1.682343553558118e+18
14617.0	1.6819615967477757e+18
14618.0	1.6815786047832061e+18
14619.0	1.681196956673638e+18
14620.0	1.6808091815247872e+18
14621.0	1.6804357794168832e+18
14622.0	1.6800544030982136e+18
14623.0	1.679673070400307e+18
14624.0	1.6792861223682048e+18
14625.0	1.6789104704356347e+18
14626.0	1.678527564034867e+18
14627.0	1.6781443942318075e+18
14628.0	1.677766834729779e+18
14629.0	1.6773856731594747e+18
14630.0	1.6770044545466363e+18
14631.0	1.6766226755747837e+18
14632.0	1.6758399077187584e+18
14633.0	1.6758235096678397e+18
14634.0	1.6754792260960256e+18
14635.0	1.6750850571501563e+18
14636.0	1.674664903652147e+18
14637.0	1.6743372463013885e+18
14638.0	1.67395612164096e+18
14639.0	1.6735744416546813e+18
14640.0	1.6731938572206075e+18
14641.0	1.6712848046555123e+18
14642.0	1.672432250467123e+18
14643.0	1.6720519193690107e+18
14644.0	1.671670371922739e+18
14645.0	1.6712878547533821e+18
14646.0	1.6709086074634237e+18
14647.0	1.6705275448786944e+18
14648.0	1.670147223846912e+18
