# Flux units: erg / (cm m2 s)
# Wavelength units: Angstrom
wave	flux
14000.0	1.7211877729763323e+18
14001.0	1.7207532934135805e+18
14002.0	1.720623702841753e+18
14003.0	1.720314832617472e+18
14004.0	1.7200033317257213e+18
14005.0	1.7196916982939643e+18
14006.0	1.7193700438310907e+18
14007.0	1.7190574993965053e+18
14008.0	1.7186310108217344e+18
14009.0	1.7184439717068797e+18
14010.0	1.7181182923898877e+18
14011.0	1.7170002050285563e+18
14012.0	1.717510767588147e+18
14013.0	1.717200478011392e+18
14014.0	1.7168826638532603e+18
14015.0	1.7165755183267837e+18
14016.0	1.7162674886410237e+18
14017.0	1.7159241143943165e+18
14018.0	1.7155476487667707e+18
14019.0	1.715241976279859e+18
14020.0	1.714930354592153e+18
14021.0	1.7146187865915384e+18
14022.0	1.7142992947118075e+18
14023.0	1.7139710635802621e+18
14024.0	1.7136608713113597e+18
14025.0	1.7133761351122944e+18
14026.0	1.7130656609861627e+18
14027.0	1.7127577688735741e+18
14028.0	1.7124401208098813e+18
14029.0	1.712132191787417e+18
14030.0	1.7092335972122644e+18
14031.0	1.711448392728575e+18
14032.0	1.7112035762372605e+18
14033.0	1.7108255268405248e+18
14034.0	1.7105829400412157e+18
14035.0	1.710277785970278e+18
14036.0	1.709961943135027e+18
14037.0	1.7096591445852157e+18
14038.0	1.7093497374900221e+18
14039.0	1.7090355019120637e+18
14040.0	1.708723101761536e+18
14041.0	1.708418231225548e+18
14042.0	1.7080978954518525e+18
14043.0	1.707751113752576e+18
14044.0	1.7074750429855741e+18
14045.0	1.7071772306243584e+18
14046.0	1.7068714423746557e+18
14047.0	1.7065497577127933e+18
14048.0	1.7062528999751677e+18
14049.0	1.7059497306488824e+18
14050.0	1.7056411741585405e+18
14051.0	1.705321754420838e+18
14052.0	1.7050198014427133e+18
14053.0	1.7047152681287677e+18
14054.0	1.7044072082440187e+18
14055.0	1.7040988866347003e+18
14056.0	1.7037905633476603e+18
14057.0	1.7034824061550587e+18
14058.0	1.7031742338629627e+18
14059.0	1.7028616743288827e+18
14060.0	1.7025581845577723e+18
14061.0	1.7022413065682941e+18
14062.0	1.701942297991577e+18
14063.0	1.7016151338909696e+18
14064.0	1.7008032525320195e+18
14065.0	1.7010078573920256e+18
14066.0	1.700711330165555e+18
14067.0	1.7003828842856443e+18
14068.0	1.7000965777391616e+18
14069.0	1.69978299982807e+18
14070.0	1.6994802734202883e+18
14071.0	1.6991707706949632e+18
14072.0	1.6988673547436032e+18
14073.0	1.6985602041839608e+18
14074.0	1.698253124088627e+18
14075.0	1.697923678286643e+18
14076.0	1.6976164874616832e+18
14077.0	1.6967456174112768e+18
14078.0	1.6969830804488187e+18
14079.0	1.696706469455462e+18
14080.0	1.6964122088308733e+18
14081.0	1.6961056924499965e+18
14082.0	1.6957960873836541e+18
14083.0	1.6954908041281533e+18
14084.0	1.695185458796953e+18
14085.0	1.6943267639721984e+18
14086.0	1.694524963291136e+18
14087.0	1.6942640993927165e+18
14088.0	1.693941085975347e+18
14089.0	1.6936387152445437e+18
14090.0	1.6933384886419453e+18
14091.0	1.6930434160001021e+18
14092.0	1.6927377418354688e+18
14093.0	1.6924319384862715e+18
14094.0	1.6921261200375803e+18
14095.0	1.6918199375233021e+18
14096.0	1.6913994367369213e+18
14097.0	1.6911786133422077e+18
14098.0	1.690851808274022e+18
14099.0	1.6905981854220285e+18
14100.0	1.6902773194883067e+18
14101.0	1.6899882161799165e+18
14102.0	1.6896827903180797e+18
14103.0	1.689357414668697e+18
14104.0	1.6890695545520128e+18
14105.0	1.6887676368060416e+18
14106.0	1.6884628736442365e+18
14107.0	1.6881533088432125e+18
14108.0	1.687837241193267e+18
14109.0	1.6875419823243261e+18
14110.0	1.687238150298009e+18
14111.0	1.6869248710213624e+18
14112.0	1.6866253540950008e+18
14113.0	1.686320275521536e+18
14114.0	1.6860096671776765e+18
14115.0	1.685717740263833e+18
14116.0	1.685352010376806e+18
14117.0	1.6805958290243592e+18
14118.0	1.6848026773487616e+18
14119.0	1.6844307197591547e+18
14120.0	1.684140433657036e+18
14121.0	1.6838739728793597e+18
14122.0	1.683495755710464e+18
14123.0	1.6832408628232187e+18
14124.0	1.6829234110529533e+18
14125.0	1.6821016781127672e+18
14126.0	1.682367885554483e+18
14127.0	1.6820743278952443e+18
14128.0	1.681769467425587e+18
14129.0	1.681453602779955e+18
14130.0	1.6811402228400125e+18
14131.0	1.6808614660407293e+18
14132.0	1.6805511714308093e+18
14133.0	1.679578349594213e+18
14134.0	1.6799472403087352e+18
14135.0	1.6796231984480253e+18
14136.0	1.67926622626775e+18
14137.0	1.67903398765527e+18
14138.0	1.6786887427489787e+18
14139.0	1.6784366298464253e+18
14140.0	1.6781279995363325e+18
14141.0	1.67780850597888e+18
14142.0	1.6771933760651267e+18
14143.0	1.6772212698644477e+18
14144.0	1.676924754382028e+18
14145.0	1.6766207361286144e+18
14146.0	1.676311545459507e+18
14147.0	1.6760133522554875e+18
14148.0	1.675705237005926e+18
14149.0	1.6754058509418493e+18
14150.0	1.675112566751232e+18
14151.0	1.6747948046024696e+18
14152.0	1.6745088889651197e+18
14153.0	1.674206892366233e+18
14154.0	1.6738754165211133e+18
14155.0	1.6733146531758077e+18
14156.0	1.6732612798185467e+18
14157.0	1.6730003991429115e+18
14158.0	1.6726938710179837e+18
14159.0	1.6723972213178365e+18
14160.0	1.6720878997864443e+18
14161.0	1.6717208478547965e+18
14162.0	1.6713617013473275e+18
14163.0	1.6711857989484541e+18
14164.0	1.670748614898483e+18
14165.0	1.6705184700825595e+18
14166.0	1.6702874293633021e+18
14167.0	1.669971276149555e+18
14168.0	1.6696785170857981e+18
14169.0	1.6693868250529795e+18
14170.0	1.6690778793312253e+18
14171.0	1.6687816675164157e+18
14172.0	1.6684849674846205e+18
14173.0	1.6681366422814715e+18
14174.0	1.667876202846617e+18
14175.0	1.667582693841305e+18
14176.0	1.6672822608789504e+18
14177.0	1.6669827556966397e+18
14178.0	1.66668205597655e+18
14179.0	1.6663733250031616e+18
14180.0	1.6660828526739453e+18
14181.0	1.6657828475305981e+18
14182.0	1.6654818407874557e+18
14183.0	1.665182929518592e+18
14184.0	1.6648765507108861e+18
14185.0	1.664581771670323e+18
14186.0	1.663485612130304e+18
14187.0	1.663950129620582e+18
14188.0	1.6636792363024381e+18
14189.0	1.6633773705658368e+18
14190.0	1.6630790330777597e+18
14191.0	1.66277632009175e+18
14192.0	1.6624759492050941e+18
14193.0	1.6620535744036867e+18
14194.0	1.6618804066910203e+18
14195.0	1.66158949983191e+18
14196.0	1.661290207720243e+18
14197.0	1.660991246119731e+18
14198.0	1.6606857783148544e+18
14199.0	1.6603906335309821e+18
14200.0	1.6595815942324224e+18
14201.0	1.659769881572147e+18
14202.0	1.659493703430963e+18
14203.0	1.6591877675417597e+18
14204.0	1.6588967465975803e+18
14205.0	1.6585983889768448e+18
14206.0	1.6581462597828605e+18
14207.0	1.6580045376061437e+18
14208.0	1.6577069215383547e+18
14209.0	1.6572418990538747e+18
14210.0	1.6569934955937784e+18
14211.0	1.656806479967027e+18
14212.0	1.656513470922752e+18
14213.0	1.6562124708904957e+18
14214.0	1.6559175794425856e+18
14215.0	1.6556010688741376e+18
14216.0	1.6553232868311037e+18
14217.0	1.6550258318245888e+18
14218.0	1.6547142235586557e+18
14219.0	1.6544304856039421e+18
14220.0	1.6541066786242557e+18
14221.0	1.653798216086323e+18
14222.0	1.6534643813646333e+18
14223.0	1.6532079550398461e+18
14224.0	1.6529105604313085e+18
14225.0	1.6509987916349453e+18
14226.0	1.6523087566602235e+18
14227.0	1.6520182474211325e+18
14228.0	1.6474183307362317e+18
14229.0	1.6505834682974172e+18
14230.0	1.6511278352695293e+18
14231.0	1.6507976881799168e+18
14232.0	1.6505347724279805e+18
14233.0	1.6502333277995003e+18
14234.0	1.6499414377955325e+18
14235.0	1.6496414796283904e+18
14236.0	1.6493480410873856e+18
14237.0	1.6490497757413376e+18
14238.0	1.6487347432456192e+18
14239.0	1.6484134411042813e+18
14240.0	1.6459802012024832e+18
14241.0	1.6478197960933376e+18
14242.0	1.6475317631713277e+18
14243.0	1.6470466935914493e+18
14244.0	1.6469451528470525e+18
14245.0	1.646631682310144e+18
14246.0	1.646331402020454e+18
14247.0	1.6460513114324992e+18
14248.0	1.6457381412077565e+18
14249.0	1.6454623539757056e+18
14250.0	1.6451661690044413e+18
14251.0	1.6448734200070144e+18
14252.0	1.6445774682390528e+18
14253.0	1.644280650766745e+18
14254.0	1.643982499505766e+18
14255.0	1.6436439453532157e+18
14256.0	1.6417688700059656e+18
14257.0	1.6430215190282232e+18
14258.0	1.6427797727674363e+18
14259.0	1.6424541102276603e+18
14260.0	1.6421259696930813e+18
14261.0	1.6418627989274621e+18
14262.0	1.6416107363565568e+18
14263.0	1.638953351171278e+18
14264.0	1.6405685407318003e+18
14265.0	1.640719520576307e+18
14266.0	1.6404318114545661e+18
14267.0	1.6401389433389053e+18
14268.0	1.6398422651174907e+18
14269.0	1.6395382233759741e+18
14270.0	1.6392543092604928e+18
14271.0	1.638958253473792e+18
14272.0	1.6386633771253757e+18
14273.0	1.6383616187629563e+18
14274.0	1.6345039177252882e+18
14275.0	1.6374430359879677e+18
14276.0	1.637466644886323e+18
14277.0	1.637174389139046e+18
14278.0	1.6368973301940221e+18
14279.0	1.6366019773726715e+18
14280.0	1.6363001636454397e+18
14281.0	1.6359889060233213e+18
14282.0	1.635691184259072e+18
14283.0	1.6353969773215741e+18
14284.0	1.6351027468959741e+18
14285.0	1.6348078353154043e+18
14286.0	1.634508444218163e+18
14287.0	1.6342202754007037e+18
14288.0	1.6339256809095165e+18
14289.0	1.6322516670742508e+18
14290.0	1.6333368694145021e+18
14291.0	1.633043982843904e+18
14292.0	1.6327489353678848e+18
14293.0	1.6324548827807744e+18
14294.0	1.6319895666950141e+18
14295.0	1.631854333945446e+18
14296.0	1.6304628534607882e+18
14297.0	1.6312805883903997e+18
14298.0	1.6304186069090304e+18
14299.0	1.6306762344824832e+18
14300.0	1.6303941373394944e+18
14301.0	1.630106419829145e+18
14302.0	1.6298146522988541e+18
14303.0	1.6294817134804987e+18
14304.0	1.6292076475908093e+18
14305.0	1.6289344826376192e+18
14306.0	1.6285862765527037e+18
14307.0	1.6282933715271675e+18
14308.0	1.6280177604558848e+18
14309.0	1.6277089002979323e+18
14310.0	1.6270339008888824e+18
14311.0	1.626211599201075e+18
14312.0	1.6263723131863037e+18
14313.0	1.6260146028085248e+18
14314.0	1.6258936759910397e+18
14315.0	1.6256250140426235e+18
14316.0	1.6252697749487613e+18
14317.0	1.6249874580242432e+18
14318.0	1.6247535182020603e+18
14319.0	1.6244631230480381e+18
14320.0	1.624170763282022e+18
14321.0	1.6238762912645115e+18
14322.0	1.623537864618803e+18
14323.0	1.6232725379809275e+18
14324.0	1.6230046544953341e+18
14325.0	1.6227018022584315e+18
14326.0	1.6224212888846339e+18
14327.0	1.6221217451147261e+18
14328.0	1.621829341727948e+18
14329.0	1.6215464342454272e+18
14330.0	1.6212548764303357e+18
14331.0	1.620959548774809e+18
14332.0	1.6206718765629437e+18
14333.0	1.620380526785331e+18
14334.0	1.6200643702161403e+18
14335.0	1.6197504248840187e+18
14336.0	1.6193107628392448e+18
14337.0	1.619182373516083e+18
14338.0	1.6188907284594688e+18
14339.0	1.6185898894884861e+18
14340.0	1.6183112450965501e+18
14341.0	1.6180099246194688e+18
14342.0	1.6177276026617853e+18
14343.0	1.617435311682355e+18
14344.0	1.617139695458713e+18
14345.0	1.6168556806799352e+18
14346.0	1.6165579941478397e+18
14347.0	1.6161970625445888e+18
14348.0	1.6159810860875776e+18
14349.0	1.6156940681871357e+18
14350.0	1.6152743827734525e+18
14351.0	1.6149677841842168e+18
14352.0	1.614811083309056e+18
14353.0	1.614530009576243e+18
14354.0	1.6142251071635453e+18
14355.0	1.613904118756147e+18
14356.0	1.6136261471305725e+18
14357.0	1.6133720746491901e+18
14358.0	1.6130818221015035e+18
14359.0	1.6127745322909693e+18
14360.0	1.6124898632007675e+18
14361.0	1.6122070580592635e+18
14362.0	1.6119218604867581e+18
14363.0	1.6116312321294333e+18
14364.0	1.6109412003348475e+18
14365.0	1.6109737229680635e+18
14366.0	1.6106629149753344e+18
14367.0	1.610444698759987e+18
14368.0	1.6101543556153341e+18
14369.0	1.6098653429039104e+18
14370.0	1.6095759996813307e+18
14371.0	1.609286926571929e+18
14372.0	1.608990008436326e+18
14373.0	1.608703537473126e+18
14374.0	1.6084174507081723e+18
14375.0	1.608125349311283e+18
14376.0	1.6078395880243197e+18
14377.0	1.6075494176849915e+18
14378.0	1.6072574488281085e+18
14379.0	1.606971739550515e+18
14380.0	1.6066811682357243e+18
14381.0	1.606379190091776e+18
14382.0	1.6061023089852413e+18
14383.0	1.6058097931911165e+18
14384.0	1.6055040754057213e+18
14385.0	1.6052372958609405e+18
14386.0	1.6049270582935547e+18
14387.0	1.604659092599603e+18
14388.0	1.604367895494656e+18
14389.0	1.6040813138018304e+18
14390.0	1.603790128440934e+18
14391.0	1.6035042027372544e+18
14392.0	1.6032137538961405e+18
14393.0	1.602927230923571e+18
14394.0	1.602591971816243e+18
14395.0	1.6023321598492672e+18
14396.0	1.6020614275923965e+18
14397.0	1.6017735171440637e+18
14398.0	1.601484457456435e+18
14399.0	1.6011963557478397e+18
14400.0	1.6008808803336192e+18
14401.0	1.600611455021875e+18
14402.0	1.6003272556937216e+18
14403.0	1.5987480079630316e+18
14404.0	1.5940008175206372e+18
14405.0	1.5971168582369234e+18
14406.0	1.5991476915798013e+18
14407.0	1.5970449007575048e+18
14408.0	1.5985416935047163e+18
14409.0	1.5982596651483133e+18
14410.0	1.5979675738177533e+18
14411.0	1.597709713040998e+18
14412.0	1.5974187894046712e+18
14413.0	1.5971363617505275e+18
14414.0	1.5968453257068541e+18
14415.0	1.596559109757337e+18
14416.0	1.5962650672365563e+18
14417.0	1.595958997129625e+18
14418.0	1.595640429674496e+18
14419.0	1.5954073136136187e+18
14420.0	1.595115069610393e+18
14421.0	1.594833576447181e+18
14422.0	1.5945402050150397e+18
14423.0	1.594230982469222e+18
14424.0	1.586529367909986e+18
14425.0	1.5936696772198397e+18
14426.0	1.5933971531563003e+18
14427.0	1.5931097997115392e+18
14428.0	1.592797585788108e+18
14429.0	1.5925313296924667e+18
14430.0	1.5922495345393664e+18
14431.0	1.5912410426638333e+18
14432.0	1.591670071309107e+18
14433.0	1.5900069660196856e+18
14434.0	1.5910800183001085e+18
14435.0	1.5907179542347768e+18
14436.0	1.5905282693529597e+18
14437.0	1.590242781534617e+18
14438.0	1.5898524495380477e+18
14439.0	1.589654270351769e+18
14440.0	1.589381961036595e+18
14441.0	1.5890822008406016e+18
14442.0	1.5887870845779965e+18
14443.0	1.5884417910177792e+18
14444.0	1.5882019154165757e+18
14445.0	1.5879212846022653e+18
14446.0	1.5852905131147274e+18
14447.0	1.5873328052961272e+18
14448.0	1.587062938743603e+18
14449.0	1.586776848623206e+18
14450.0	1.586483587920691e+18
14451.0	1.5861987661578235e+18
14452.0	1.5859158586753021e+18
14453.0	1.5856087668359163e+18
14454.0	1.5853418983718907e+18
14455.0	1.5850456848793597e+18
14456.0	1.5847592827027453e+18
14457.0	1.5844762024148987e+18
14458.0	1.5841921859583997e+18
14459.0	1.583900866379776e+18
14460.0	1.5836038945570813e+18
14461.0	1.5832224729399293e+18
14462.0	1.58250431414272e+18
14463.0	1.5827159604002813e+18
14464.0	1.5824684645875707e+18
14465.0	1.5821559771955197e+18
14466.0	1.5819051309727741e+18
14467.0	1.5815855484960765e+18
14468.0	1.581333397005926e+18
14469.0	1.5809717288828925e+18
14470.0	1.5807260684976123e+18
14471.0	1.5804687429140475e+18
14472.0	1.5801896858025981e+18
14473.0	1.5799096942002176e+18
14474.0	1.5796282362691581e+18
14475.0	1.579339723518771e+18
14476.0	1.5789684705722365e+18
14477.0	1.5787695598993405e+18
14478.0	1.5784844831227904e+18
14479.0	1.5781950878908416e+18
14480.0	1.5778930292162552e+18
14481.0	1.5776329236479997e+18
14482.0	1.5773428288061437e+18
14483.0	1.5770483886653435e+18
14484.0	1.5767636004569088e+18
14485.0	1.576440316926361e+18
14486.0	1.5757980381216768e+18
14487.0	1.5759184851107837e+18
14488.0	1.5755968910458877e+18
14489.0	1.575283663778611e+18
14490.0	1.575048999180697e+18
14491.0	1.5747802919337981e+18
14492.0	1.5744522034085885e+18
14493.0	1.5737115547533312e+18
14494.0	1.5732465222025213e+18
14495.0	1.5729914665762813e+18
14496.0	1.572524278153216e+18
14497.0	1.5724206704558075e+18
14498.0	1.572137469372006e+18
14499.0	1.571852916044595e+18
14500.0	1.571567597676134e+18
14501.0	1.5712387927638016e+18
14502.0	1.5706502648037376e+18
14503.0	1.5706805560672253e+18
14504.0	1.570420489086566e+18
14505.0	1.5701076493729787e+18
14506.0	1.569783149494272e+18
14507.0	1.569238477176832e+18
14508.0	1.5692897030504448e+18
14509.0	1.5690053812486141e+18
14510.0	1.5687160195710976e+18
14511.0	1.5684357595332605e+18
14512.0	1.5681304494342141e+18
14513.0	1.5678666713333757e+18
14514.0	1.5675365628313597e+18
14515.0	1.5672954373275643e+18
14516.0	1.5634595802251287e+18
14517.0	1.566723713427046e+18
14518.0	1.566443906374041e+18
14519.0	1.5661572877713403e+18
14520.0	1.5658740564885501e+18
14521.0	1.5655900702310397e+18
14522.0	1.565302819127296e+18
14523.0	1.5648803537289213e+18
14524.0	1.564648980820787e+18
14525.0	1.564446013417062e+18
14526.0	1.5641661593878525e+18
14527.0	1.563851915421286e+18
14528.0	1.5634066346868733e+18
14529.0	1.563301198272921e+18
14530.0	1.5630078738169853e+18
14531.0	1.562744706406809e+18
14532.0	1.5623437544325115e+18
14533.0	1.562178337793638e+18
14534.0	1.5618961718640635e+18
14535.0	1.5615980055035901e+18
14536.0	1.561322797085491e+18
14537.0	1.561024348867788e+18
14538.0	1.5607592654995453e+18
14539.0	1.5604753513840637e+18
14540.0	1.5601911487004672e+18
14541.0	1.5598781881909248e+18
14542.0	1.559620220039987e+18
14543.0	1.5592713864871933e+18
14544.0	1.5590531467837435e+18
14545.0	1.5587564501073915e+18
14546.0	1.5485309936467917e+18
14547.0	1.5490794995580856e+18
14548.0	1.5578962906316797e+18
14549.0	1.557456595032473e+18
14550.0	1.5573115123793915e+18
14551.0	1.557039129244467e+18
14552.0	1.5567530206691325e+18
14553.0	1.5564581157994493e+18
14554.0	1.5561870463205373e+18
14555.0	1.5559025550688256e+18
14556.0	1.5556165018583037e+18
14557.0	1.555334169834291e+18
14558.0	1.5550477357809664e+18
14559.0	1.5521330736660442e+18
14560.0	1.554463826588467e+18
14561.0	1.5541868666290173e+18
14562.0	1.553868064292864e+18
14563.0	1.553624289666662e+18
14564.0	1.5532787964575744e+18
14565.0	1.5530608939761664e+18
14566.0	1.552776874164224e+18
14567.0	1.5524891180662781e+18
14568.0	1.5521598299701243e+18
14569.0	1.5519218149621757e+18
14570.0	1.550882983169228e+18
14571.0	1.5513500625403904e+18
14572.0	1.5509994136928253e+18
14573.0	1.5507146338729984e+18
14574.0	1.550360304104243e+18
14575.0	1.550201635261645e+18
14576.0	1.5499099482619904e+18
14577.0	1.549641408787251e+18
14578.0	1.549358645588787e+18
14579.0	1.5490811370143741e+18
14580.0	1.5487959931289597e+18
14581.0	1.5485023348064253e+18
14582.0	1.5482181254119421e+18
14583.0	1.547944136697446e+18
14584.0	1.5476198012354557e+18
14585.0	1.547375727974809e+18
14586.0	1.5470873645416448e+18
14587.0	1.5468056784404475e+18
14588.0	1.5465230477819901e+18
14589.0	1.5462441181773821e+18
14590.0	1.5459652238049277e+18
14591.0	1.5456778418388992e+18
14592.0	1.5453944645943293e+18
14593.0	1.5449653856174072e+18
14594.0	1.5448465727291387e+18
14595.0	1.5445560836227072e+18
14596.0	1.543891895451647e+18
14597.0	1.5435327690768376e+18
14598.0	1.543683596248678e+18
14599.0	1.5434473495592957e+18
14600.0	1.5431565836287995e+18
14601.0	1.5428828465725437e+18
14602.0	1.5425747330007037e+18
14603.0	1.542322615064985e+18
14604.0	1.541955705739673e+18
14605.0	1.5416724845232123e+18
14606.0	1.5413742476984315e+18
14607.0	1.541189763753574e+18
14608.0	1.540917293377126e+18
14609.0	1.5406245712232448e+18
14610.0	1.540209994471833e+18
14611.0	1.5400513524727805e+18
14612.0	1.539803536215244e+18
14613.0	1.539527507391283e+18
14614.0	1.5389715624624128e+18
14615.0	1.5383934665752568e+18
14616.0	1.5381194023632893e+18
14617.0	1.5378305859452928e+18
14618.0	1.5375301529829373e+18
14619.0	1.5370065293606904e+18
14620.0	1.5360278573088768e+18
14621.0	1.5367180853968893e+18
14622.0	1.5364344749490176e+18
14623.0	1.5361580552159232e+18
14624.0	1.5357975396876285e+18
14625.0	1.535592676458496e+18
14626.0	1.535308129841971e+18
14627.0	1.5350245831475197e+18
14628.0	1.5347544515149821e+18
14629.0	1.534473236853555e+18
14630.0	1.5341797244927997e+18
14631.0	1.5339075527507963e+18
14632.0	1.5330147548790784e+18
14633.0	1.533255871994265e+18
14634.0	1.5330522938998781e+18
14635.0	1.5323674663976945e+18
14636.0	1.5314928030187515e+18
14637.0	1.532222719288934e+18
14638.0	1.5319167615893504e+18
14639.0	1.5316240360800253e+18
14640.0	1.5313709115113467e+18
14641.0	1.5287431683112942e+18
14642.0	1.53080417044398e+18
14643.0	1.5305264555098112e+18
14644.0	1.5302262507175933e+18
14645.0	1.5299286212280315e+18
14646.0	1.5296464787865595e+18
14647.0	1.5293174540926968e+18
