# Flux units: erg / (cm m2 s)
# Wavelength units: Angstrom
wave	flux
14000.0	1.9416334555152381e+18
14001.0	1.9411236210868221e+18
14002.0	1.9406883395731453e+18
14003.0	1.9402261809594365e+18
14004.0	1.939753437600153e+18
14005.0	1.9392865562001403e+18
14006.0	1.9388041323872256e+18
14007.0	1.9383271410368512e+18
14008.0	1.93774273691648e+18
14009.0	1.9373933430046717e+18
14010.0	1.9369016967561216e+18
14011.0	1.9357728753319936e+18
14012.0	1.9359721987244027e+18
14013.0	1.935506298791526e+18
14014.0	1.9350241551581184e+18
14015.0	1.9345597383311352e+18
14016.0	1.9340870117490688e+18
14017.0	1.9336175114256381e+18
14018.0	1.933135186598297e+18
14019.0	1.9326761787457533e+18
14020.0	1.9322021166972928e+18
14021.0	1.9317325509427197e+18
14022.0	1.9312467532316664e+18
14023.0	1.930601491437977e+18
14024.0	1.9302473864839163e+18
14025.0	1.92984531379159e+18
14026.0	1.9293768586887165e+18
14027.0	1.9289016323014653e+18
14028.0	1.9284308787199997e+18
14029.0	1.9279544108187645e+18
14030.0	1.9204849442750525e+18
14031.0	1.9269742338506747e+18
14032.0	1.9265505990803453e+18
14033.0	1.9259271963213821e+18
14034.0	1.9256168144699387e+18
14035.0	1.9251479667802107e+18
14036.0	1.9246693883052032e+18
14037.0	1.924137319032422e+18
14038.0	1.9237438463410173e+18
14039.0	1.923273065916006e+18
14040.0	1.9227921956732925e+18
14041.0	1.922337501242982e+18
14042.0	1.921863120427417e+18
14043.0	1.9213622483877883e+18
14044.0	1.92092752052224e+18
14045.0	1.9204659625328637e+18
14046.0	1.9199951317762045e+18
14047.0	1.9194960448323581e+18
14048.0	1.9190491014758397e+18
14049.0	1.9185998629961725e+18
14050.0	1.918131884366233e+18
14051.0	1.9176499101827064e+18
14052.0	1.9171924860993533e+18
14053.0	1.9167290977157117e+18
14054.0	1.9162680329764861e+18
14055.0	1.9157877415477243e+18
14056.0	1.9153359529312253e+18
14057.0	1.914865180894822e+18
14058.0	1.9144028209545216e+18
14059.0	1.9139311328821245e+18
14060.0	1.9134715009171453e+18
14061.0	1.9129968634101755e+18
14062.0	1.9125427796705275e+18
14063.0	1.912058582505881e+18
14064.0	1.9106836628111365e+18
14065.0	1.9111392934100987e+18
14066.0	1.9106775357718525e+18
14067.0	1.9099618381922304e+18
14068.0	1.9097530524499965e+18
14069.0	1.9092673117814784e+18
14070.0	1.9088241130995707e+18
14071.0	1.908354262132326e+18
14072.0	1.9078907328200704e+18
14073.0	1.9074119781842941e+18
14074.0	1.9069680043950077e+18
14075.0	1.906474640159539e+18
14076.0	1.9057652927561728e+18
14077.0	1.9037765484150787e+18
14078.0	1.9049775605219325e+18
14079.0	1.904641324980633e+18
14080.0	1.9041922995716093e+18
14081.0	1.9037285471223805e+18
14082.0	1.9032159041880061e+18
14083.0	1.9027992000856061e+18
14084.0	1.9023427625025533e+18
14085.0	1.9003358601805821e+18
14086.0	1.9012802479915005e+18
14087.0	1.900957544952627e+18
14088.0	1.90045971629998e+18
14089.0	1.899793424266035e+18
14090.0	1.8995384961466365e+18
14091.0	1.8991127004708861e+18
14092.0	1.8986492030353405e+18
14093.0	1.8981893663883256e+18
14094.0	1.8977296941580283e+18
14095.0	1.8972702870077437e+18
14096.0	1.8964298390831104e+18
14097.0	1.8961417558294525e+18
14098.0	1.8956484872241147e+18
14099.0	1.8954264625807355e+18
14100.0	1.8949285215207421e+18
14101.0	1.894509456864051e+18
14102.0	1.894045273240371e+18
14103.0	1.8935761940250621e+18
14104.0	1.8931284252295165e+18
14105.0	1.8926436861607936e+18
14106.0	1.8922109967269883e+18
14107.0	1.8916682806329341e+18
14108.0	1.8912554420011005e+18
14109.0	1.8908283209252861e+18
14110.0	1.890323925670297e+18
14111.0	1.8898204246409213e+18
14112.0	1.88943478858711e+18
14113.0	1.8888411754528765e+18
14114.0	1.8884342189129725e+18
14115.0	1.8880561359618045e+18
14116.0	1.8870085917605875e+18
14117.0	1.87650420569539e+18
14118.0	1.8866999882940413e+18
14119.0	1.88605190457262e+18
14120.0	1.8856018641420288e+18
14121.0	1.8853047983669245e+18
14122.0	1.8847136783269883e+18
14123.0	1.8840159994773504e+18
14124.0	1.8834677217361923e+18
14125.0	1.8829731512188925e+18
14126.0	1.8829411788783613e+18
14127.0	1.8826007976869883e+18
14128.0	1.8821455496085504e+18
14129.0	1.8816768881459197e+18
14130.0	1.8812072854814715e+18
14131.0	1.8807567669002235e+18
14132.0	1.8803135447302141e+18
14133.0	1.8792432825008102e+18
14134.0	1.8794143060852733e+18
14135.0	1.8788943986163707e+18
14136.0	1.877480666510132e+18
14137.0	1.8780358581420024e+18
14138.0	1.877412299354931e+18
14139.0	1.8771412600750077e+18
14140.0	1.8766098300141563e+18
14141.0	1.8762202328596475e+18
14142.0	1.8746215436910597e+18
14143.0	1.8750206250057728e+18
14144.0	1.8748693398159352e+18
14145.0	1.874415054749696e+18
14146.0	1.8739451953938427e+18
14147.0	1.873494285903462e+18
14148.0	1.8729785526059003e+18
14149.0	1.872479687121305e+18
14150.0	1.8721453759266813e+18
14151.0	1.8715250517868536e+18
14152.0	1.871242704663347e+18
14153.0	1.87079241760768e+18
14154.0	1.8703076953161725e+18
14155.0	1.8612331374182474e+18
14156.0	1.8691082099359703e+18
14157.0	1.8689612448792568e+18
14158.0	1.8684183241031677e+18
14159.0	1.8680759732666365e+18
14160.0	1.867626815317606e+18
14161.0	1.8670963986006013e+18
14162.0	1.8665995866472445e+18
14163.0	1.8662727765458941e+18
14164.0	1.8653938802753526e+18
14165.0	1.8645820744138757e+18
14166.0	1.86491128030167e+18
14167.0	1.8644534703423488e+18
14168.0	1.8639137473036283e+18
14169.0	1.8635637225684987e+18
14170.0	1.863055297426227e+18
14171.0	1.8625870134509563e+18
14172.0	1.8622206040866816e+18
14173.0	1.8614219280744445e+18
14174.0	1.8612828550201344e+18
14175.0	1.8608677179097083e+18
14176.0	1.8602563058270203e+18
14177.0	1.8599279824207864e+18
14178.0	1.859513029859737e+18
14179.0	1.8589982327308283e+18
14180.0	1.8586259161087997e+18
14181.0	1.8581749965520893e+18
14182.0	1.8577251993911293e+18
14183.0	1.8572771168616443e+18
14184.0	1.8568215701487613e+18
14185.0	1.8563757693206528e+18
14186.0	1.8537317304107018e+18
14187.0	1.8554544921247736e+18
14188.0	1.8550288306667512e+18
14189.0	1.854555949734297e+18
14190.0	1.854120096117555e+18
14191.0	1.8536596638793725e+18
14192.0	1.8532287226314747e+18
14193.0	1.8524138733830144e+18
14194.0	1.852323147232051e+18
14195.0	1.8519001399295997e+18
14196.0	1.8514499317268477e+18
14197.0	1.8510046275043325e+18
14198.0	1.8505545082208253e+18
14199.0	1.8500894505041915e+18
14200.0	1.8483674706083848e+18
14201.0	1.8492031705808888e+18
14202.0	1.8487721152479227e+18
14203.0	1.8482445154254845e+18
14204.0	1.8478555524497405e+18
14205.0	1.847434451039027e+18
14206.0	1.8468448845692925e+18
14207.0	1.8465474580840443e+18
14208.0	1.8461029558124541e+18
14209.0	1.8454879919931384e+18
14210.0	1.8451174218792952e+18
14211.0	1.8447591159103483e+18
14212.0	1.8443223361912827e+18
14213.0	1.8438173772218363e+18
14214.0	1.8434326001614845e+18
14215.0	1.8429571036610555e+18
14216.0	1.8425437331914752e+18
14217.0	1.84210236154839e+18
14218.0	1.841644590176665e+18
14219.0	1.8412079950069755e+18
14220.0	1.8407621706907643e+18
14221.0	1.8402735577628664e+18
14222.0	1.8394707780435965e+18
14223.0	1.8393785369100283e+18
14224.0	1.8389993516957693e+18
14225.0	1.8350830830747674e+18
14226.0	1.8381130365403133e+18
14227.0	1.8376702589665277e+18
14228.0	1.8296528972021793e+18
14229.0	1.8358653358702528e+18
14230.0	1.836341775250227e+18
14231.0	1.8354947171024896e+18
14232.0	1.8354580169424893e+18
14233.0	1.8350046177132541e+18
14234.0	1.834575164604416e+18
14235.0	1.8341293620985853e+18
14236.0	1.8336810195222523e+18
14237.0	1.8332355039068155e+18
14238.0	1.8327903255134203e+18
14239.0	1.8323201725562877e+18
14240.0	1.8304047731703816e+18
14241.0	1.831468445309337e+18
14242.0	1.831040089430425e+18
14243.0	1.8304244528447488e+18
14244.0	1.8301662766563323e+18
14245.0	1.8296997291229181e+18
14246.0	1.8292171073388544e+18
14247.0	1.8288357847072763e+18
14248.0	1.8283835481391104e+18
14249.0	1.827960154960691e+18
14250.0	1.8275234406727675e+18
14251.0	1.8270845956784123e+18
14252.0	1.8266449973870587e+18
14253.0	1.8261892627693568e+18
14254.0	1.8257664836370427e+18
14255.0	1.825297786942259e+18
14256.0	1.8230132921597965e+18
14257.0	1.8244321497055232e+18
14258.0	1.8240102614433787e+18
14259.0	1.8234448206102528e+18
14260.0	1.8230801426546688e+18
14261.0	1.8226696830320637e+18
14262.0	1.8222621409673216e+18
14263.0	1.8190237238820887e+18
14264.0	1.8210076112191488e+18
14265.0	1.820713077125939e+18
14266.0	1.8205099570495485e+18
14267.0	1.8200701255548925e+18
14268.0	1.8196290525462525e+18
14269.0	1.8191879627603963e+18
14270.0	1.8187590901432317e+18
14271.0	1.8183122105401341e+18
14272.0	1.8178634535665661e+18
14273.0	1.8174522624573437e+18
14274.0	1.813055729251126e+18
14275.0	1.8162200363401216e+18
14276.0	1.8160570691747837e+18
14277.0	1.8156610228584443e+18
14278.0	1.8152726051422205e+18
14279.0	1.8148353304952824e+18
14280.0	1.8143920663822333e+18
14281.0	1.8139658764419064e+18
14282.0	1.8135283350372347e+18
14283.0	1.8130946255486976e+18
14284.0	1.8126590168793085e+18
14285.0	1.8122227304103933e+18
14286.0	1.8117735674281981e+18
14287.0	1.8113472818577405e+18
14288.0	1.81091556214702e+18
14289.0	1.8095101649616865e+18
14290.0	1.8100289819115523e+18
14291.0	1.8096075617337341e+18
14292.0	1.8091780566155261e+18
14293.0	1.8087449779503104e+18
14294.0	1.8081035447173123e+18
14295.0	1.8078343458979837e+18
14296.0	1.8066537281748997e+18
14297.0	1.807013555837337e+18
14298.0	1.805196843391385e+18
14299.0	1.8060670725521405e+18
14300.0	1.8057048440700925e+18
14301.0	1.8052453362565117e+18
14302.0	1.8048435470991355e+18
14303.0	1.8043294428692477e+18
14304.0	1.8039652984291323e+18
14305.0	1.803539630260224e+18
14306.0	1.8028667833679872e+18
14307.0	1.802595479008051e+18
14308.0	1.8022325978923003e+18
14309.0	1.8017644514902013e+18
14310.0	1.8004510236475382e+18
14311.0	1.7984640308477947e+18
14312.0	1.8002038315024381e+18
14313.0	1.7999672475910144e+18
14314.0	1.7995924445855741e+18
14315.0	1.7992111404089341e+18
14316.0	1.7987417927581693e+18
14317.0	1.797920543001805e+18
14318.0	1.797939771369062e+18
14319.0	1.7975116621152253e+18
14320.0	1.7970814389321728e+18
14321.0	1.7966455265951741e+18
14322.0	1.7961668524900344e+18
14323.0	1.7957762487025661e+18
14324.0	1.7952794015170552e+18
14325.0	1.7949201996447736e+18
14326.0	1.7945035156750339e+18
14327.0	1.7940581946753021e+18
14328.0	1.7936348652503037e+18
14329.0	1.7932159281004541e+18
14330.0	1.7927848794783736e+18
14331.0	1.792304190429593e+18
14332.0	1.7919239532838907e+18
14333.0	1.7914986558914555e+18
14334.0	1.791070033254809e+18
14335.0	1.7905829940297725e+18
14336.0	1.7897981340549117e+18
14337.0	1.7897778571116541e+18
14338.0	1.7893442583527421e+18
14339.0	1.7888907903369216e+18
14340.0	1.788501384442675e+18
14341.0	1.7880347983216637e+18
14342.0	1.7876385741668347e+18
14343.0	1.7871817221865462e+18
14344.0	1.7867677410263037e+18
14345.0	1.786369938135449e+18
14346.0	1.7859398743359485e+18
14347.0	1.7853485244481533e+18
14348.0	1.7850778861436925e+18
14349.0	1.7846616685805563e+18
14350.0	1.783958107638988e+18
14351.0	1.7835284162936822e+18
14352.0	1.7833694723047421e+18
14353.0	1.7829544861892605e+18
14354.0	1.7825064825126907e+18
14355.0	1.782044172904038e+18
14356.0	1.7816394661887995e+18
14357.0	1.7812521423470587e+18
14358.0	1.780826251041177e+18
14359.0	1.7803816514617336e+18
14360.0	1.7799598974173181e+18
14361.0	1.7795473305763837e+18
14362.0	1.7791241840230395e+18
14363.0	1.7787001952534523e+18
14364.0	1.7772058737901568e+18
14365.0	1.777726063116287e+18
14366.0	1.77726412596183e+18
14367.0	1.7769992606973947e+18
14368.0	1.7765769748152317e+18
14369.0	1.776154964079411e+18
14370.0	1.7757293714079736e+18
14371.0	1.7753088907542523e+18
14372.0	1.7748513878179835e+18
14373.0	1.774458081221017e+18
14374.0	1.7740307386859517e+18
14375.0	1.7736115582664704e+18
14376.0	1.7731885660635133e+18
14377.0	1.7727660956319741e+18
14378.0	1.772340546581299e+18
14379.0	1.7719213074415608e+18
14380.0	1.7714942853513213e+18
14381.0	1.7710593779695616e+18
14382.0	1.7706479234580477e+18
14383.0	1.7701680011280381e+18
14384.0	1.7697765198921723e+18
14385.0	1.7693848339742715e+18
14386.0	1.7689399290494976e+18
14387.0	1.7685384771141632e+18
14388.0	1.7681131595890688e+18
14389.0	1.7676953012142077e+18
14390.0	1.7672726797877243e+18
14391.0	1.7668297226977275e+18
14392.0	1.7663715251847165e+18
14393.0	1.7660107814862843e+18
14394.0	1.765541457323622e+18
14395.0	1.763794470987366e+18
14396.0	1.7646791671414781e+18
14397.0	1.7643268036624381e+18
14398.0	1.763853414380339e+18
14399.0	1.7634625958445053e+18
14400.0	1.76200714551296e+18
14401.0	1.7626296255250427e+18
14402.0	1.7622169144000512e+18
14403.0	1.7513484409372498e+18
14404.0	1.7356074344513498e+18
14405.0	1.7595749223104453e+18
14406.0	1.7605427797688323e+18
14407.0	1.7434663924531284e+18
14408.0	1.7593608383234043e+18
14409.0	1.759254069798502e+18
14410.0	1.7587758503559163e+18
14411.0	1.7583850804740096e+18
14412.0	1.7580223218319357e+18
14413.0	1.757605275474329e+18
14414.0	1.7571840314572795e+18
14415.0	1.7567711391383547e+18
14416.0	1.7562806639394808e+18
14417.0	1.755641468787097e+18
14418.0	1.7552825487720448e+18
14419.0	1.755097502790451e+18
14420.0	1.7546738814418941e+18
14421.0	1.7542616065245181e+18
14422.0	1.7538375556792315e+18
14423.0	1.7534114999566333e+18
14424.0	1.697536357800315e+18
14425.0	1.7525827927277568e+18
14426.0	1.7521699759063037e+18
14427.0	1.751754432787251e+18
14428.0	1.751271440226713e+18
14429.0	1.7509197579026427e+18
14430.0	1.7505045352284152e+18
14431.0	1.7484755020808202e+18
14432.0	1.7496109874151421e+18
14433.0	1.736693056221995e+18
14434.0	1.7488192051609597e+18
14435.0	1.7481618436390904e+18
14436.0	1.7480097799864317e+18
14437.0	1.7475934835703805e+18
14438.0	1.7467057255743488e+18
14439.0	1.7466662890504187e+18
14440.0	1.7463464666595328e+18
14441.0	1.7459213353615352e+18
14442.0	1.7455051714854907e+18
14443.0	1.74504402789335e+18
14444.0	1.744677576586035e+18
14445.0	1.7442676890664957e+18
14446.0	1.7308405274247224e+18
14447.0	1.743422370716057e+18
14448.0	1.7430216066465787e+18
14449.0	1.742609986040627e+18
14450.0	1.7421900758122493e+18
14451.0	1.7417772640239613e+18
14452.0	1.7413601522352125e+18
14453.0	1.740676651810816e+18
14454.0	1.7405269906554875e+18
14455.0	1.7401138567446528e+18
14456.0	1.7396417475641341e+18
14457.0	1.7391728512204797e+18
14458.0	1.7381497950437379e+18
14459.0	1.7383516719284221e+18
14460.0	1.7380410182860795e+18
14461.0	1.7374954416766976e+18
14462.0	1.735087085741671e+18
14463.0	1.7367690855317504e+18
14464.0	1.7363952925147133e+18
14465.0	1.7359685992579064e+18
14466.0	1.735565637373133e+18
14467.0	1.7349687627481085e+18
14468.0	1.7347332089577464e+18
14469.0	1.734252155843379e+18
14470.0	1.733895782609715e+18
14471.0	1.733491575855513e+18
14472.0	1.7330887213449208e+18
14473.0	1.7326932454539261e+18
14474.0	1.7322839048716285e+18
14475.0	1.7318614679945208e+18
14476.0	1.7306007759749123e+18
14477.0	1.7310456876105725e+18
14478.0	1.73063386735575e+18
14479.0	1.730197513777971e+18
14480.0	1.7297980147105787e+18
14481.0	1.729410133865267e+18
14482.0	1.7289948910583805e+18
14483.0	1.7285713233969152e+18
14484.0	1.7281749348253693e+18
14485.0	1.727718092911411e+18
14486.0	1.727015795294208e+18
14487.0	1.7269322514694136e+18
14488.0	1.7259748093067267e+18
14489.0	1.725937622607462e+18
14490.0	1.7256614696321024e+18
14491.0	1.7253120404881405e+18
14492.0	1.7248632583487485e+18
14493.0	1.7243862233776123e+18
14494.0	1.7240398376206333e+18
14495.0	1.7236772333289472e+18
14496.0	1.7231113663545344e+18
14497.0	1.7228578290663421e+18
14498.0	1.7224466580897787e+18
14499.0	1.722044263274905e+18
14500.0	1.721635310246297e+18
14501.0	1.7208159663816704e+18
14502.0	1.7199232037421064e+18
14503.0	1.7202675259015165e+18
14504.0	1.719993953261977e+18
14505.0	1.7192048369074166e+18
14506.0	1.718288045939097e+18
14507.0	1.718497499414528e+18
14508.0	1.7183714521907195e+18
14509.0	1.7179642607697915e+18
14510.0	1.7175553966604288e+18
14511.0	1.7171509114044413e+18
14512.0	1.7167227266531325e+18
14513.0	1.7163329181057021e+18
14514.0	1.7157230361051133e+18
14515.0	1.7155024459137024e+18
14516.0	1.7127855334883343e+18
14517.0	1.7147078266322941e+18
14518.0	1.7143001688047613e+18
14519.0	1.7138932793737213e+18
14520.0	1.7134883126116347e+18
14521.0	1.7130656341426176e+18
14522.0	1.7126361827115005e+18
14523.0	1.7111225926156278e+18
14524.0	1.710893427589119e+18
14525.0	1.7114515384565757e+18
14526.0	1.7110424780537856e+18
14527.0	1.7105078653550587e+18
14528.0	1.709502611482213e+18
14529.0	1.7098245947785216e+18
14530.0	1.7094066709725181e+18
14531.0	1.7090243467411453e+18
14532.0	1.7068018739707907e+18
14533.0	1.708215161480806e+18
14534.0	1.7078134209773563e+18
14535.0	1.7073911048962048e+18
14536.0	1.7069971121111037e+18
14537.0	1.706578913158758e+18
14538.0	1.7061853045719035e+18
14539.0	1.705790087050035e+18
14540.0	1.7053859037839357e+18
14541.0	1.7049533653450747e+18
14542.0	1.7045738999513088e+18
14543.0	1.7035828412809213e+18
14544.0	1.7037682395840507e+18
14545.0	1.70333625647104e+18
14546.0	1.6564476471934784e+18
14547.0	1.660512154261889e+18
14548.0	1.7021375445204987e+18
14549.0	1.7016160264388605e+18
14550.0	1.7013383031160832e+18
14551.0	1.7009513315958784e+18
14552.0	1.7005172295204861e+18
14553.0	1.7001059679469565e+18
14554.0	1.6997422211268603e+18
14555.0	1.6993366134751227e+18
14556.0	1.6989110912679933e+18
14557.0	1.6985357178372093e+18
14558.0	1.69812947936215e+18
14559.0	1.6945980934979502e+18
14560.0	1.6960684034097119e+18
14561.0	1.6969279790383104e+18
14562.0	1.6964589551878141e+18
14563.0	1.696130730767155e+18
14564.0	1.6955331665985533e+18
14565.0	1.695334249214771e+18
14566.0	1.6949336646615035e+18
14567.0	1.694526753420083e+18
14568.0	1.6932180936622085e+18
14569.0	1.693715517983948e+18
14570.0	1.6924665817595904e+18
14571.0	1.6929237692841981e+18
14572.0	1.6922240167706621e+18
14573.0	1.69201213898752e+18
14574.0	1.6911704529043453e+18
14575.0	1.6912705407418365e+18
14576.0	1.6908932916183035e+18
14577.0	1.690515245577011e+18
14578.0	1.6901224926281725e+18
14579.0	1.689723023759769e+18
14580.0	1.689326598278348e+18
14581.0	1.6888360593260541e+18
14582.0	1.688516490271129e+18
14583.0	1.6881307350990848e+18
14584.0	1.6876872981807104e+18
14585.0	1.6873313997422587e+18
14586.0	1.6869292549079037e+18
14587.0	1.6865146848673787e+18
14588.0	1.6861288290320381e+18
14589.0	1.6857520228270077e+18
14590.0	1.685371876278272e+18
14591.0	1.6849487381135352e+18
14592.0	1.6845927054573563e+18
14593.0	1.6840571196801024e+18
14594.0	1.683835952352461e+18
14595.0	1.6834492710780928e+18
14596.0	1.6822320186261484e+18
14597.0	1.6818032785489902e+18
14598.0	1.6822552148049915e+18
14599.0	1.681930691438182e+18
14600.0	1.681507563339776e+18
14601.0	1.6811567936962557e+18
14602.0	1.6806001357357053e+18
14603.0	1.6802982414778365e+18
14604.0	1.6798683286732797e+18
14605.0	1.679333237823897e+18
14606.0	1.678786401245594e+18
14607.0	1.6788706430025725e+18
14608.0	1.6784710365609981e+18
14609.0	1.6779636264402936e+18
14610.0	1.6771477353267203e+18
14611.0	1.677318186808115e+18
14612.0	1.6769664306642944e+18
14613.0	1.6765916243034112e+18
14614.0	1.6762024449015803e+18
14615.0	1.6755139901652987e+18
14616.0	1.675450161247027e+18
14617.0	1.675069883836006e+18
14618.0	1.674398338855731e+18
14619.0	1.67384172451594e+18
14620.0	1.671516929182925e+18
14621.0	1.673551569276108e+18
14622.0	1.6731676461760512e+18
14623.0	1.6727910379421688e+18
14624.0	1.6723413414445053e+18
14625.0	1.6720270605680635e+18
14626.0	1.6716180421083133e+18
14627.0	1.6712203667243e+18
14628.0	1.6708931388702715e+18
14629.0	1.6705136214671357e+18
14630.0	1.6701217610661885e+18
14631.0	1.669735968984268e+18
14632.0	1.663726239350787e+18
14633.0	1.6682567403044838e+18
14634.0	1.6685839312486397e+18
14635.0	1.6613924765957724e+18
14636.0	1.6452392505573276e+18
14637.0	1.6674806346809336e+18
14638.0	1.6669661764517885e+18
14639.0	1.6666772862140408e+18
14640.0	1.666339705140019e+18
14641.0	1.6457161949314916e+18
14642.0	1.6655814974504957e+18
14643.0	1.6652000187908093e+18
14644.0	1.6647963522629624e+18
14645.0	1.6644119476568061e+18
14646.0	1.663763191169024e+18
14647.0	1.6634207447023613e+18
