# Flux units: erg / (cm m2 s)
# Wavelength units: Angstrom
wave	flux
14000.0	1.6426800372514813e+18
14001.0	1.6434728982806525e+18
14002.0	1.6435349152595965e+18
14003.0	1.6432952896389112e+18
14004.0	1.6430221347520512e+18
14005.0	1.6427508220035072e+18
14006.0	1.6424569589989376e+18
14007.0	1.642164909611417e+18
14008.0	1.6417202882215933e+18
14009.0	1.6415843994828797e+18
14010.0	1.6412772506009597e+18
14011.0	1.6405021264445435e+18
14012.0	1.640691933800038e+18
14013.0	1.640469229679411e+18
14014.0	1.6401863775617021e+18
14015.0	1.6399081744105467e+18
14016.0	1.6396245018869757e+18
14017.0	1.6393400156684285e+18
14018.0	1.638935196545843e+18
14019.0	1.6387689209135104e+18
14020.0	1.6384824147181565e+18
14021.0	1.6381953263534075e+18
14022.0	1.6379042383003643e+18
14023.0	1.6376094408048637e+18
14024.0	1.6373261122142205e+18
14025.0	1.6370474325901312e+18
14026.0	1.6367585138311165e+18
14027.0	1.6364641324105725e+18
14028.0	1.6361460884045821e+18
14029.0	1.6357449451700221e+18
14030.0	1.6340085922332672e+18
14031.0	1.6346823669055485e+18
14032.0	1.634959617110835e+18
14033.0	1.634696622505984e+18
14034.0	1.634474789122867e+18
14035.0	1.6341934519877624e+18
14036.0	1.633853377819443e+18
14037.0	1.6336202449813504e+18
14038.0	1.6333565792878592e+18
14039.0	1.6330695009894397e+18
14040.0	1.6327888651419648e+18
14041.0	1.6325050382680061e+18
14042.0	1.6322118799065085e+18
14043.0	1.631907011048243e+18
14044.0	1.6315801455820797e+18
14045.0	1.6312957549936635e+18
14046.0	1.6310828756107256e+18
14047.0	1.6307944115142653e+18
14048.0	1.6305132371181565e+18
14049.0	1.6302379330699261e+18
14050.0	1.6299545373704187e+18
14051.0	1.6296651605934077e+18
14052.0	1.6293830500286461e+18
14053.0	1.6291051874549757e+18
14054.0	1.6288223051382781e+18
14055.0	1.6285392080732157e+18
14056.0	1.6282560506101757e+18
14057.0	1.6279729334124544e+18
14058.0	1.6276895058362363e+18
14059.0	1.627293585349017e+18
14060.0	1.6271201861107707e+18
14061.0	1.6268312505745405e+18
14062.0	1.626546207352422e+18
14063.0	1.6262103677534205e+18
14064.0	1.6255159990484995e+18
14065.0	1.625678909171302e+18
14066.0	1.6254196776959997e+18
14067.0	1.6251370722033661e+18
14068.0	1.624859749856051e+18
14069.0	1.6245783523229693e+18
14070.0	1.6242926078132224e+18
14071.0	1.624012374618931e+18
14072.0	1.6237321162588157e+18
14073.0	1.6234490779140088e+18
14074.0	1.6231644272787456e+18
14075.0	1.6228583689158656e+18
14076.0	1.622559449258393e+18
14077.0	1.6219390647205885e+18
14078.0	1.6219259600371707e+18
14079.0	1.6217310188535805e+18
14080.0	1.6214182059835392e+18
14081.0	1.621181320082227e+18
14082.0	1.6209072760029181e+18
14083.0	1.6206158154956797e+18
14084.0	1.6202953857695741e+18
14085.0	1.619795545528729e+18
14086.0	1.6196625978359805e+18
14087.0	1.619409887664537e+18
14088.0	1.619205073089331e+18
14089.0	1.6189388656476157e+18
14090.0	1.6186618553565181e+18
14091.0	1.618382556653158e+18
14092.0	1.6181020583788544e+18
14093.0	1.617820244770816e+18
14094.0	1.6175364497735677e+18
14095.0	1.6172481266057213e+18
14096.0	1.6169471869714432e+18
14097.0	1.6166544245522432e+18
14098.0	1.616397489877811e+18
14099.0	1.6161279722913792e+18
14100.0	1.6158442376921088e+18
14101.0	1.6155758039138304e+18
14102.0	1.6152924451241981e+18
14103.0	1.6150002246090747e+18
14104.0	1.6147347939524605e+18
14105.0	1.6144582064472061e+18
14106.0	1.6141777668931581e+18
14107.0	1.613805077816934e+18
14108.0	1.6135931463467005e+18
14109.0	1.6133312875593728e+18
14110.0	1.613048271024947e+18
14111.0	1.6127628536709115e+18
14112.0	1.6124658432606203e+18
14113.0	1.6121864942256123e+18
14114.0	1.6118625781940221e+18
14115.0	1.611507139451289e+18
14116.0	1.610656657073766e+18
14117.0	1.6079441587339261e+18
14118.0	1.6103821331660795e+18
14119.0	1.6103924108886016e+18
14120.0	1.6101745822269435e+18
14121.0	1.6099196272639997e+18
14122.0	1.609659724700057e+18
14123.0	1.6093814661840893e+18
14124.0	1.6090578236211197e+18
14125.0	1.6085503229034493e+18
14126.0	1.6085279622299648e+18
14127.0	1.6082891050057725e+18
14128.0	1.6080213423161341e+18
14129.0	1.6077350038929405e+18
14130.0	1.607425469290905e+18
14131.0	1.6071557688328192e+18
14132.0	1.6068452947066875e+18
14133.0	1.6062849273036797e+18
14134.0	1.606204960381337e+18
14135.0	1.6060575792496637e+18
14136.0	1.6057909691547648e+18
14137.0	1.605511029561753e+18
14138.0	1.6052291387785216e+18
14139.0	1.604954832974643e+18
14140.0	1.6046661121867776e+18
14141.0	1.6043519755943939e+18
14142.0	1.6040517238259707e+18
14143.0	1.603827538277171e+18
14144.0	1.6035714424635387e+18
14145.0	1.6033005525008384e+18
14146.0	1.603015411970867e+18
14147.0	1.6027534491647997e+18
14148.0	1.602477881714278e+18
14149.0	1.6022022236667901e+18
14150.0	1.6019257653460987e+18
14151.0	1.6016479648481277e+18
14152.0	1.6013726926766075e+18
14153.0	1.601097907044352e+18
14154.0	1.600795559801651e+18
14155.0	1.600495264412467e+18
14156.0	1.6002623832326144e+18
14157.0	1.5999871043502077e+18
14158.0	1.5997099648745472e+18
14159.0	1.5994302433853437e+18
14160.0	1.5991353133498365e+18
14161.0	1.598833741214515e+18
14162.0	1.598529587065651e+18
14163.0	1.598221262100889e+18
14164.0	1.5980038881017856e+18
14165.0	1.5977527130456061e+18
14166.0	1.5974930671730685e+18
14167.0	1.5972085289451515e+18
14168.0	1.5969466533806075e+18
14169.0	1.5966701011075067e+18
14170.0	1.596396758315827e+18
14171.0	1.596118761524428e+18
14172.0	1.5958469907578875e+18
14173.0	1.5955639457021947e+18
14174.0	1.5952889436438528e+18
14175.0	1.5950191425224701e+18
14176.0	1.5947460597776381e+18
14177.0	1.5944705544028152e+18
14178.0	1.5941943494180856e+18
14179.0	1.5939163861811197e+18
14180.0	1.5936422431162365e+18
14181.0	1.593365283156787e+18
14182.0	1.5930864022061056e+18
14183.0	1.5928045617545213e+18
14184.0	1.5925096619180032e+18
14185.0	1.5921711950069757e+18
14186.0	1.59155163758592e+18
14187.0	1.591543373129318e+18
14188.0	1.5913717841526781e+18
14189.0	1.5911307727339515e+18
14190.0	1.5908759486332928e+18
14191.0	1.5906003358842883e+18
14192.0	1.590298607720857e+18
14193.0	1.5899999682428925e+18
14194.0	1.589775697130291e+18
14195.0	1.589513955783475e+18
14196.0	1.5892423175569403e+18
14197.0	1.5889671997358075e+18
14198.0	1.5886845858545664e+18
14199.0	1.5883851528142843e+18
14200.0	1.5878439131152381e+18
14201.0	1.5877181645258747e+18
14202.0	1.5875738032930813e+18
14203.0	1.5873165498515453e+18
14204.0	1.5870438747930621e+18
14205.0	1.586760385141145e+18
14206.0	1.5864243895140355e+18
14207.0	1.586209446533529e+18
14208.0	1.585943410219417e+18
14209.0	1.585586622588518e+18
14210.0	1.5853252218191872e+18
14211.0	1.5851206253477888e+18
14212.0	1.5848624911024123e+18
14213.0	1.5845917320019965e+18
14214.0	1.584317350700646e+18
14215.0	1.5840315827027963e+18
14216.0	1.583771282518835e+18
14217.0	1.5835000352014333e+18
14218.0	1.5832136212807675e+18
14219.0	1.582947340019302e+18
14220.0	1.582668430547353e+18
14221.0	1.5823990807330813e+18
14222.0	1.582107333335449e+18
14223.0	1.5818233118457853e+18
14224.0	1.58147977150464e+18
14225.0	1.5801049054969856e+18
14226.0	1.5806902575300605e+18
14227.0	1.5805305216565248e+18
14228.0	1.5768391700709379e+18
14229.0	1.5785040302571507e+18
14230.0	1.5798314754637821e+18
14231.0	1.5796309088796672e+18
14232.0	1.5793877113896957e+18
14233.0	1.579124572500787e+18
14234.0	1.5788571587772413e+18
14235.0	1.578585201783603e+18
14236.0	1.5783137648836605e+18
14237.0	1.5780340803043325e+18
14238.0	1.5777469164421115e+18
14239.0	1.5773803627937792e+18
14240.0	1.5757516910624765e+18
14241.0	1.576740259994009e+18
14242.0	1.576619440550707e+18
14243.0	1.5763100401663997e+18
14244.0	1.576126378305126e+18
14245.0	1.5758621774184443e+18
14246.0	1.5755931279163392e+18
14247.0	1.5753217463812096e+18
14248.0	1.575040598828646e+18
14249.0	1.574778896069427e+18
14250.0	1.574507834979123e+18
14251.0	1.574230883408281e+18
14252.0	1.5739481822855165e+18
14253.0	1.5736449391394816e+18
14254.0	1.5733367685251072e+18
14255.0	1.572894569765273e+18
14256.0	1.571829365866496e+18
14257.0	1.5719438502330365e+18
14258.0	1.5721571389800443e+18
14259.0	1.5719428821876733e+18
14260.0	1.5716537906233341e+18
14261.0	1.571345469014016e+18
14262.0	1.5708971801247741e+18
14263.0	1.56938138550272e+18
14264.0	1.5695321858310144e+18
14265.0	1.5701558738026493e+18
14266.0	1.5700653070352381e+18
14267.0	1.5698498724823037e+18
14268.0	1.569593712915251e+18
14269.0	1.5693223615791104e+18
14270.0	1.5690453881978883e+18
14271.0	1.568731736467046e+18
14272.0	1.5683503735701501e+18
14273.0	1.5676357899976701e+18
14274.0	1.5654387514867712e+18
14275.0	1.566544411964211e+18
14276.0	1.5671502925987835e+18
14277.0	1.5670816049987584e+18
14278.0	1.5668804092690432e+18
14279.0	1.5666393491963901e+18
14280.0	1.566384592204595e+18
14281.0	1.566128278287155e+18
14282.0	1.5658653289807872e+18
14283.0	1.5655996953198587e+18
14284.0	1.5653322966958077e+18
14285.0	1.5650629837914112e+18
14286.0	1.5647908875468795e+18
14287.0	1.564510867423232e+18
14288.0	1.5641623241162755e+18
14289.0	1.563042144636108e+18
14290.0	1.563631367172915e+18
14291.0	1.5634343892353021e+18
14292.0	1.5631680408649728e+18
14293.0	1.562893844112998e+18
14294.0	1.5625483240603643e+18
14295.0	1.5622787024551939e+18
14296.0	1.5613737260023805e+18
14297.0	1.5616127543541757e+18
14298.0	1.561222449201152e+18
14299.0	1.5611930353860603e+18
14300.0	1.560998810589593e+18
14301.0	1.5607474308513787e+18
14302.0	1.560482882676326e+18
14303.0	1.560179424781926e+18
14304.0	1.5599332375920637e+18
14305.0	1.5596727226597376e+18
14306.0	1.55939642540032e+18
14307.0	1.5591218343837693e+18
14308.0	1.5588509226106877e+18
14309.0	1.5585719527407613e+18
14310.0	1.5582838443212795e+18
14311.0	1.5579730900156413e+18
14312.0	1.5577110366126075e+18
14313.0	1.557351400210432e+18
14314.0	1.5572411772567547e+18
14315.0	1.5569738776182781e+18
14316.0	1.556692238493286e+18
14317.0	1.556443519621529e+18
14318.0	1.5561933629423616e+18
14319.0	1.5559328127778813e+18
14320.0	1.555669771196825e+18
14321.0	1.5554001814683648e+18
14322.0	1.5551172186210304e+18
14323.0	1.5548571700953088e+18
14324.0	1.554601794024243e+18
14325.0	1.5543277566558203e+18
14326.0	1.5540765681778685e+18
14327.0	1.5538030475476992e+18
14328.0	1.5535427960176635e+18
14329.0	1.553283317917286e+18
14330.0	1.5530176406355965e+18
14331.0	1.5527513241419776e+18
14332.0	1.552484995904307e+18
14333.0	1.552217859004825e+18
14334.0	1.5519480025186301e+18
14335.0	1.5516503713513467e+18
14336.0	1.5513112534843392e+18
14337.0	1.551137320730624e+18
14338.0	1.5508832264388603e+18
14339.0	1.5506104020631547e+18
14340.0	1.550354583073587e+18
14341.0	1.5500867734077435e+18
14342.0	1.5497985005715453e+18
14343.0	1.5495544642207741e+18
14344.0	1.5492268555239421e+18
14345.0	1.548985976645222e+18
14346.0	1.5487445793505275e+18
14347.0	1.5484686830665728e+18
14348.0	1.5482074249035776e+18
14349.0	1.5479346928025603e+18
14350.0	1.5475758063419392e+18
14351.0	1.5473053945298941e+18
14352.0	1.547123646948966e+18
14353.0	1.5468760571838464e+18
14354.0	1.5466099202064381e+18
14355.0	1.546327839840665e+18
14356.0	1.5460433989206013e+18
14357.0	1.545795096123801e+18
14358.0	1.5455675534540797e+18
14359.0	1.5452886691479547e+18
14360.0	1.5450263221436413e+18
14361.0	1.5447659045191677e+18
14362.0	1.5444960681656312e+18
14363.0	1.5441978934165504e+18
14364.0	1.543711609166233e+18
14365.0	1.5435138846425085e+18
14366.0	1.5433571770564603e+18
14367.0	1.5431750737985533e+18
14368.0	1.542913231788441e+18
14369.0	1.542659397543526e+18
14370.0	1.5423981158924285e+18
14371.0	1.5421327473115133e+18
14372.0	1.5418544434970621e+18
14373.0	1.5415920646160381e+18
14374.0	1.5413273771900925e+18
14375.0	1.5410537575743485e+18
14376.0	1.540812348535603e+18
14377.0	1.540547979876761e+18
14378.0	1.5402829736837115e+18
14379.0	1.5400158384619515e+18
14380.0	1.5397521677352957e+18
14381.0	1.539482443789107e+18
14382.0	1.5392286179327997e+18
14383.0	1.5389646083063805e+18
14384.0	1.5386846821351421e+18
14385.0	1.5384396525731837e+18
14386.0	1.5381577919889405e+18
14387.0	1.537912336285696e+18
14388.0	1.5376466338381821e+18
14389.0	1.5373846441885693e+18
14390.0	1.5371196346400763e+18
14391.0	1.5368588294619133e+18
14392.0	1.5365917865148413e+18
14393.0	1.5363298522300413e+18
14394.0	1.5360263943356413e+18
14395.0	1.5357945600540667e+18
14396.0	1.5355290438336507e+18
14397.0	1.5352769258979325e+18
14398.0	1.5350116361699323e+18
14399.0	1.5347324381298688e+18
14400.0	1.5344612344332288e+18
14401.0	1.5341917051027456e+18
14402.0	1.5338981239554043e+18
14403.0	1.533429660463923e+18
14404.0	1.531068047530393e+18
14405.0	1.5310485507276787e+18
14406.0	1.5327181420888067e+18
14407.0	1.5324760904826875e+18
14408.0	1.5323237768495104e+18
14409.0	1.532081179983872e+18
14410.0	1.531825079137075e+18
14411.0	1.5315795496140797e+18
14412.0	1.5313244134572024e+18
14413.0	1.5310674301288443e+18
14414.0	1.5308050646695939e+18
14415.0	1.5305429961670653e+18
14416.0	1.5302773725724667e+18
14417.0	1.5300101282988024e+18
14418.0	1.5297468753248253e+18
14419.0	1.529488001204224e+18
14420.0	1.5292231694942203e+18
14421.0	1.5289558144909307e+18
14422.0	1.5286787857448957e+18
14423.0	1.5283610554728448e+18
14424.0	1.5277410601664507e+18
14425.0	1.5278336519438336e+18
14426.0	1.5276412994846715e+18
14427.0	1.5273895556808704e+18
14428.0	1.5271047154630653e+18
14429.0	1.526845849731072e+18
14430.0	1.5264986955775995e+18
14431.0	1.5258558580916221e+18
14432.0	1.5260152768757752e+18
14433.0	1.525716998107955e+18
14434.0	1.525534007335321e+18
14435.0	1.5252804180377597e+18
14436.0	1.5250397287415805e+18
14437.0	1.5247821917650941e+18
14438.0	1.5244771417128957e+18
14439.0	1.524236269545062e+18
14440.0	1.5240025545375741e+18
14441.0	1.5237278326587392e+18
14442.0	1.5234605279870973e+18
14443.0	1.5231692788727803e+18
14444.0	1.5229340220391421e+18
14445.0	1.5226472826404867e+18
14446.0	1.52169751773184e+18
14447.0	1.522028149682995e+18
14448.0	1.52189930569728e+18
14449.0	1.521652118585344e+18
14450.0	1.5213905081008125e+18
14451.0	1.521133955946905e+18
14452.0	1.5208767780028413e+18
14453.0	1.520615080276787e+18
14454.0	1.5203472068575232e+18
14455.0	1.5200835881402365e+18
14456.0	1.5198147131211776e+18
14457.0	1.5195535874981888e+18
14458.0	1.5192921598853112e+18
14459.0	1.5190212632117243e+18
14460.0	1.5187509906505725e+18
14461.0	1.5184636472721405e+18
14462.0	1.518180149231616e+18
14463.0	1.5179580205694973e+18
14464.0	1.5177118518345725e+18
14465.0	1.5174388613644285e+18
14466.0	1.5172132329750523e+18
14467.0	1.5169467990409213e+18
14468.0	1.5166978637430781e+18
14469.0	1.516368562225152e+18
14470.0	1.5161620883832832e+18
14471.0	1.5159239039254525e+18
14472.0	1.5156764316008443e+18
14473.0	1.515426860446515e+18
14474.0	1.5151743868338173e+18
14475.0	1.5149162643324925e+18
14476.0	1.514654400512e+18
14477.0	1.5143985446125565e+18
14478.0	1.5141404086894584e+18
14479.0	1.5138821872025597e+18
14480.0	1.5136084031700992e+18
14481.0	1.5133623703306237e+18
14482.0	1.513094844199731e+18
14483.0	1.5128311415963648e+18
14484.0	1.5125576343879675e+18
14485.0	1.5122492372811773e+18
14486.0	1.5118569054404605e+18
14487.0	1.511775730558566e+18
14488.0	1.511528828659302e+18
14489.0	1.511248672640204e+18
14490.0	1.511013320176435e+18
14491.0	1.5107774341971965e+18
14492.0	1.5105185382662141e+18
14493.0	1.5102450394464253e+18
14494.0	1.5099767264641021e+18
14495.0	1.5097206054846464e+18
14496.0	1.5094044505931773e+18
14497.0	1.5092147455787003e+18
14498.0	1.5089669712642048e+18
14499.0	1.5087143349125115e+18
14500.0	1.5084557913030653e+18
14501.0	1.5081567659491325e+18
14502.0	1.507747291149107e+18
14503.0	1.5076556405735421e+18
14504.0	1.5074157129629693e+18
14505.0	1.5071590937001984e+18
14506.0	1.5068678143868928e+18
14507.0	1.506483973495193e+18
14508.0	1.506366962479923e+18
14509.0	1.506135792576102e+18
14510.0	1.505877868045926e+18
14511.0	1.5056217755877376e+18
14512.0	1.5053558281928701e+18
14513.0	1.5050885033885693e+18
14514.0	1.5047985779965947e+18
14515.0	1.5044248017567741e+18
14516.0	1.5019057682055173e+18
14517.0	1.5036808714780667e+18
14518.0	1.5037687874453504e+18
14519.0	1.5034872909266941e+18
14520.0	1.5033068955893752e+18
14521.0	1.5030556483911677e+18
14522.0	1.502796670251827e+18
14523.0	1.502527939516825e+18
14524.0	1.5022754088615936e+18
14525.0	1.5020277939306493e+18
14526.0	1.5017660290957312e+18
14527.0	1.5014601150169085e+18
14528.0	1.5011593783869437e+18
14529.0	1.5009976628019203e+18
14530.0	1.500742739715686e+18
14531.0	1.5004907241209853e+18
14532.0	1.5002338582331387e+18
14533.0	1.499975002567475e+18
14534.0	1.4997218914205693e+18
14535.0	1.499460067865395e+18
14536.0	1.49921026015232e+18
14537.0	1.4989450207559675e+18
14538.0	1.4987029674721275e+18
14539.0	1.4984467995164667e+18
14540.0	1.498190556063334e+18
14541.0	1.497901840308633e+18
14542.0	1.4976748831637501e+18
14543.0	1.4974027701420032e+18
14544.0	1.4971476893499387e+18
14545.0	1.496854227320832e+18
14546.0	1.4957955447259128e+18
14547.0	1.4954837955313664e+18
14548.0	1.4960555580194813e+18
14549.0	1.4957836899450875e+18
14550.0	1.4955993653837821e+18
14551.0	1.4953731397255163e+18
14552.0	1.495111777543782e+18
14553.0	1.4948586999513085e+18
14554.0	1.4946118953598973e+18
14555.0	1.4943539238535165e+18
14556.0	1.4940871057211387e+18
14557.0	1.4938121388949501e+18
14558.0	1.4934087189921792e+18
14559.0	1.4915059293618166e+18
14560.0	1.4928851171803128e+18
14561.0	1.4927822258700285e+18
14562.0	1.4925240161271803e+18
14563.0	1.4922987450925053e+18
14564.0	1.4919590433783803e+18
14565.0	1.491802667981209e+18
14566.0	1.4915517009625085e+18
14567.0	1.4912942948483067e+18
14568.0	1.4910282400792568e+18
14569.0	1.4907268390715392e+18
14570.0	1.4900412314288125e+18
14571.0	1.490232253454745e+18
14572.0	1.4899818333732864e+18
14573.0	1.4897135891775488e+18
14574.0	1.4894921081159675e+18
14575.0	1.4892482311487483e+18
14576.0	1.4889726871863293e+18
14577.0	1.4887479060463616e+18
14578.0	1.4884976990355456e+18
14579.0	1.4882530670936064e+18
14580.0	1.4879973152129021e+18
14581.0	1.487741801568665e+18
14582.0	1.487476240049766e+18
14583.0	1.487234737058611e+18
14584.0	1.486965132230656e+18
14585.0	1.4867228893642747e+18
14586.0	1.4864766971412477e+18
14587.0	1.4862202372620285e+18
14588.0	1.4859611332935675e+18
14589.0	1.4857096562475003e+18
14590.0	1.4854537869262848e+18
14591.0	1.485192325758976e+18
14592.0	1.4849182867128315e+18
14593.0	1.4846107989311488e+18
14594.0	1.484410747407564e+18
14595.0	1.4841410284945403e+18
14596.0	1.4835432663547901e+18
14597.0	1.4832369663999995e+18
14598.0	1.4833325311000573e+18
14599.0	1.4831517431758845e+18
14600.0	1.4829092033527803e+18
14601.0	1.4826582078128125e+18
14602.0	1.482396624171827e+18
14603.0	1.4821437764272125e+18
14604.0	1.4818470210306048e+18
14605.0	1.4815256249368573e+18
14606.0	1.4812804980670464e+18
14607.0	1.481132586775347e+18
14608.0	1.4808144253288448e+18
14609.0	1.480502182884147e+18
14610.0	1.480238134670131e+18
14611.0	1.4799471237922813e+18
14612.0	1.4798787851583485e+18
14613.0	1.4796297189982205e+18
14614.0	1.4792866047983613e+18
14615.0	1.479060416049971e+18
14616.0	1.4788635505197053e+18
14617.0	1.478393941144371e+18
14618.0	1.4781209959727096e+18
14619.0	1.4775768538152957e+18
14620.0	1.4771724457345021e+18
14621.0	1.4774887532986368e+18
14622.0	1.4773231621767165e+18
14623.0	1.4770953208725501e+18
14624.0	1.4768268854165501e+18
14625.0	1.4766012167618557e+18
14626.0	1.4762841307348992e+18
14627.0	1.476036663443456e+18
14628.0	1.475865782465331e+18
14629.0	1.4756143859499003e+18
14630.0	1.4752919328915453e+18
14631.0	1.475037934229913e+18
14632.0	1.474676079879782e+18
14633.0	1.4745547470536701e+18
14634.0	1.4743505951784957e+18
14635.0	1.4740576716980216e+18
14636.0	1.4736790904635392e+18
14637.0	1.4735967545982976e+18
14638.0	1.4733246986190845e+18
14639.0	1.4730699634376701e+18
14640.0	1.4728195215458301e+18
14641.0	1.4724585899425792e+18
14642.0	1.4723161463455741e+18
14643.0	1.4720788426915837e+18
14644.0	1.4718154303340541e+18
14645.0	1.4714862311571456e+18
14646.0	1.4712309490384893e+18
14647.0	1.4710521441812475e+18
