# Flux units: erg / (cm m2 s)
# Wavelength units: Angstrom
wave	flux
14000.0	1.3491008427786237e+18
14001.0	1.3488435373277181e+18
14002.0	1.3487040549093373e+18
14003.0	1.34850279374848e+18
14004.0	1.3483014327631867e+18
14005.0	1.3481000399011837e+18
14006.0	1.347897177355059e+18
14007.0	1.3476962039234557e+18
14008.0	1.3474761858351101e+18
14009.0	1.3472936782462973e+18
14010.0	1.3470928541319163e+18
14011.0	1.3467679398559744e+18
14012.0	1.3466898729533437e+18
14013.0	1.3464905915039741e+18
14014.0	1.3462898219155456e+18
14015.0	1.3460886555459581e+18
14016.0	1.3458881275494397e+18
14017.0	1.3456873596387328e+18
14018.0	1.3454807180247037e+18
14019.0	1.3452858758266877e+18
14020.0	1.3450850986885117e+18
14021.0	1.344884371043123e+18
14022.0	1.3446838262693885e+18
14023.0	1.3444832101924861e+18
14024.0	1.3442817426718717e+18
14025.0	1.3440824217960445e+18
14026.0	1.3438818124300285e+18
14027.0	1.3436816594042877e+18
14028.0	1.3434813100851197e+18
14029.0	1.343280741823283e+18
14030.0	1.3430370334670845e+18
14031.0	1.3428753304649725e+18
14032.0	1.3426802273812477e+18
14033.0	1.3424747794661376e+18
14034.0	1.3422803231440893e+18
14035.0	1.3420804477812733e+18
14036.0	1.3418805187313664e+18
14037.0	1.3416806131695613e+18
14038.0	1.3414807537451005e+18
14039.0	1.341280935424819e+18
14040.0	1.341081156530995e+18
14041.0	1.3408813935755261e+18
14042.0	1.340680210428723e+18
14043.0	1.340475134128947e+18
14044.0	1.3402765204127741e+18
14045.0	1.3400789158461437e+18
14046.0	1.339883456246579e+18
14047.0	1.3396838644187133e+18
14048.0	1.3394845578035197e+18
14049.0	1.3392852218281981e+18
14050.0	1.3390858917249021e+18
14051.0	1.3388853519843325e+18
14052.0	1.3386872868831227e+18
14053.0	1.3384881950162941e+18
14054.0	1.338289054495539e+18
14055.0	1.338089955078963e+18
14056.0	1.3378908917334013e+18
14057.0	1.337691886269235e+18
14058.0	1.3374929286201341e+18
14059.0	1.337288650076979e+18
14060.0	1.3370951282458621e+18
14061.0	1.3368949626372093e+18
14062.0	1.3366974310514685e+18
14063.0	1.3364964509089792e+18
14064.0	1.3362875443707901e+18
14065.0	1.3360997712527357e+18
14066.0	1.3359027840876541e+18
14067.0	1.3357042383192061e+18
14068.0	1.3355057068113917e+18
14069.0	1.3353070981283837e+18
14070.0	1.3351087813689341e+18
14071.0	1.3349098472079357e+18
14072.0	1.3347120673193981e+18
14073.0	1.334513769014886e+18
14074.0	1.3343155210420221e+18
14075.0	1.334114912514867e+18
14076.0	1.3339190418735101e+18
14077.0	1.3337111604232192e+18
14078.0	1.3335220619051005e+18
14079.0	1.333324021969715e+18
14080.0	1.3331268787765245e+18
14081.0	1.332928947893043e+18
14082.0	1.33273099436032e+18
14083.0	1.3325328621502461e+18
14084.0	1.332334774399795e+18
14085.0	1.3320996928880637e+18
14086.0	1.3319361284538365e+18
14087.0	1.331738331788083e+18
14088.0	1.3315444316307453e+18
14089.0	1.331346973864755e+18
14090.0	1.331149355037491e+18
14091.0	1.3309519509585917e+18
14092.0	1.3307545057755133e+18
14093.0	1.3305570907914237e+18
14094.0	1.3303597135560701e+18
14095.0	1.3301623363207165e+18
14096.0	1.3299636177469437e+18
14097.0	1.329765494764339e+18
14098.0	1.329570019226419e+18
14099.0	1.3293734271647744e+18
14100.0	1.329174030791475e+18
14101.0	1.3289793404272637e+18
14102.0	1.328782254276608e+18
14103.0	1.3285819267678205e+18
14104.0	1.328388404097843e+18
14105.0	1.328191531856691e+18
14106.0	1.3279946738761725e+18
14107.0	1.3277932885639165e+18
14108.0	1.327601123170713e+18
14109.0	1.3274037090254845e+18
14110.0	1.3272076076974075e+18
14111.0	1.3270106331152381e+18
14112.0	1.326814114034483e+18
14113.0	1.3266178784886781e+18
14114.0	1.3264195491463165e+18
14115.0	1.3262244083138557e+18
14116.0	1.3260262316441597e+18
14117.0	1.3257519417786365e+18
14118.0	1.3256347361476608e+18
14119.0	1.3254384225878013e+18
14120.0	1.3252424521220093e+18
14121.0	1.325046730797875e+18
14122.0	1.3248495783772157e+18
14123.0	1.3246540046925821e+18
14124.0	1.3244565527986173e+18
14125.0	1.3241901389971453e+18
14126.0	1.3240655597797373e+18
14127.0	1.3238706722832381e+18
14128.0	1.3236747127226365e+18
14129.0	1.3234774764158973e+18
14130.0	1.3232810965860347e+18
14131.0	1.3230873465847808e+18
14132.0	1.322890145510195e+18
14133.0	1.3226110875598843e+18
14134.0	1.3224944548708347e+18
14135.0	1.322302931206144e+18
14136.0	1.3221092155981821e+18
14137.0	1.3219137459322877e+18
14138.0	1.3217180002811901e+18
14139.0	1.3215230473535485e+18
14140.0	1.3213276565405693e+18
14141.0	1.3211313916346365e+18
14142.0	1.320933435585331e+18
14143.0	1.3207417718308861e+18
14144.0	1.320546762699571e+18
14145.0	1.3203516134785021e+18
14146.0	1.3201562864189437e+18
14147.0	1.3199613334913021e+18
14148.0	1.3197663847579645e+18
14149.0	1.3195714863562752e+18
14150.0	1.3193765359452157e+18
14151.0	1.319181246634393e+18
14152.0	1.3189868037341181e+18
14153.0	1.3187919783133181e+18
14154.0	1.3185937152409597e+18
14155.0	1.318399862898688e+18
14156.0	1.3182075859369981e+18
14157.0	1.3180131229040637e+18
14158.0	1.3178179753607165e+18
14159.0	1.3176239216918528e+18
14160.0	1.3174276131651581e+18
14161.0	1.3172261162844157e+18
14162.0	1.317024423110246e+18
14163.0	1.3168417846591485e+18
14164.0	1.3166500160471037e+18
14165.0	1.3164556377391101e+18
14166.0	1.3162631930052608e+18
14167.0	1.3160671017435133e+18
14168.0	1.3158747702558717e+18
14169.0	1.3156808147337216e+18
14170.0	1.3154861856063485e+18
14171.0	1.3152920740560893e+18
14172.0	1.315098646177382e+18
14173.0	1.3149021514235901e+18
14174.0	1.3147098216136704e+18
14175.0	1.3145169238949885e+18
14176.0	1.3143231143346173e+18
14177.0	1.3141293341343744e+18
14178.0	1.3139355631615997e+18
14179.0	1.313741268739686e+18
14180.0	1.313548222542643e+18
14181.0	1.3133545983705083e+18
14182.0	1.313160881923686e+18
14183.0	1.3129674565615616e+18
14184.0	1.3127731789168637e+18
14185.0	1.3125802350608381e+18
14186.0	1.312369592080793e+18
14187.0	1.3121891438952445e+18
14188.0	1.3120001477181437e+18
14189.0	1.3118070184738813e+18
14190.0	1.3116137558507517e+18
14191.0	1.3114205058105341e+18
14192.0	1.311226224810393e+18
14193.0	1.3110324680982525e+18
14194.0	1.3108411247886333e+18
14195.0	1.3106483428327421e+18
14196.0	1.3104553100574715e+18
14197.0	1.3102623578128381e+18
14198.0	1.3100685197311997e+18
14199.0	1.3098762410917885e+18
14200.0	1.3096751846129661e+18
14201.0	1.3094900354514944e+18
14202.0	1.3092982114746365e+18
14203.0	1.3091048926478333e+18
14204.0	1.308912413520691e+18
14205.0	1.3087195678113792e+18
14206.0	1.3085090296889341e+18
14207.0	1.3083344602398717e+18
14208.0	1.3081423577612283e+18
14209.0	1.3079299212967933e+18
14210.0	1.307742286590771e+18
14211.0	1.3075651183509501e+18
14212.0	1.307372986512179e+18
14213.0	1.3071809133936637e+18
14214.0	1.3069884560769021e+18
14215.0	1.3067939762667517e+18
14216.0	1.3066043777875965e+18
14217.0	1.3064122820198395e+18
14218.0	1.3062202005127165e+18
14219.0	1.3060281651429373e+18
14220.0	1.305836191848857e+18
14221.0	1.3056441707397117e+18
14222.0	1.3054522662322173e+18
14223.0	1.3052603776630781e+18
14224.0	1.305068384236339e+18
14225.0	1.3048456348172285e+18
14226.0	1.3046838814834685e+18
14227.0	1.3044908235423741e+18
14228.0	1.304193522886246e+18
14229.0	1.304090184463155e+18
14230.0	1.3039182716862461e+18
14231.0	1.3037269610921981e+18
14232.0	1.3035355229913083e+18
14233.0	1.303344084890419e+18
14234.0	1.3031526585335805e+18
14235.0	1.3029608353955837e+18
14236.0	1.3027698863505408e+18
14237.0	1.3025782418898944e+18
14238.0	1.3023867752677373e+18
14239.0	1.302192584864563e+18
14240.0	1.3016616866414592e+18
14241.0	1.3018085241913341e+18
14242.0	1.3016209968594941e+18
14243.0	1.3014077139845117e+18
14244.0	1.3012404057145341e+18
14245.0	1.3010494600249341e+18
14246.0	1.3008582995869693e+18
14247.0	1.3006680711233533e+18
14248.0	1.3004733933420544e+18
14249.0	1.3002861503840253e+18
14250.0	1.3000954227982333e+18
14251.0	1.2999050768941053e+18
14252.0	1.299714384540467e+18
14253.0	1.2995235722297341e+18
14254.0	1.2993326164738048e+18
14255.0	1.2991354539868157e+18
14256.0	1.298923233948467e+18
14257.0	1.2987560330526717e+18
14258.0	1.2985709149290493e+18
14259.0	1.2983785800859645e+18
14260.0	1.2981875328942077e+18
14261.0	1.2979981281918973e+18
14262.0	1.2978275458482173e+18
14263.0	1.2975953793777661e+18
14264.0	1.2974329826377725e+18
14265.0	1.297257231233843e+18
14266.0	1.297067564806963e+18
14267.0	1.2968776433663997e+18
14268.0	1.296687656494694e+18
14269.0	1.2964972283822077e+18
14270.0	1.2963076936564733e+18
14271.0	1.296117731111731e+18
14272.0	1.2959276427378685e+18
14273.0	1.295736301105971e+18
14274.0	1.295480146572083e+18
14275.0	1.295349061989171e+18
14276.0	1.2951684644863997e+18
14277.0	1.2949782486056957e+18
14278.0	1.294788097317273e+18
14279.0	1.2945983511986173e+18
14280.0	1.2944080203939837e+18
14281.0	1.294219607225139e+18
14282.0	1.294030213428019e+18
14283.0	1.293840780204441e+18
14284.0	1.293651375502131e+18
14285.0	1.2934619657666557e+18
14286.0	1.2932725107326973e+18
14287.0	1.2930830271774717e+18
14288.0	1.292891669607219e+18
14289.0	1.2924854521036795e+18
14290.0	1.292513519547187e+18
14291.0	1.2923261692149757e+18
14292.0	1.2921374574116864e+18
14293.0	1.291947829572403e+18
14294.0	1.2917379524722685e+18
14295.0	1.2915663970500603e+18
14296.0	1.2912061289857024e+18
14297.0	1.2911857689952253e+18
14298.0	1.2909707639390205e+18
14299.0	1.2908124079915005e+18
14300.0	1.290624912536371e+18
14301.0	1.2904362997186557e+18
14302.0	1.2902470493667325e+18
14303.0	1.2900537104072704e+18
14304.0	1.2898678649913341e+18
14305.0	1.2896815372304384e+18
14306.0	1.2894928220717053e+18
14307.0	1.2893041421451264e+18
14308.0	1.2891161131745277e+18
14309.0	1.288927263798067e+18
14310.0	1.2887365387288573e+18
14311.0	1.288544999964672e+18
14312.0	1.2883567570845693e+18
14313.0	1.2881190130286592e+18
14314.0	1.2879860468809725e+18
14315.0	1.2877975213047805e+18
14316.0	1.2876005651775488e+18
14317.0	1.2874198116466688e+18
14318.0	1.2872325586223104e+18
14319.0	1.2870446932295677e+18
14320.0	1.2868566751641595e+18
14321.0	1.286668765311795e+18
14322.0	1.2864751679832061e+18
14323.0	1.2862897713577981e+18
14324.0	1.2861052513419261e+18
14325.0	1.285917548688179e+18
14326.0	1.2857298317737981e+18
14327.0	1.2855421106651133e+18
14328.0	1.285353318331187e+18
14329.0	1.2851668806795261e+18
14330.0	1.284979316437811e+18
14331.0	1.2847917329022973e+18
14332.0	1.2846042710015997e+18
14333.0	1.2844168158117885e+18
14334.0	1.2842293815934973e+18
14335.0	1.284039625408512e+18
14336.0	1.283851719750451e+18
14337.0	1.283667245871923e+18
14338.0	1.2834792890433533e+18
14339.0	1.283290861613875e+18
14340.0	1.2831039818825725e+18
14341.0	1.2829167515074557e+18
14342.0	1.2827297509801981e+18
14343.0	1.2825426716000253e+18
14344.0	1.2823529154150397e+18
14345.0	1.2821670792265725e+18
14346.0	1.2819811079815165e+18
14347.0	1.2817926721634301e+18
14348.0	1.2816076404424701e+18
14349.0	1.2814209460994045e+18
14350.0	1.2812318006050813e+18
14351.0	1.2810450223759357e+18
14352.0	1.2808593849974781e+18
14353.0	1.2806733567098877e+18
14354.0	1.280486805812019e+18
14355.0	1.2802998606495744e+18
14356.0	1.2801122192326653e+18
14357.0	1.279926325162803e+18
14358.0	1.2797411231531008e+18
14359.0	1.279554554639155e+18
14360.0	1.2793679852863488e+18
14361.0	1.2791817254731773e+18
14362.0	1.2789954656600061e+18
14363.0	1.278809038074675e+18
14364.0	1.2786144609566717e+18
14365.0	1.2784328316551165e+18
14366.0	1.2782472437694461e+18
14367.0	1.2780626474172413e+18
14368.0	1.2778764782010363e+18
14369.0	1.2776904683683837e+18
14370.0	1.277504424981299e+18
14371.0	1.2773184210206717e+18
14372.0	1.2771324262875133e+18
14373.0	1.2769462210002944e+18
14374.0	1.2767597741211648e+18
14375.0	1.276572362552115e+18
14376.0	1.2763889171169277e+18
14377.0	1.2762030096252925e+18
14378.0	1.2760169184231421e+18
14379.0	1.2758316484657152e+18
14380.0	1.275645907907379e+18
14381.0	1.2754599123353595e+18
14382.0	1.2752744486010875e+18
14383.0	1.2750889806725117e+18
14384.0	1.2749011580616701e+18
14385.0	1.2747181857439741e+18
14386.0	1.2745306357628925e+18
14387.0	1.2743472482091003e+18
14388.0	1.2741616787783677e+18
14389.0	1.2739764734132221e+18
14390.0	1.273790880494387e+18
14391.0	1.2736059024605181e+18
14392.0	1.273419059639091e+18
14393.0	1.2732339658424317e+18
14394.0	1.2730428951625725e+18
14395.0	1.2728621055606781e+18
14396.0	1.2726785619787773e+18
14397.0	1.2724934849593341e+18
14398.0	1.2723084129730557e+18
14399.0	1.2721233502142461e+18
14400.0	1.2719344630890493e+18
14401.0	1.2717519773106173e+18
14402.0	1.2715672349966333e+18
14403.0	1.2713606202261501e+18
14404.0	1.2706444990218235e+18
14405.0	1.2706363562000374e+18
14406.0	1.2708253490216957e+18
14407.0	1.2706142253744128e+18
14408.0	1.2704587609800701e+18
14409.0	1.2702712932073472e+18
14410.0	1.2700903962312701e+18
14411.0	1.269906367787827e+18
14412.0	1.2697213897539581e+18
14413.0	1.2695378050678781e+18
14414.0	1.2693530459766781e+18
14415.0	1.2691688388558845e+18
14416.0	1.2689847131045888e+18
14417.0	1.2688002467758077e+18
14418.0	1.268615470068531e+18
14419.0	1.268431510411673e+18
14420.0	1.2682466196193277e+18
14421.0	1.2680632882692093e+18
14422.0	1.2678789309923328e+18
14423.0	1.267692295369523e+18
14424.0	1.2673991269416957e+18
14425.0	1.2673230439448573e+18
14426.0	1.2671413013970941e+18
14427.0	1.2669570154233853e+18
14428.0	1.2667700677443581e+18
14429.0	1.2665893720948733e+18
14430.0	1.2664056917786621e+18
14431.0	1.266209042674483e+18
14432.0	1.2660378882277373e+18
14433.0	1.2658310108938237e+18
14434.0	1.2656681527803901e+18
14435.0	1.2654843139194877e+18
14436.0	1.2653036837011453e+18
14437.0	1.2651202047115261e+18
14438.0	1.2649349364318205e+18
14439.0	1.2647527937474557e+18
14440.0	1.264569526989619e+18
14441.0	1.264383126247833e+18
14442.0	1.264197412533043e+18
14443.0	1.2640069391220733e+18
14444.0	1.2638344064270333e+18
14445.0	1.2636514206875645e+18
14446.0	1.2632863786663936e+18
14447.0	1.2632805561335805e+18
14448.0	1.2631026429853693e+18
14449.0	1.2629198535393275e+18
14450.0	1.2627367830749181e+18
14451.0	1.2625537386151933e+18
14452.0	1.2623707084161021e+18
14453.0	1.2621874542411773e+18
14454.0	1.2620046639562752e+18
14455.0	1.2618207277875195e+18
14456.0	1.2616388250173437e+18
14457.0	1.2614559038701565e+18
14458.0	1.2612729265192957e+18
14459.0	1.2610897872683008e+18
14460.0	1.2609066983489533e+18
14461.0	1.2607184814735355e+18
14462.0	1.2605345713094653e+18
14463.0	1.2603558939590653e+18
14464.0	1.260174525543219e+18
14465.0	1.2599862331703293e+18
14466.0	1.2598099172130813e+18
14467.0	1.2596258074001408e+18
14468.0	1.2594447451684861e+18
14469.0	1.2592554629398525e+18
14470.0	1.2590740181876733e+18
14471.0	1.2588954196901885e+18
14472.0	1.2587154244894717e+18
14473.0	1.2585331366821885e+18
14474.0	1.2583508958511101e+18
14475.0	1.2581685770059773e+18
14476.0	1.2579850351017981e+18
14477.0	1.257804139803443e+18
14478.0	1.2576221036543997e+18
14479.0	1.2574399349653501e+18
14480.0	1.2572556439584765e+18
14481.0	1.2570758131744763e+18
14482.0	1.2568930178564093e+18
14483.0	1.2567100405055485e+18
14484.0	1.256527297196851e+18
14485.0	1.2563406104035328e+18
14486.0	1.2561129184165888e+18
14487.0	1.2559834645790717e+18
14488.0	1.2558023218167808e+18
14489.0	1.255619503849472e+18
14490.0	1.2554385322147837e+18
14491.0	1.2552570136428541e+18
14492.0	1.2550756502601725e+18
14493.0	1.2548939521720317e+18
14494.0	1.2547082971774973e+18
14495.0	1.2545281820196861e+18
14496.0	1.254324394210099e+18
14497.0	1.2541655097802752e+18
14498.0	1.2539845977047037e+18
14499.0	1.253803193217843e+18
14500.0	1.2536216813567997e+18
14501.0	1.2534388701003773e+18
14502.0	1.2532104466268157e+18
14503.0	1.2530735797764093e+18
14504.0	1.2528935963197437e+18
14505.0	1.2527129149308925e+18
14506.0	1.2525301196128253e+18
14507.0	1.2523073316061181e+18
14508.0	1.252169406952243e+18
14509.0	1.2519888555868157e+18
14510.0	1.2518078403313661e+18
14511.0	1.2516266103275517e+18
14512.0	1.2514432672333821e+18
14513.0	1.2512641511587837e+18
14514.0	1.2510779265777664e+18
14515.0	1.2508984925749245e+18
14516.0	1.250131270487245e+18
14517.0	1.2505293938229245e+18
14518.0	1.2503590581043197e+18
14519.0	1.2501760815923197e+18
14520.0	1.2499988495990781e+18
14521.0	1.2498182705512445e+18
14522.0	1.2496376051007488e+18
14523.0	1.2494553407815677e+18
14524.0	1.2492750419132413e+18
14525.0	1.2490948839735293e+18
14526.0	1.2489152285114365e+18
14527.0	1.2487292119678973e+18
14528.0	1.2485253092343808e+18
14529.0	1.2483717574426624e+18
14530.0	1.2481908638220285e+18
14531.0	1.248012834911027e+18
14532.0	1.247831186315673e+18
14533.0	1.247652368036659e+18
14534.0	1.2474722755280893e+18
14535.0	1.2472918852239357e+18
14536.0	1.2471116324929533e+18
14537.0	1.2469296441589757e+18
14538.0	1.246751414760243e+18
14539.0	1.2465713272848381e+18
14540.0	1.2463912154824701e+18
14541.0	1.2462103310893053e+18
14542.0	1.2460309994274813e+18
14543.0	1.2458484868055037e+18
14544.0	1.245670731363123e+18
14545.0	1.2454898654248957e+18
14546.0	1.2450995602718717e+18
14547.0	1.2449113534627837e+18
14548.0	1.244947591410483e+18
14549.0	1.2447503886581757e+18
14550.0	1.2445911124803581e+18
14551.0	1.2444116902215677e+18
14552.0	1.2442303578767357e+18
14553.0	1.2440481220788224e+18
14554.0	1.243871359008768e+18
14555.0	1.2436916540538877e+18
14556.0	1.2435118501134333e+18
14557.0	1.243331735794483e+18
14558.0	1.2431481813073917e+18
14559.0	1.2425395836026872e+18
14560.0	1.2427887445540861e+18
14561.0	1.2426122457251837e+18
14562.0	1.2424306684329981e+18
14563.0	1.242255439639347e+18
14564.0	1.242071213224755e+18
14565.0	1.2418970833387517e+18
14566.0	1.2417178171080701e+18
14567.0	1.2415384653135867e+18
14568.0	1.241359022922137e+18
14569.0	1.2411783482441728e+18
14570.0	1.2408829635461117e+18
14571.0	1.240820077507379e+18
14572.0	1.2406354928992256e+18
14573.0	1.2404546437382141e+18
14574.0	1.2402829859749885e+18
14575.0	1.2401050141065213e+18
14576.0	1.2399261387849725e+18
14577.0	1.2397475193159677e+18
14578.0	1.2395681540997117e+18
14579.0	1.2393897116303357e+18
14580.0	1.239210865668915e+18
14581.0	1.2390314987749376e+18
14582.0	1.2388530890211325e+18
14583.0	1.238674305135411e+18
14584.0	1.2384936346517501e+18
14585.0	1.2383167163924477e+18
14586.0	1.2381375407587325e+18
14587.0	1.2379592039858173e+18
14588.0	1.2377807598387197e+18
14589.0	1.2376024390041597e+18
14590.0	1.2374241626292221e+18
14591.0	1.2372457721692157e+18
14592.0	1.2370668398051325e+18
14593.0	1.2368686966898683e+18
14594.0	1.2367107484286973e+18
14595.0	1.236532076950323e+18
14596.0	1.236347020063539e+18
14597.0	1.2361672169619453e+18
14598.0	1.2359976118910973e+18
14599.0	1.2358208723091453e+18
14600.0	1.2356428618530813e+18
14601.0	1.2354648757239805e+18
14602.0	1.2352867008512e+18
14603.0	1.2351088757833725e+18
14604.0	1.2349228642729981e+18
14605.0	1.2347469576798205e+18
14606.0	1.2345561470468093e+18
14607.0	1.2343963650359293e+18
14608.0	1.2342143053987837e+18
14609.0	1.2340344477712381e+18
14610.0	1.2338553778339837e+18
14611.0	1.2336763590672381e+18
14612.0	1.2335071876874237e+18
14613.0	1.23332973339607e+18
14614.0	1.2331474262949888e+18
14615.0	1.2329717822652413e+18
14616.0	1.232796965352243e+18
14617.0	1.2326107726479357e+18
14618.0	1.232435626062643e+18
14619.0	1.2322570586030077e+18
14620.0	1.232069222570393e+18
14621.0	1.231909169607475e+18
14622.0	1.2317319367753728e+18
14623.0	1.2315543868538877e+18
14624.0	1.231367361999667e+18
14625.0	1.231199464849408e+18
14626.0	1.231018916000563e+18
14627.0	1.2308412628991997e+18
14628.0	1.2306678762438656e+18
14629.0	1.230490618245939e+18
14630.0	1.2303101197287421e+18
14631.0	1.2301328810246144e+18
14632.0	1.2299419202355197e+18
14633.0	1.229778639336243e+18
14634.0	1.2296042812801024e+18
14635.0	1.229424547803955e+18
14636.0	1.229240388498227e+18
14637.0	1.229073257227878e+18
14638.0	1.2288957307944955e+18
14639.0	1.2287168454066173e+18
14640.0	1.2285409060978685e+18
14641.0	1.228328488088371e+18
14642.0	1.2281866769924093e+18
14643.0	1.2280108920340477e+18
14644.0	1.2278339116990461e+18
14645.0	1.2276496852844541e+18
14646.0	1.2274753532329981e+18
