# Flux units: erg / (cm m2 s)
# Wavelength units: Angstrom
wave	flux
14000.0	1.6540802209546232e+18
14001.0	1.6540741627019267e+18
14002.0	1.6540574962155515e+18
14003.0	1.653785004028723e+18
14004.0	1.6535065844514813e+18
14005.0	1.6532257825095677e+18
14006.0	1.6529321829072893e+18
14007.0	1.652647188339097e+18
14008.0	1.6522306184544256e+18
14009.0	1.652081739117363e+18
14010.0	1.6517891125936128e+18
14011.0	1.6507182765834237e+18
14012.0	1.651230637660569e+18
14013.0	1.6509700254203904e+18
14014.0	1.650683953754931e+18
14015.0	1.6504074954342395e+18
14016.0	1.650128208474931e+18
14017.0	1.6498472437940221e+18
14018.0	1.6495188901887995e+18
14019.0	1.6492842675339261e+18
14020.0	1.649001881822822e+18
14021.0	1.6487191823777792e+18
14022.0	1.6484333355270141e+18
14023.0	1.648140598273638e+18
14024.0	1.6478585044860925e+18
14025.0	1.6475925436694525e+18
14026.0	1.647311104193331e+18
14027.0	1.6470299700625403e+18
14028.0	1.646736610374451e+18
14029.0	1.646431959619993e+18
14030.0	1.6441743469707274e+18
14031.0	1.6456278427566075e+18
14032.0	1.6456067588292603e+18
14033.0	1.645286077444915e+18
14034.0	1.6450609305616384e+18
14035.0	1.6447838514839547e+18
14036.0	1.6444786772803581e+18
14037.0	1.6442199021453307e+18
14038.0	1.6439487252922368e+18
14039.0	1.6436640595574784e+18
14040.0	1.6433863731445757e+18
14041.0	1.6431076163452925e+18
14042.0	1.6428166323109885e+18
14043.0	1.6425012374274048e+18
14044.0	1.6422274382954493e+18
14045.0	1.6419560114618365e+18
14046.0	1.6417042324258816e+18
14047.0	1.641415513315737e+18
14048.0	1.641145829634867e+18
14049.0	1.6408708074438653e+18
14050.0	1.6405915590721539e+18
14051.0	1.6403010095677437e+18
14052.0	1.640027606378086e+18
14053.0	1.639753721682329e+18
14054.0	1.6394746696040448e+18
14055.0	1.6391955185401853e+18
14056.0	1.6389163657986043e+18
14057.0	1.638637342241587e+18
14058.0	1.638358192855449e+18
14059.0	1.6380368252829693e+18
14060.0	1.6378001239310339e+18
14061.0	1.6375123409895421e+18
14062.0	1.6372403386974203e+18
14063.0	1.6369352332804093e+18
14064.0	1.6362044798271488e+18
14065.0	1.6363915340414968e+18
14066.0	1.6361248434159613e+18
14067.0	1.6358430096752637e+18
14068.0	1.6355710946246653e+18
14069.0	1.6352899068067837e+18
14070.0	1.6350130961645568e+18
14071.0	1.6347327119753216e+18
14072.0	1.6344583004749821e+18
14073.0	1.6341800469921792e+18
14074.0	1.6339013623349243e+18
14075.0	1.6336010233249792e+18
14076.0	1.6333316449894397e+18
14077.0	1.632607825559552e+18
14078.0	1.6327367500759037e+18
14079.0	1.632496503698227e+18
14080.0	1.6322138545848315e+18
14081.0	1.631953358107443e+18
14082.0	1.6316785540202493e+18
14083.0	1.6313968477863933e+18
14084.0	1.63110702809088e+18
14085.0	1.630415315219251e+18
14086.0	1.6304979295862781e+18
14087.0	1.6302571413045243e+18
14088.0	1.6299968461537277e+18
14089.0	1.629734244135731e+18
14090.0	1.629457873056563e+18
14091.0	1.6291847198474237e+18
14092.0	1.6289085819715581e+18
14093.0	1.628631481083494e+18
14094.0	1.6283535514009595e+18
14095.0	1.6280717730250747e+18
14096.0	1.6277409330364416e+18
14097.0	1.6274748749119485e+18
14098.0	1.6272166366478333e+18
14099.0	1.6269668826218493e+18
14100.0	1.626679178533273e+18
14101.0	1.626419250803507e+18
14102.0	1.6261408345817085e+18
14103.0	1.625846374308249e+18
14104.0	1.6255876545380347e+18
14105.0	1.625315167384371e+18
14106.0	1.625038989243187e+18
14107.0	1.6247266411020288e+18
14108.0	1.6244675891429376e+18
14109.0	1.6242048109641725e+18
14110.0	1.6239316577550333e+18
14111.0	1.6236499632652288e+18
14112.0	1.6233675205115904e+18
14113.0	1.6230999306272765e+18
14114.0	1.6228036382818304e+18
14115.0	1.622521608247705e+18
14116.0	1.6220692156514301e+18
14117.0	1.6182638561722368e+18
14118.0	1.6216222739726333e+18
14119.0	1.6213754911916032e+18
14120.0	1.6211228145745915e+18
14121.0	1.6208656366305275e+18
14122.0	1.6205846199402493e+18
14123.0	1.620319407387443e+18
14124.0	1.6200280425103357e+18
14125.0	1.6192666756710395e+18
14126.0	1.6195059556810747e+18
14127.0	1.6192494387593216e+18
14128.0	1.618976402990694e+18
14129.0	1.6186905427181565e+18
14130.0	1.618396864262963e+18
14131.0	1.6181428521795584e+18
14132.0	1.6178511282700285e+18
14133.0	1.61698663188398e+18
14134.0	1.617273492078592e+18
14135.0	1.617036539068416e+18
14136.0	1.6167713231601661e+18
14137.0	1.6164944135323648e+18
14138.0	1.6162084123312125e+18
14139.0	1.6159565594755067e+18
14140.0	1.615677014147072e+18
14141.0	1.615340498426265e+18
14142.0	1.6149692052144125e+18
14143.0	1.614849162556211e+18
14144.0	1.6145901928054781e+18
14145.0	1.6143170345631741e+18
14146.0	1.6140379740962808e+18
14147.0	1.613771117376307e+18
14148.0	1.613497387030937e+18
14149.0	1.6132266581295096e+18
14150.0	1.6129556222050301e+18
14151.0	1.612677244570828e+18
14152.0	1.6124074031841277e+18
14153.0	1.6121364729561085e+18
14154.0	1.611833318729318e+18
14155.0	1.6115184976265216e+18
14156.0	1.611310146414182e+18
14157.0	1.6110433769357312e+18
14158.0	1.610766903515545e+18
14159.0	1.6104972265455616e+18
14160.0	1.6102054455934968e+18
14161.0	1.6098854738853888e+18
14162.0	1.609558011150336e+18
14163.0	1.6093597044572157e+18
14164.0	1.6090477489029112e+18
14165.0	1.6088330424811515e+18
14166.0	1.608585914089472e+18
14167.0	1.6083001192480765e+18
14168.0	1.6080415437619197e+18
14169.0	1.607770757817958e+18
14170.0	1.6074980341055485e+18
14171.0	1.6072235185864696e+18
14172.0	1.6069576433336315e+18
14173.0	1.6066664361623547e+18
14174.0	1.6064042653188093e+18
14175.0	1.6061411482402813e+18
14176.0	1.605870952854323e+18
14177.0	1.6055992894619648e+18
14178.0	1.6053271680516093e+18
14179.0	1.6050513254547456e+18
14180.0	1.6047840627261435e+18
14181.0	1.6045122332393467e+18
14182.0	1.6042392394137597e+18
14183.0	1.6039671347806205e+18
14184.0	1.6036862204313595e+18
14185.0	1.6033971238338557e+18
14186.0	1.6025529765330941e+18
14187.0	1.602789271876403e+18
14188.0	1.6025893881249787e+18
14189.0	1.6023279420571643e+18
14190.0	1.602063546554777e+18
14191.0	1.6017903430139901e+18
14192.0	1.6015043216801787e+18
14193.0	1.6011616285884413e+18
14194.0	1.600979085767475e+18
14195.0	1.6007161515606013e+18
14196.0	1.6004464225812477e+18
14197.0	1.600175770855014e+18
14198.0	1.5998983562330107e+18
14199.0	1.5996230538625021e+18
14200.0	1.598974196711424e+18
14201.0	1.5990165658927096e+18
14202.0	1.598815454049075e+18
14203.0	1.5985476863262715e+18
14204.0	1.5982790713540603e+18
14205.0	1.5980052168572925e+18
14206.0	1.5976014010122235e+18
14207.0	1.5974647690428413e+18
14208.0	1.5971998450581504e+18
14209.0	1.5967811947986941e+18
14210.0	1.596543272065433e+18
14211.0	1.596383292922265e+18
14212.0	1.596124091645952e+18
14213.0	1.595855713232486e+18
14214.0	1.5955851537809405e+18
14215.0	1.5952979110658048e+18
14216.0	1.5950462897356797e+18
14217.0	1.594779021973913e+18
14218.0	1.594495144768307e+18
14219.0	1.5942382050607101e+18
14220.0	1.593964439483187e+18
14221.0	1.593698960172646e+18
14222.0	1.5934138649411581e+18
14223.0	1.5931546317881341e+18
14224.0	1.592870613653913e+18
14225.0	1.5912579121545219e+18
14226.0	1.5922544083206141e+18
14227.0	1.592030702600192e+18
14228.0	1.5878696879521807e+18
14229.0	1.5905913114197988e+18
14230.0	1.5912573618618365e+18
14231.0	1.5909969794695165e+18
14232.0	1.590740588376883e+18
14233.0	1.590471506998067e+18
14234.0	1.5902064706060285e+18
14235.0	1.5899355722547197e+18
14236.0	1.589669881551257e+18
14237.0	1.5893970655641597e+18
14238.0	1.5891253400961021e+18
14239.0	1.5888215483351037e+18
14240.0	1.5864140631375872e+18
14241.0	1.5882520021172221e+18
14242.0	1.5880337036935165e+18
14243.0	1.5876190313119744e+18
14244.0	1.5875209668067325e+18
14245.0	1.587249347035136e+18
14246.0	1.5869842854772733e+18
14247.0	1.586717390169702e+18
14248.0	1.5864325616959485e+18
14249.0	1.586182653319577e+18
14250.0	1.5859179457609725e+18
14251.0	1.585642175306137e+18
14252.0	1.5853694633377792e+18
14253.0	1.5850921544122365e+18
14254.0	1.584817982826086e+18
14255.0	1.5844743082672125e+18
14256.0	1.5830025756475395e+18
14257.0	1.583662799362457e+18
14258.0	1.583734065620582e+18
14259.0	1.5834609811980285e+18
14260.0	1.5831652844437501e+18
14261.0	1.582915256949145e+18
14262.0	1.582640095507251e+18
14263.0	1.5805424670343173e+18
14264.0	1.581332734305894e+18
14265.0	1.581854665107046e+18
14266.0	1.581635403671142e+18
14267.0	1.581379218938265e+18
14268.0	1.5811117783711744e+18
14269.0	1.580829731559833e+18
14270.0	1.580567357711974e+18
14271.0	1.5802915419586557e+18
14272.0	1.5800042472341501e+18
14273.0	1.5796098836725752e+18
14274.0	1.5763264717717507e+18
14275.0	1.5786199071326203e+18
14276.0	1.578902190502707e+18
14277.0	1.5786842511114237e+18
14278.0	1.578437074065817e+18
14279.0	1.578174644853145e+18
14280.0	1.577906746268057e+18
14281.0	1.577649905546035e+18
14282.0	1.5773855335317501e+18
14283.0	1.5771202790359037e+18
14284.0	1.5768545648443387e+18
14285.0	1.5765879262281723e+18
14286.0	1.5763202558132221e+18
14287.0	1.576052989729177e+18
14288.0	1.575762299296153e+18
14289.0	1.5741134261190636e+18
14290.0	1.575220749218611e+18
14291.0	1.574977328591667e+18
14292.0	1.5747111932919805e+18
14293.0	1.5744436185071613e+18
14294.0	1.5740286139367421e+18
14295.0	1.5738750873108483e+18
14296.0	1.5725483970789379e+18
14297.0	1.5733125774573563e+18
14298.0	1.572652999665254e+18
14299.0	1.5728130190737405e+18
14300.0	1.5725826645426168e+18
14301.0	1.572325558740582e+18
14302.0	1.5720605475143677e+18
14303.0	1.5717556149026816e+18
14304.0	1.5715112648179712e+18
14305.0	1.5712628445806592e+18
14306.0	1.5709813832941563e+18
14307.0	1.5707108204871677e+18
14308.0	1.5704493257654272e+18
14309.0	1.570162765882982e+18
14310.0	1.5698328469635072e+18
14311.0	1.5694713617121275e+18
14312.0	1.569277779483033e+18
14313.0	1.5688835266510843e+18
14314.0	1.5688439491985405e+18
14315.0	1.5685912289607675e+18
14316.0	1.5682812329852923e+18
14317.0	1.5680488584773632e+18
14318.0	1.5678178580234235e+18
14319.0	1.5675611800403965e+18
14320.0	1.5672991484477435e+18
14321.0	1.5670327262576635e+18
14322.0	1.5667311708995581e+18
14323.0	1.5664841112944635e+18
14324.0	1.5662458278510592e+18
14325.0	1.5659720354299901e+18
14326.0	1.5657220968546304e+18
14327.0	1.5654506800873472e+18
14328.0	1.5651873381941248e+18
14329.0	1.5649347790176253e+18
14330.0	1.564671918630502e+18
14331.0	1.5644085985476605e+18
14332.0	1.5641458455347197e+18
14333.0	1.5638827368447997e+18
14334.0	1.5636190224973821e+18
14335.0	1.5633339188772864e+18
14336.0	1.5629596846194685e+18
14337.0	1.5628167930707968e+18
14338.0	1.5625514228121597e+18
14339.0	1.5622788433838075e+18
14340.0	1.5620272119873533e+18
14341.0	1.5617599945572355e+18
14342.0	1.5614920557068285e+18
14343.0	1.5612405585281021e+18
14344.0	1.5609527353212925e+18
14345.0	1.5607025215995901e+18
14346.0	1.56044315590656e+18
14347.0	1.5601541884936187e+18
14348.0	1.5599178193305597e+18
14349.0	1.559660659841433e+18
14350.0	1.559285522969395e+18
14351.0	1.5590179800612864e+18
14352.0	1.5588613211291648e+18
14353.0	1.558612315367014e+18
14354.0	1.5583414539255805e+18
14355.0	1.5580539025096704e+18
14356.0	1.5577888828948477e+18
14357.0	1.5575586290270205e+18
14358.0	1.5573111248257021e+18
14359.0	1.5570320761028605e+18
14360.0	1.556776716809011e+18
14361.0	1.5565200656695293e+18
14362.0	1.5562625001717757e+18
14363.0	1.5559930178174973e+18
14364.0	1.5554216747597821e+18
14365.0	1.555330973774643e+18
14366.0	1.5551308786302973e+18
14367.0	1.5549432254693373e+18
14368.0	1.5546806989488123e+18
14369.0	1.5544230478872576e+18
14370.0	1.554162214187827e+18
14371.0	1.5539031571955707e+18
14372.0	1.553632580966809e+18
14373.0	1.5533741447315453e+18
14374.0	1.5531149619101693e+18
14375.0	1.5528460583698432e+18
14376.0	1.5525986296659965e+18
14377.0	1.5523370141483005e+18
14378.0	1.5520738299609085e+18
14379.0	1.551814808200806e+18
14380.0	1.551553088664371e+18
14381.0	1.5512806954631165e+18
14382.0	1.5510322701926395e+18
14383.0	1.5507723844059133e+18
14384.0	1.5504916395065341e+18
14385.0	1.5502531329261563e+18
14386.0	1.549971064304435e+18
14387.0	1.549731832948326e+18
14388.0	1.5494679055302653e+18
14389.0	1.5492105614917632e+18
14390.0	1.5489488520216573e+18
14391.0	1.548691211026432e+18
14392.0	1.5484290485714944e+18
14393.0	1.548170209683046e+18
14394.0	1.5478625037975547e+18
14395.0	1.5476379072069632e+18
14396.0	1.5473859771760637e+18
14397.0	1.547122626894233e+18
14398.0	1.5468568002953213e+18
14399.0	1.5465909871181821e+18
14400.0	1.5463096835375104e+18
14401.0	1.5460611324379133e+18
14402.0	1.5457935224209405e+18
14403.0	1.545254619788083e+18
14404.0	1.541703935092324e+18
14405.0	1.5425032251506644e+18
14406.0	1.544718926636646e+18
14407.0	1.5441717528363005e+18
14408.0	1.5442285487456253e+18
14409.0	1.543969308881715e+18
14410.0	1.5437150300405752e+18
14411.0	1.5434780266987515e+18
14412.0	1.5432191643222016e+18
14413.0	1.542965830038323e+18
14414.0	1.5427041994211325e+18
14415.0	1.5424460467208192e+18
14416.0	1.5421839882846203e+18
14417.0	1.5419151585640443e+18
14418.0	1.5416452400021504e+18
14419.0	1.5414051630743547e+18
14420.0	1.5411427489611776e+18
14421.0	1.5408860407791616e+18
14422.0	1.5406139428569085e+18
14423.0	1.5402942966267901e+18
14424.0	1.538748662048358e+18
14425.0	1.5397934111653885e+18
14426.0	1.5395892978778107e+18
14427.0	1.5393362404179965e+18
14428.0	1.5390514975080443e+18
14429.0	1.538814088157593e+18
14430.0	1.5385335680729088e+18
14431.0	1.537704783668838e+18
14432.0	1.5380265069182968e+18
14433.0	1.5375163688222715e+18
14434.0	1.537487820711526e+18
14435.0	1.5372038663307264e+18
14436.0	1.5369963455905792e+18
14437.0	1.536745333273395e+18
14438.0	1.5364231872380925e+18
14439.0	1.5362108866691072e+18
14440.0	1.5359737323323392e+18
14441.0	1.5357013089320957e+18
14442.0	1.5354327929454592e+18
14443.0	1.5351234613477376e+18
14444.0	1.534929132532531e+18
14445.0	1.5346682300465155e+18
14446.0	1.5331667078021123e+18
14447.0	1.5341014772350973e+18
14448.0	1.5339073480687613e+18
14449.0	1.533654548978073e+18
14450.0	1.533390588005581e+18
14451.0	1.5331362454110205e+18
14452.0	1.532882219905843e+18
14453.0	1.532622131114803e+18
14454.0	1.5323630003027965e+18
14455.0	1.5320965160370176e+18
14456.0	1.5318401652097021e+18
14457.0	1.531582395029913e+18
14458.0	1.531321886808473e+18
14459.0	1.5310525420273664e+18
14460.0	1.5307745351696381e+18
14461.0	1.5304401887428603e+18
14462.0	1.530105724875571e+18
14463.0	1.5299676802646016e+18
14464.0	1.5297552572219395e+18
14465.0	1.5294802417418237e+18
14466.0	1.5292667114029056e+18
14467.0	1.528992257959526e+18
14468.0	1.5287560918007805e+18
14469.0	1.5284303839625213e+18
14470.0	1.5282042975551485e+18
14471.0	1.5279838063493115e+18
14472.0	1.5277372953591803e+18
14473.0	1.5274872460541947e+18
14474.0	1.5272366632337403e+18
14475.0	1.5269691639463936e+18
14476.0	1.5266961432772605e+18
14477.0	1.5264525313900541e+18
14478.0	1.5261969539923963e+18
14479.0	1.5259398179913725e+18
14480.0	1.5256632942395392e+18
14481.0	1.5254326276521981e+18
14482.0	1.5251701632073725e+18
14483.0	1.5249079235772416e+18
14484.0	1.5246409443835901e+18
14485.0	1.5243445513748475e+18
14486.0	1.523775136019251e+18
14487.0	1.5238861944782843e+18
14488.0	1.5236284695969787e+18
14489.0	1.5233313870446587e+18
14490.0	1.523113519795404e+18
14491.0	1.5228739327623168e+18
14492.0	1.5226206504878077e+18
14493.0	1.522349012261273e+18
14494.0	1.5220795919826941e+18
14495.0	1.5218410954686464e+18
14496.0	1.521434174160896e+18
14497.0	1.521335019136614e+18
14498.0	1.5210849178222592e+18
14499.0	1.5208327965310979e+18
14500.0	1.5205768953331707e+18
14501.0	1.5202954676011003e+18
14502.0	1.5197615729672192e+18
14503.0	1.5197848949751805e+18
14504.0	1.5195449640091643e+18
14505.0	1.5192928376848381e+18
14506.0	1.5190177282523136e+18
14507.0	1.5184811006099453e+18
14508.0	1.5185258018242557e+18
14509.0	1.5182803159220221e+18
14510.0	1.5180222454300672e+18
14511.0	1.5177705670574075e+18
14512.0	1.5174997425258493e+18
14513.0	1.5172553018441725e+18
14514.0	1.5169622340796413e+18
14515.0	1.5167019942936576e+18
14516.0	1.512845014676277e+18
14517.0	1.516106715181875e+18
14518.0	1.5159746885582843e+18
14519.0	1.5157072362471421e+18
14520.0	1.515478824517632e+18
14521.0	1.5152269850836992e+18
14522.0	1.514969231681126e+18
14523.0	1.514675333444403e+18
14524.0	1.514437798264832e+18
14525.0	1.5141898695999485e+18
14526.0	1.513936478273536e+18
14527.0	1.5136394292756475e+18
14528.0	1.5132546958360573e+18
14529.0	1.5131656960606205e+18
14530.0	1.5129059730128893e+18
14531.0	1.5126717999874043e+18
14532.0	1.512403488682803e+18
14533.0	1.5121635442950141e+18
14534.0	1.5119125051342843e+18
14535.0	1.5116466869239805e+18
14536.0	1.5114011355906048e+18
14537.0	1.5111338174971901e+18
14538.0	1.5108988676866048e+18
14539.0	1.5106440368750592e+18
14540.0	1.5103912226848765e+18
14541.0	1.5101049362710523e+18
14542.0	1.5098800561455101e+18
14543.0	1.5096042957570043e+18
14544.0	1.5093678678736893e+18
14545.0	1.5090889567240192e+18
14546.0	1.506793439310642e+18
14547.0	1.506521665188658e+18
14548.0	1.5083105291337725e+18
14549.0	1.5079459216424957e+18
14550.0	1.5078339152707584e+18
14551.0	1.5076008931622907e+18
14552.0	1.5073442755772413e+18
14553.0	1.5070822523731963e+18
14554.0	1.5068433079074816e+18
14555.0	1.5065893578997757e+18
14556.0	1.5063323695382523e+18
14557.0	1.506074225226547e+18
14558.0	1.5057737503211512e+18
14559.0	1.502863769049494e+18
14560.0	1.5052610285338621e+18
14561.0	1.5050506086907901e+18
14562.0	1.5047729189224448e+18
14563.0	1.5045468174155773e+18
14564.0	1.5042466260451325e+18
14565.0	1.5040572481863675e+18
14566.0	1.503807192170496e+18
14567.0	1.5035499185963005e+18
14568.0	1.5032889808781307e+18
14569.0	1.5030276522508285e+18
14570.0	1.5020489550331896e+18
14571.0	1.5025253843468285e+18
14572.0	1.5022355310968832e+18
14573.0	1.501961896381644e+18
14574.0	1.5017259164499965e+18
14575.0	1.501505386656563e+18
14576.0	1.5012527788261373e+18
14577.0	1.501018305488486e+18
14578.0	1.5007706268041216e+18
14579.0	1.500524033605632e+18
14580.0	1.5002705114169341e+18
14581.0	1.5000014317158397e+18
14582.0	1.4997421750747136e+18
14583.0	1.4995013045846013e+18
14584.0	1.4992177025253376e+18
14585.0	1.4989928005894141e+18
14586.0	1.4987428251041784e+18
14587.0	1.4984940055691264e+18
14588.0	1.4982428321906685e+18
14589.0	1.49799143735296e+18
14590.0	1.497739758980301e+18
14591.0	1.4974803245006848e+18
14592.0	1.4972165413666813e+18
14593.0	1.496836035785523e+18
14594.0	1.4967223198154747e+18
14595.0	1.4964643248209915e+18
14596.0	1.4958640662315e+18
14597.0	1.4955420443475963e+18
14598.0	1.4956698296909827e+18
14599.0	1.4954702613512187e+18
14600.0	1.4952172575784957e+18
14601.0	1.4949654164668413e+18
14602.0	1.494703811015475e+18
14603.0	1.4944576338919421e+18
14604.0	1.4941380480598013e+18
14605.0	1.4938775482269693e+18
14606.0	1.4935790161231867e+18
14607.0	1.493449398707814e+18
14608.0	1.4931740141289472e+18
14609.0	1.4928936702050301e+18
14610.0	1.4926083300261885e+18
14611.0	1.4923632400662523e+18
14612.0	1.4922027995496448e+18
14613.0	1.4919592296054784e+18
14614.0	1.4916716832227325e+18
14615.0	1.4914350607237115e+18
14616.0	1.4912109154402304e+18
14617.0	1.4908800100204541e+18
14618.0	1.4906293265367037e+18
14619.0	1.4900491569856507e+18
14620.0	1.4894039639785472e+18
14621.0	1.489934160914022e+18
14622.0	1.4897005146931197e+18
14623.0	1.4894567971094523e+18
14624.0	1.4891405667205115e+18
14625.0	1.4889523162906621e+18
14626.0	1.488677841036902e+18
14627.0	1.4884281440534528e+18
14628.0	1.4882114092662784e+18
14629.0	1.4879599171207165e+18
14630.0	1.487678237730406e+18
14631.0	1.4874308526473213e+18
14632.0	1.4870398243962877e+18
14633.0	1.4869195351130107e+18
14634.0	1.4866990187413501e+18
14635.0	1.4863829376696312e+18
14636.0	1.4859533033668605e+18
14637.0	1.4859572476903416e+18
14638.0	1.4856828512894973e+18
14639.0	1.4854232322605053e+18
14640.0	1.4851895491297275e+18
14641.0	1.484531196074393e+18
14642.0	1.4846854692863997e+18
14643.0	1.4844486572048381e+18
14644.0	1.4841820034891773e+18
14645.0	1.4838935192600576e+18
14646.0	1.4836411312111613e+18
14647.0	1.4833927059406845e+18
