# Flux units: erg / (cm m2 s)
# Wavelength units: Angstrom
wave	flux
14000.0	2.437678215305625e+18
14001.0	2.4371040603865083e+18
14002.0	2.4365514675453947e+18
14003.0	2.4359843221471227e+18
14004.0	2.4354171968815104e+18
14005.0	2.4348500934262784e+18
14006.0	2.434280877719552e+18
14007.0	2.433714455419289e+18
14008.0	2.433114448488038e+18
14009.0	2.4325826761719803e+18
14010.0	2.432011401900851e+18
14011.0	2.4312649332293627e+18
14012.0	2.430884264909209e+18
14013.0	2.4303186160386043e+18
14014.0	2.4297528614715387e+18
14015.0	2.429166764530073e+18
14016.0	2.428490362545766e+18
14017.0	2.427924797561241e+18
14018.0	2.4273591352688635e+18
14019.0	2.426794088700313e+18
14020.0	2.4262286747107323e+18
14021.0	2.4256634234601467e+18
14022.0	2.4250972393963515e+18
14023.0	2.4245249601699835e+18
14024.0	2.4239613950296054e+18
14025.0	2.4234051732766715e+18
14026.0	2.4228406853894144e+18
14027.0	2.422277402106265e+18
14028.0	2.4217135064547323e+18
14029.0	2.4211492752588795e+18
14030.0	2.420065873113907e+18
14031.0	2.4200081964007424e+18
14032.0	2.419458393610649e+18
14033.0	2.418822386129305e+18
14034.0	2.418184412358246e+18
14035.0	2.4176227547873275e+18
14036.0	2.4170600436072443e+18
14037.0	2.4164973391380475e+18
14038.0	2.4159347353321467e+18
14039.0	2.4153722707771387e+18
14040.0	2.4148063333384187e+18
14041.0	2.4142463165792256e+18
14042.0	2.413681944454758e+18
14043.0	2.413111257386188e+18
14044.0	2.4125589296250875e+18
14045.0	2.4119994027606016e+18
14046.0	2.4114367771443195e+18
14047.0	2.410873401586482e+18
14048.0	2.410315824234496e+18
14049.0	2.4097557017788406e+18
14050.0	2.4091949635993595e+18
14051.0	2.408631205520998e+18
14052.0	2.408073789230285e+18
14053.0	2.4074153422225403e+18
14054.0	2.4068256851558395e+18
14055.0	2.406265319430553e+18
14056.0	2.405705097989324e+18
14057.0	2.405145054386585e+18
14058.0	2.404584770869657e+18
14059.0	2.4040249772474363e+18
14060.0	2.403465363141427e+18
14061.0	2.402903890119885e+18
14062.0	2.4023465593929723e+18
14063.0	2.4017816269094907e+18
14064.0	2.4011614705418235e+18
14065.0	2.4006669117685755e+18
14066.0	2.4001107906789366e+18
14067.0	2.3995401103212534e+18
14068.0	2.3989938961776635e+18
14069.0	2.398434282071654e+18
14070.0	2.3978770956288e+18
14071.0	2.3973187230367744e+18
14072.0	2.396761786574438e+18
14073.0	2.3962041320472576e+18
14074.0	2.3956466083823606e+18
14075.0	2.395053374413209e+18
14076.0	2.3943930718453755e+18
14077.0	2.3937283753246715e+18
14078.0	2.393282631539097e+18
14079.0	2.392732318721638e+18
14080.0	2.392177974339174e+18
14081.0	2.391621230814822e+18
14082.0	2.3910603248631803e+18
14083.0	2.3905075692830715e+18
14084.0	2.3899515287240704e+18
14085.0	2.389241766923469e+18
14086.0	2.3888290859974656e+18
14087.0	2.3882836100513787e+18
14088.0	2.387722373588582e+18
14089.0	2.387161059950592e+18
14090.0	2.3866150018351104e+18
14091.0	2.386061598654463e+18
14092.0	2.3855065546620923e+18
14093.0	2.3849515542904827e+18
14094.0	2.384396619350015e+18
14095.0	2.3838415367700475e+18
14096.0	2.3832619711987707e+18
14097.0	2.3827180454674427e+18
14098.0	2.382166521334989e+18
14099.0	2.381624310235136e+18
14100.0	2.3810239375605755e+18
14101.0	2.3803935705792507e+18
14102.0	2.3798394778550267e+18
14103.0	2.379281650522521e+18
14104.0	2.3787319131635707e+18
14105.0	2.378177790240358e+18
14106.0	2.3776249541296123e+18
14107.0	2.3770700024119296e+18
14108.0	2.376513946753433e+18
14109.0	2.3759636993671163e+18
14110.0	2.3754073165529083e+18
14111.0	2.3748499522715643e+18
14112.0	2.3743068469460987e+18
14113.0	2.373752037834752e+18
14114.0	2.373197289121382e+18
14115.0	2.372649469398221e+18
14116.0	2.372064097232486e+18
14117.0	2.3706963095322624e+18
14118.0	2.37099327464407e+18
14119.0	2.3704273338499067e+18
14120.0	2.369877916935782e+18
14121.0	2.369331295105843e+18
14122.0	2.3687799504896e+18
14123.0	2.368215487768166e+18
14124.0	2.367664205227622e+18
14125.0	2.366975361259929e+18
14126.0	2.3665805363249147e+18
14127.0	2.366036525029785e+18
14128.0	2.365369303538073e+18
14129.0	2.364811347021005e+18
14130.0	2.3642571737661435e+18
14131.0	2.36371548611543e+18
14132.0	2.363165166587085e+18
14133.0	2.3624275025985526e+18
14134.0	2.3620653026377723e+18
14135.0	2.3615048832253947e+18
14136.0	2.3609244922150907e+18
14137.0	2.360414350763622e+18
14138.0	2.3598571609653243e+18
14139.0	2.359318865667686e+18
14140.0	2.3587616221822976e+18
14141.0	2.358211559345356e+18
14142.0	2.357597803485593e+18
14143.0	2.357115794069913e+18
14144.0	2.356576419997286e+18
14145.0	2.356028538198425e+18
14146.0	2.35547997021143e+18
14147.0	2.3549314944991227e+18
14148.0	2.3543807924502523e+18
14149.0	2.3538316859146235e+18
14150.0	2.3532900469178363e+18
14151.0	2.3527336624259067e+18
14152.0	2.3521956691181563e+18
14153.0	2.351648570815283e+18
14154.0	2.351091897755238e+18
14155.0	2.350513671005798e+18
14156.0	2.3500034775449595e+18
14157.0	2.3494618150600704e+18
14158.0	2.3489140020477947e+18
14159.0	2.3483257509117947e+18
14160.0	2.347703613154918e+18
14161.0	2.3471374643232763e+18
14162.0	2.3465753588006907e+18
14163.0	2.34606551933911e+18
14164.0	2.345488213658829e+18
14165.0	2.3448897485537275e+18
14166.0	2.3444275530301435e+18
14167.0	2.3438788709580795e+18
14168.0	2.343335012335616e+18
14169.0	2.3427942541426683e+18
14170.0	2.342246160950886e+18
14171.0	2.34170375859077e+18
14172.0	2.341159901646028e+18
14173.0	2.340574338220032e+18
14174.0	2.3400682165895163e+18
14175.0	2.339526710132735e+18
14176.0	2.3389817492471803e+18
14177.0	2.338438249657139e+18
14178.0	2.3378934498328576e+18
14179.0	2.3373425900781563e+18
14180.0	2.336807365011046e+18
14181.0	2.33626389226455e+18
14182.0	2.3357202903334907e+18
14183.0	2.335177304126259e+18
14184.0	2.334632321430323e+18
14185.0	2.334090643845939e+18
14186.0	2.3333744832151547e+18
14187.0	2.332995715753574e+18
14188.0	2.332462779098726e+18
14189.0	2.3319184406478843e+18
14190.0	2.3313771892047867e+18
14191.0	2.3308343590256635e+18
14192.0	2.3302912050462715e+18
14193.0	2.3297236771274747e+18
14194.0	2.3292089991167995e+18
14195.0	2.328649680289792e+18
14196.0	2.3279960667979776e+18
14197.0	2.3273985361838075e+18
14198.0	2.3268554879008763e+18
14199.0	2.3263141408276475e+18
14200.0	2.3256781199245307e+18
14201.0	2.3252298343907323e+18
14202.0	2.324692523915673e+18
14203.0	2.3241423050506235e+18
14204.0	2.3236099706978304e+18
14205.0	2.323069522883379e+18
14206.0	2.322486078419763e+18
14207.0	2.321989677508198e+18
14208.0	2.3214496961003515e+18
14209.0	2.3208636562014203e+18
14210.0	2.320338187085414e+18
14211.0	2.319829782075801e+18
14212.0	2.3192900372267003e+18
14213.0	2.3187486280777723e+18
14214.0	2.318211213583974e+18
14215.0	2.3176684773572603e+18
14216.0	2.317133205313945e+18
14217.0	2.316594208728678e+18
14218.0	2.316050697394585e+18
14219.0	2.3155165762682875e+18
14220.0	2.3149780108574715e+18
14221.0	2.3144364641353723e+18
14222.0	2.3138799873687547e+18
14223.0	2.3133626333921275e+18
14224.0	2.312824571297792e+18
14225.0	2.3120236739821563e+18
14226.0	2.3117475696607227e+18
14227.0	2.311211148378111e+18
14228.0	2.310119111000064e+18
14229.0	2.3100446302273526e+18
14230.0	2.3095989619392507e+18
14231.0	2.309043815605862e+18
14232.0	2.308524745320038e+18
14233.0	2.307985481977037e+18
14234.0	2.3074510471167995e+18
14235.0	2.3069134984052736e+18
14236.0	2.306286161389158e+18
14237.0	2.3057305134170104e+18
14238.0	2.3051941693095933e+18
14239.0	2.304654773426585e+18
14240.0	2.3036696186585083e+18
14241.0	2.3035820164251643e+18
14242.0	2.3030478097350656e+18
14243.0	2.3024590267613176e+18
14244.0	2.301977373022617e+18
14245.0	2.30143640511447e+18
14246.0	2.30089651430359e+18
14247.0	2.300370541871104e+18
14248.0	2.2998309144625147e+18
14249.0	2.2992992595869693e+18
14250.0	2.298764051297075e+18
14251.0	2.2982299469479933e+18
14252.0	2.2976950305816573e+18
14253.0	2.2971599867084795e+18
14254.0	2.2966246894993403e+18
14255.0	2.2960806647824381e+18
14256.0	2.295271437579059e+18
14257.0	2.2950104109416443e+18
14258.0	2.2944878660943872e+18
14259.0	2.2939481615106045e+18
14260.0	2.2934121663692795e+18
14261.0	2.2928778623713275e+18
14262.0	2.2923648453050365e+18
14263.0	2.2914140435644419e+18
14264.0	2.2912204042928123e+18
14265.0	2.2907613914071032e+18
14266.0	2.290232014877491e+18
14267.0	2.289698930583142e+18
14268.0	2.2891660543262717e+18
14269.0	2.28863236940759e+18
14270.0	2.2881003873763323e+18
14271.0	2.287566314903961e+18
14272.0	2.2870346180853755e+18
14273.0	2.2865003258314747e+18
14274.0	2.2853436894609408e+18
14275.0	2.28537758950359e+18
14276.0	2.284894224488857e+18
14277.0	2.2843639671554043e+18
14278.0	2.283764820895334e+18
14279.0	2.2832329445605368e+18
14280.0	2.282699112002355e+18
14281.0	2.2821702857654267e+18
14282.0	2.2816390771638272e+18
14283.0	2.2811078215860221e+18
14284.0	2.2805713415831547e+18
14285.0	2.2799387902083067e+18
14286.0	2.2794071722426365e+18
14287.0	2.2788766666063867e+18
14288.0	2.2783455972556795e+18
14289.0	2.2775250672418806e+18
14290.0	2.27728228918231e+18
14291.0	2.2767532381306877e+18
14292.0	2.2762231150149627e+18
14293.0	2.2756919433232381e+18
14294.0	2.2751143826292733e+18
14295.0	2.2746268736421883e+18
14296.0	2.2738664580710395e+18
14297.0	2.2735715498459133e+18
14298.0	2.2729164733808632e+18
14299.0	2.272504783988326e+18
14300.0	2.2719797510799355e+18
14301.0	2.2714527502041085e+18
14302.0	2.2709228888129533e+18
14303.0	2.270380746499686e+18
14304.0	2.2698603139039227e+18
14305.0	2.26933337007063e+18
14306.0	2.2687814801948672e+18
14307.0	2.268265394575769e+18
14308.0	2.2677429118042112e+18
14309.0	2.267208010537369e+18
14310.0	2.266580987255193e+18
14311.0	2.2661071634431995e+18
14312.0	2.2655951563653112e+18
14313.0	2.2650812249407483e+18
14314.0	2.2645699392831483e+18
14315.0	2.2640479917047803e+18
14316.0	2.2635033982402555e+18
14317.0	2.2629743455109117e+18
14318.0	2.262467730630246e+18
14319.0	2.2619411760283643e+18
14320.0	2.2614139654373368e+18
14321.0	2.260887120589619e+18
14322.0	2.2603452416786427e+18
14323.0	2.2598268810690557e+18
14324.0	2.2593064434401275e+18
14325.0	2.2587754915299323e+18
14326.0	2.258252936616345e+18
14327.0	2.257723645650534e+18
14328.0	2.2571976245641208e+18
14329.0	2.2566733130760187e+18
14330.0	2.2561469396680701e+18
14331.0	2.2556205192839165e+18
14332.0	2.2550944545767427e+18
14333.0	2.2545683881918461e+18
14334.0	2.254042388915814e+18
14335.0	2.253511722218291e+18
14336.0	2.2529581026115576e+18
14337.0	2.2524647215988733e+18
14338.0	2.2519385931382776e+18
14339.0	2.2514090773577723e+18
14340.0	2.2508254416338936e+18
14341.0	2.2502580311556093e+18
14342.0	2.249734751466291e+18
14343.0	2.2492057624903675e+18
14344.0	2.248681660717465e+18
14345.0	2.2481586393972733e+18
14346.0	2.2476316787867643e+18
14347.0	2.247097045955379e+18
14348.0	2.2465824719634427e+18
14349.0	2.2460589221609472e+18
14350.0	2.2455113104752637e+18
14351.0	2.244983447250534e+18
14352.0	2.244483216100556e+18
14353.0	2.2439612098019323e+18
14354.0	2.243433690510131e+18
14355.0	2.242903956625817e+18
14356.0	2.242382079511756e+18
14357.0	2.2418645275639803e+18
14358.0	2.241340613695897e+18
14359.0	2.2408103647510523e+18
14360.0	2.240290858257612e+18
14361.0	2.239768524803276e+18
14362.0	2.2392457836625917e+18
14363.0	2.2387220929314813e+18
14364.0	2.2381184470220795e+18
14365.0	2.2376608887209981e+18
14366.0	2.237140368883712e+18
14367.0	2.2366295076896765e+18
14368.0	2.2361063404077053e+18
14369.0	2.2355836277882875e+18
14370.0	2.2350608916807677e+18
14371.0	2.234538293146419e+18
14372.0	2.2340156006596605e+18
14373.0	2.2334930121916408e+18
14374.0	2.2329706602823675e+18
14375.0	2.2324483033399293e+18
14376.0	2.2319260403499e+18
14377.0	2.2314036515307515e+18
14378.0	2.2308808483143677e+18
14379.0	2.2303597563740157e+18
14380.0	2.2298375537819645e+18
14381.0	2.2293113682788347e+18
14382.0	2.2287936150044667e+18
14383.0	2.2282668674646013e+18
14384.0	2.2277429284306944e+18
14385.0	2.2272296311848955e+18
14386.0	2.226702385361715e+18
14387.0	2.226186891978342e+18
14388.0	2.2256649645326333e+18
14389.0	2.2251445218705405e+18
14390.0	2.224622933324595e+18
14391.0	2.2241025963589627e+18
14392.0	2.223580534695526e+18
14393.0	2.2230610550456315e+18
14394.0	2.2225259574853627e+18
14395.0	2.2220072026111995e+18
14396.0	2.221498435213721e+18
14397.0	2.2209784992235517e+18
14398.0	2.2204567663935485e+18
14399.0	2.219899996025651e+18
14400.0	2.2193228480511995e+18
14401.0	2.2188087102668795e+18
14402.0	2.2182897892982776e+18
14403.0	2.2164759407230953e+18
14404.0	2.2137321579085814e+18
14405.0	2.2161789940662254e+18
14406.0	2.2161118399037437e+18
14407.0	2.2137439707463688e+18
14408.0	2.2150532479057915e+18
14409.0	2.2145474098102272e+18
14410.0	2.2140278714400765e+18
14411.0	2.2135138678734843e+18
14412.0	2.2129934637989883e+18
14413.0	2.2124749085736955e+18
14414.0	2.2119543501488123e+18
14415.0	2.2114351942991872e+18
14416.0	2.2109123491397627e+18
14417.0	2.210381232812851e+18
14418.0	2.2098596711104504e+18
14419.0	2.2093570106195965e+18
14420.0	2.2088366669430784e+18
14421.0	2.208318613356544e+18
14422.0	2.2077982831017976e+18
14423.0	2.207266441999155e+18
14424.0	2.1992127290408911e+18
14425.0	2.2062317105577981e+18
14426.0	2.2057231662972928e+18
14427.0	2.205205669714329e+18
14428.0	2.2046781084794877e+18
14429.0	2.2041673513041917e+18
14430.0	2.20365015000023e+18
14431.0	2.2030073494241277e+18
14432.0	2.202605751527014e+18
14433.0	2.2007124460568568e+18
14434.0	2.2015703708073976e+18
14435.0	2.2010382210039803e+18
14436.0	2.2005397447507968e+18
14437.0	2.2000220720070648e+18
14438.0	2.1994530408497147e+18
14439.0	2.1989730547662845e+18
14440.0	2.1984680102330368e+18
14441.0	2.197948933236326e+18
14442.0	2.197429876372275e+18
14443.0	2.19689941771223e+18
14444.0	2.1963957908537344e+18
14445.0	2.1958789938806776e+18
14446.0	2.193794913009664e+18
14447.0	2.1948366539718656e+18
14448.0	2.1943268967186427e+18
14449.0	2.1938094957658104e+18
14450.0	2.193289600040959e+18
14451.0	2.1927736838717432e+18
14452.0	2.192253910620569e+18
14453.0	2.1917108740816893e+18
14454.0	2.191220987763097e+18
14455.0	2.1907018184916987e+18
14456.0	2.190179073995571e+18
14457.0	2.1896579602448381e+18
14458.0	2.1891444583170045e+18
14459.0	2.1886260775747581e+18
14460.0	2.1881071465398267e+18
14461.0	2.1875685408636928e+18
14462.0	2.187022994453299e+18
14463.0	2.1865470214799352e+18
14464.0	2.1860416850231293e+18
14465.0	2.1855219503595515e+18
14466.0	2.1850129145266173e+18
14467.0	2.184472139556454e+18
14468.0	2.1839771781300221e+18
14469.0	2.1834488451432443e+18
14470.0	2.1829365914402816e+18
14471.0	2.1824259735158776e+18
14472.0	2.1819107133358075e+18
14473.0	2.1813978606862333e+18
14474.0	2.18088149656535e+18
14475.0	2.180362958117273e+18
14476.0	2.1797590202843133e+18
14477.0	2.1793309378740221e+18
14478.0	2.1788146391842816e+18
14479.0	2.178297447946649e+18
14480.0	2.1777753091080187e+18
14481.0	2.1772628205240315e+18
14482.0	2.1766558460149755e+18
14483.0	2.1761365727248376e+18
14484.0	2.1756205122715643e+18
14485.0	2.1750925450280955e+18
14486.0	2.1744850487476221e+18
14487.0	2.1740723023904765e+18
14488.0	2.1735297221918715e+18
14489.0	2.1730280062582776e+18
14490.0	2.172520592782131e+18
14491.0	2.1720073710338045e+18
14492.0	2.171491386078003e+18
14493.0	2.1709744532094968e+18
14494.0	2.170450015892275e+18
14495.0	2.169941397812019e+18
14496.0	2.1693766079348733e+18
14497.0	2.1689079464722424e+18
14498.0	2.168391332370841e+18
14499.0	2.16787495986135e+18
14500.0	2.1673579548508155e+18
14501.0	2.166795027244646e+18
14502.0	2.166206113408614e+18
14503.0	2.1657941857796093e+18
14504.0	2.1652886647734267e+18
14505.0	2.1647286849241083e+18
14506.0	2.164162552869683e+18
14507.0	2.1636536814534653e+18
14508.0	2.163223704895488e+18
14509.0	2.1627070152966144e+18
14510.0	2.1621902065795067e+18
14511.0	2.161673315654041e+18
14512.0	2.161150504049049e+18
14513.0	2.1606395354808317e+18
14514.0	2.1600172047859712e+18
14515.0	2.1595011611099133e+18
14516.0	2.158283172138189e+18
14517.0	2.1584669313073147e+18
14518.0	2.1579506963709947e+18
14519.0	2.157433847388569e+18
14520.0	2.1569168625106944e+18
14521.0	2.156399483368243e+18
14522.0	2.155880111092531e+18
14523.0	2.1552519452819448e+18
14524.0	2.154742073943654e+18
14525.0	2.1543293661741053e+18
14526.0	2.15381457240064e+18
14527.0	2.1532886653992955e+18
14528.0	2.152735225308774e+18
14529.0	2.152259200326041e+18
14530.0	2.1517403414331387e+18
14531.0	2.1512278813704187e+18
14532.0	2.150573853481369e+18
14533.0	2.1501931012751352e+18
14534.0	2.1496768982155261e+18
14535.0	2.149155101632102e+18
14536.0	2.148641831229849e+18
14537.0	2.148119762855526e+18
14538.0	2.1476066031828987e+18
14539.0	2.1470891116331005e+18
14540.0	2.1465713264820221e+18
14541.0	2.1460451745333243e+18
14542.0	2.145535437412761e+18
14543.0	2.144950295094886e+18
14544.0	2.144499150723481e+18
14545.0	2.143980124058419e+18
14546.0	2.1359099660730322e+18
14547.0	2.1361701857263555e+18
14548.0	2.1424214267396093e+18
14549.0	2.1418665823961088e+18
14550.0	2.141388656554803e+18
14551.0	2.1408729484230648e+18
14552.0	2.140353547626086e+18
14553.0	2.1398333666885627e+18
14554.0	2.1393172928135163e+18
14555.0	2.1387981386416125e+18
14556.0	2.138277031601766e+18
14557.0	2.1377605785616381e+18
14558.0	2.1372405486190587e+18
14559.0	2.1361889275543537e+18
14560.0	2.136189615420211e+18
14561.0	2.1356812775194621e+18
14562.0	2.1351533488635901e+18
14563.0	2.1346436654301181e+18
14564.0	2.1341137235083261e+18
14565.0	2.1336061523263483e+18
14566.0	2.1330862750564347e+18
14567.0	2.1325643929092093e+18
14568.0	2.1319427836346365e+18
14569.0	2.1314314073800701e+18
14570.0	2.1307545255673853e+18
14571.0	2.1303906109751293e+18
14572.0	2.129794727883571e+18
14573.0	2.1292452405051392e+18
14574.0	2.1287163169603581e+18
14575.0	2.128218053777817e+18
14576.0	2.127697792309657e+18
14577.0	2.1271800574902267e+18
14578.0	2.1266608798302203e+18
14579.0	2.126140022770892e+18
14580.0	2.12561847952343e+18
14581.0	2.1250925205127165e+18
14582.0	2.12457418171351e+18
14583.0	2.1240526317551616e+18
14584.0	2.1235226327908347e+18
14585.0	2.1230079715573757e+18
14586.0	2.1224844771196928e+18
14587.0	2.1219613249372155e+18
14588.0	2.121440982938419e+18
14589.0	2.120932002470297e+18
14590.0	2.1204240521232381e+18
14591.0	2.119914460964454e+18
14592.0	2.1194064418308093e+18
14593.0	2.1188570953809915e+18
14594.0	2.118390004265779e+18
14595.0	2.1178789165793277e+18
14596.0	2.117305451203788e+18
14597.0	2.1167902598103035e+18
14598.0	2.1163469671759867e+18
14599.0	2.1158433386397693e+18
14600.0	2.1153312879411195e+18
14601.0	2.1148213109063675e+18
14602.0	2.114306933207859e+18
14603.0	2.1137982664736763e+18
14604.0	2.1132693899051e+18
14605.0	2.112763454501683e+18
14606.0	2.112240844223283e+18
14607.0	2.1117499797929981e+18
14608.0	2.1112381337763837e+18
14609.0	2.110716145932697e+18
14610.0	2.1102004227014653e+18
14611.0	2.1096952808603645e+18
14612.0	2.1091876425695227e+18
14613.0	2.1086756153589755e+18
14614.0	2.1081612460490747e+18
14615.0	2.107646863317401e+18
14616.0	2.107134579415449e+18
14617.0	2.1066200121344e+18
14618.0	2.106093301504409e+18
14619.0	2.1055420843950075e+18
14620.0	2.1048909438648317e+18
14621.0	2.1045592130060283e+18
14622.0	2.104043496485683e+18
14623.0	2.103527311881011e+18
14624.0	2.102989593719603e+18
14625.0	2.1024938873847803e+18
14626.0	2.101974088967782e+18
14627.0	2.1014532352638973e+18
14628.0	2.1009413003280381e+18
14629.0	2.10042295985111e+18
14630.0	2.0999029584297976e+18
14631.0	2.099384886388326e+18
14632.0	2.0982783249743875e+18
14633.0	2.0982688877903867e+18
14634.0	2.097823857036492e+18
14635.0	2.0972604663791608e+18
14636.0	2.0966529180893181e+18
14637.0	2.0962669313916928e+18
14638.0	2.095741886739251e+18
14639.0	2.095217204474675e+18
14640.0	2.0946981895536637e+18
14641.0	2.091887146880203e+18
14642.0	2.093652027795046e+18
14643.0	2.0931313905172475e+18
14644.0	2.0926027488296957e+18
14645.0	2.0920750533771261e+18
14646.0	2.09154413166592e+18
14647.0	2.0910164664123387e+18
14648.0	2.090504281495961e+18
14649.0	2.089982780191539e+18
14650.0	2.0894551367483387e+18
