# Flux units: erg / (cm m2 s)
# Wavelength units: Angstrom
wave	flux
14000.0	2.050732822259302e+18
14001.0	2.0502197766717435e+18
14002.0	2.0497552138829824e+18
14003.0	2.0492597675950077e+18
14004.0	2.0487620597383163e+18
14005.0	2.0482670765015037e+18
14006.0	2.047764132475699e+18
14007.0	2.047264174794342e+18
14008.0	2.046694454093414e+18
14009.0	2.0462773355937787e+18
14010.0	2.0457689607831547e+18
14011.0	2.0448520322416637e+18
14012.0	2.0447873275527158e+18
14013.0	2.0442916665163773e+18
14014.0	2.043785902240563e+18
14015.0	2.0432916421017597e+18
14016.0	2.042796044818841e+18
14017.0	2.0423007579144187e+18
14018.0	2.041802503120486e+18
14019.0	2.0413107192987645e+18
14020.0	2.0408147109740536e+18
14021.0	2.040318984506572e+18
14022.0	2.039816941417267e+18
14023.0	2.0392552502919165e+18
14024.0	2.0387971182100477e+18
14025.0	2.0383391606112256e+18
14026.0	2.037844595127091e+18
14027.0	2.0373493501657088e+18
14028.0	2.0368509024337917e+18
14029.0	2.036355607140761e+18
14030.0	2.032916058079234e+18
14031.0	2.0353280546701302e+18
14032.0	2.034875806357913e+18
14033.0	2.034310841997721e+18
14034.0	2.0338841286082555e+18
14035.0	2.0333922189574144e+18
14036.0	2.0328957928800253e+18
14037.0	2.032390941284761e+18
14038.0	2.031915912868659e+18
14039.0	2.031419064005427e+18
14040.0	2.0309201112793083e+18
14041.0	2.030434236393062e+18
14042.0	2.0299373808189437e+18
14043.0	2.029425444205363e+18
14044.0	2.0289549288603643e+18
14045.0	2.0284674920153083e+18
14046.0	2.0279744515801088e+18
14047.0	2.0274701066567675e+18
14048.0	2.026988978044928e+18
14049.0	2.0265054167367675e+18
14050.0	2.0260145606950907e+18
14051.0	2.0255137205321725e+18
14052.0	2.0250291660128253e+18
14053.0	2.0245411201548288e+18
14054.0	2.0240523545542656e+18
14055.0	2.0235579551645693e+18
14056.0	2.023068505053593e+18
14057.0	2.022575739764736e+18
14058.0	2.0220861101375483e+18
14059.0	2.021594066268979e+18
14060.0	2.0211070303993856e+18
14061.0	2.0206124330385405e+18
14062.0	2.0201290478911488e+18
14063.0	2.0196272497491965e+18
14064.0	2.0187592100151293e+18
14065.0	2.0186563858137088e+18
14066.0	2.0181706602446843e+18
14067.0	2.017583883825971e+18
14068.0	2.0171961640419328e+18
14069.0	2.0167004811952125e+18
14070.0	2.0162192351428603e+18
14071.0	2.0157299410599933e+18
14072.0	2.0152428296929277e+18
14073.0	2.0147528729100288e+18
14074.0	2.014270313201664e+18
14075.0	2.0137648542711803e+18
14076.0	2.0131860168310781e+18
14077.0	2.012061134697267e+18
14078.0	2.0122652228190203e+18
14079.0	2.0118266781368317e+18
14080.0	2.0113488596697083e+18
14081.0	2.0108578308227072e+18
14082.0	2.0103442903072765e+18
14083.0	2.009882390062694e+18
14084.0	2.0093980435808253e+18
14085.0	2.0082133791932408e+18
14086.0	2.0083695012544507e+18
14087.0	2.007941229261619e+18
14088.0	2.007436986679296e+18
14089.0	2.0068778826006525e+18
14090.0	2.0064707331227645e+18
14091.0	2.0060004744691712e+18
14092.0	2.0055143982563325e+18
14093.0	2.0050307916496896e+18
14094.0	2.0045463847698427e+18
14095.0	2.0040622429700093e+18
14096.0	2.003418981020467e+18
14097.0	2.0030182354059261e+18
14098.0	2.00252312298455e+18
14099.0	2.0021251774873597e+18
14100.0	2.0016226981904381e+18
14101.0	2.001159155456409e+18
14102.0	2.0006734097547261e+18
14103.0	2.0001828473143293e+18
14104.0	1.999707089089331e+18
14105.0	1.9992173571211256e+18
14106.0	1.998743568541286e+18
14107.0	1.99823426930606e+18
14108.0	1.997756313265766e+18
14109.0	1.9972859287830525e+18
14110.0	1.9967772771483645e+18
14111.0	1.996267449430835e+18
14112.0	1.9958315924586493e+18
14113.0	1.9952938642309117e+18
14114.0	1.994852601639731e+18
14115.0	1.9943881713909755e+18
14116.0	1.9936458416586747e+18
14117.0	1.9888171676336138e+18
14118.0	1.9929498992508925e+18
14119.0	1.9923739558805501e+18
14120.0	1.9918991120138235e+18
14121.0	1.9914723130605563e+18
14122.0	1.9909279880314875e+18
14123.0	1.9903674377568253e+18
14124.0	1.9898602776166397e+18
14125.0	1.989219465140633e+18
14126.0	1.9890490740572155e+18
14127.0	1.988614042524057e+18
14128.0	1.9881349926092792e+18
14129.0	1.98764676555735e+18
14130.0	1.9871585972256763e+18
14131.0	1.9866892797739005e+18
14132.0	1.9862125753139197e+18
14133.0	1.9853275855585267e+18
14134.0	1.9852610018213888e+18
14135.0	1.9847439951331325e+18
14136.0	1.9839074193899517e+18
14137.0	1.9838178206679035e+18
14138.0	1.983275985377689e+18
14139.0	1.9828693023064061e+18
14140.0	1.9823418652229627e+18
14141.0	1.9818971482030075e+18
14142.0	1.9809578455662592e+18
14143.0	1.980851090463129e+18
14144.0	1.98047588983767e+18
14145.0	1.979998036138393e+18
14146.0	1.9795133625008125e+18
14147.0	1.9790381159809021e+18
14148.0	1.9785357021151232e+18
14149.0	1.9780448846610427e+18
14150.0	1.9776130156331005e+18
14151.0	1.9770693046501373e+18
14152.0	1.9766606351564797e+18
14153.0	1.9761859909386237e+18
14154.0	1.975689110198681e+18
14155.0	1.9731721553444877e+18
14156.0	1.974576037547211e+18
14157.0	1.974276633028198e+18
14158.0	1.9737807807315963e+18
14159.0	1.9733307973435387e+18
14160.0	1.9728539385331707e+18
14161.0	1.9723319087464445e+18
14162.0	1.971824471782195e+18
14163.0	1.971431435298406e+18
14164.0	1.9707790767423483e+18
14165.0	1.9700281453314045e+18
14166.0	1.9700015333113853e+18
14167.0	1.9695235672047616e+18
14168.0	1.969018650178355e+18
14169.0	1.9685843920748541e+18
14170.0	1.9680879206989821e+18
14171.0	1.9676187508867072e+18
14172.0	1.9671668867727352e+18
14173.0	1.9664914293456896e+18
14174.0	1.9662054616989693e+18
14175.0	1.965746916897587e+18
14176.0	1.9652354399797243e+18
14177.0	1.964783302397132e+18
14178.0	1.9643175920467968e+18
14179.0	1.9638080545751037e+18
14180.0	1.963378947076915e+18
14181.0	1.9629067640766464e+18
14182.0	1.962434138157875e+18
14183.0	1.9619627722080253e+18
14184.0	1.9614870257270781e+18
14185.0	1.961018585723699e+18
14186.0	1.9596276186218496e+18
14187.0	1.9600576337674235e+18
14188.0	1.9596020484669437e+18
14189.0	1.9591208493907963e+18
14190.0	1.9586558520721403e+18
14191.0	1.958180820300595e+18
14192.0	1.9577136973086715e+18
14193.0	1.95709411304407e+18
14194.0	1.9567707926036475e+18
14195.0	1.956310586857881e+18
14196.0	1.9558403332374525e+18
14197.0	1.9553690880835581e+18
14198.0	1.9548969839362043e+18
14199.0	1.9544191621136381e+18
14200.0	1.9534308330962944e+18
14201.0	1.9534749588520955e+18
14202.0	1.9530207023071232e+18
14203.0	1.952504324764467e+18
14204.0	1.9520731670904832e+18
14205.0	1.9516128657145853e+18
14206.0	1.9510509497745405e+18
14207.0	1.950678232177049e+18
14208.0	1.9502097938513917e+18
14209.0	1.9496363284758525e+18
14210.0	1.9492052211335163e+18
14211.0	1.9487998500405243e+18
14212.0	1.9483369465184253e+18
14213.0	1.9478472732704765e+18
14214.0	1.9474017425555453e+18
14215.0	1.946919196268953e+18
14216.0	1.9464638592712701e+18
14217.0	1.9459946777149437e+18
14218.0	1.9455181259276288e+18
14219.0	1.9450593881882621e+18
14220.0	1.9445903458828283e+18
14221.0	1.9441035834818555e+18
14222.0	1.9434980232921083e+18
14223.0	1.9431785515450365e+18
14224.0	1.9427282158354427e+18
14225.0	1.9408016025583624e+18
14226.0	1.9417946241630205e+18
14227.0	1.9413296671096827e+18
14228.0	1.9377390996160522e+18
14229.0	1.939868692040906e+18
14230.0	1.93993399903191e+18
14231.0	1.9393086417272824e+18
14232.0	1.9390035061112827e+18
14233.0	1.9385316485890043e+18
14234.0	1.9380735869714427e+18
14235.0	1.9376065965195261e+18
14236.0	1.9371407737618424e+18
14237.0	1.936675214406451e+18
14238.0	1.9362111800999933e+18
14239.0	1.9357305615155197e+18
14240.0	1.9342733210550272e+18
14241.0	1.9348135356661755e+18
14242.0	1.9343559370997755e+18
14243.0	1.933777879800217e+18
14244.0	1.9334326902587387e+18
14245.0	1.932951870347673e+18
14246.0	1.932474885708185e+18
14247.0	1.9320375640850427e+18
14248.0	1.9315683858841592e+18
14249.0	1.9311131025735677e+18
14250.0	1.930652579738419e+18
14251.0	1.930190684527001e+18
14252.0	1.9297289604431864e+18
14253.0	1.9292667028439035e+18
14254.0	1.9288030980341755e+18
14255.0	1.928321095329382e+18
14256.0	1.9268449905672197e+18
14257.0	1.927396841855385e+18
14258.0	1.926957837477478e+18
14259.0	1.9264585794060288e+18
14260.0	1.9260046886043643e+18
14261.0	1.9255555038117883e+18
14262.0	1.925114801579622e+18
14263.0	1.9231325097558024e+18
14264.0	1.9239542309519355e+18
14265.0	1.9236721136762877e+18
14266.0	1.9232653802733563e+18
14267.0	1.922804729931366e+18
14268.0	1.92234321388503e+18
14269.0	1.9218780471164928e+18
14270.0	1.921424949877145e+18
14271.0	1.920957368867225e+18
14272.0	1.920501129255321e+18
14273.0	1.9200458761437181e+18
14274.0	1.9173602616147983e+18
14275.0	1.918927426394521e+18
14276.0	1.9186202825457661e+18
14277.0	1.918182942467686e+18
14278.0	1.9177506506539008e+18
14279.0	1.9172908744048637e+18
14280.0	1.9168275313197053e+18
14281.0	1.9163747008380925e+18
14282.0	1.9159165251354621e+18
14283.0	1.9154582538027003e+18
14284.0	1.915000094877286e+18
14285.0	1.9145417782460408e+18
14286.0	1.9140779368775677e+18
14287.0	1.9136244655063037e+18
14288.0	1.9131675178958843e+18
14289.0	1.9120646004932593e+18
14290.0	1.9122440781168637e+18
14291.0	1.9117951416270845e+18
14292.0	1.9113380111450107e+18
14293.0	1.910881367202201e+18
14294.0	1.9103107724083197e+18
14295.0	1.9099504498180093e+18
14296.0	1.9089878369173507e+18
14297.0	1.909057069776896e+18
14298.0	1.908001705715302e+18
14299.0	1.908108229292851e+18
14300.0	1.9076818296373245e+18
14301.0	1.9072192499154936e+18
14302.0	1.906774289625907e+18
14303.0	1.9062833127882747e+18
14304.0	1.9058537170731005e+18
14305.0	1.9054049550663677e+18
14306.0	1.9048252754100216e+18
14307.0	1.9044526500872187e+18
14308.0	1.9040337750130683e+18
14309.0	1.9035634861604861e+18
14310.0	1.9025844802420728e+18
14311.0	1.9017352578334717e+18
14312.0	1.9020667840102397e+18
14313.0	1.9017019298938875e+18
14314.0	1.9012862794006525e+18
14315.0	1.9008538718240765e+18
14316.0	1.9003700387250173e+18
14317.0	1.899785832575795e+18
14318.0	1.899503071055052e+18
14319.0	1.8990505794732032e+18
14320.0	1.8985958196117496e+18
14321.0	1.89813672116224e+18
14322.0	1.8976529736269821e+18
14323.0	1.8972206985904125e+18
14324.0	1.8967626168401915e+18
14325.0	1.8963199315410944e+18
14326.0	1.8958759141310461e+18
14327.0	1.8954160992944125e+18
14328.0	1.8949647301083136e+18
14329.0	1.894519363810099e+18
14330.0	1.8940670785880061e+18
14331.0	1.8935957646475261e+18
14332.0	1.8931620501258237e+18
14333.0	1.8927115080564736e+18
14334.0	1.8922605398458365e+18
14335.0	1.8917836541919232e+18
14336.0	1.8911804780445693e+18
14337.0	1.890903360379289e+18
14338.0	1.890451244607078e+18
14339.0	1.889985822824857e+18
14340.0	1.8895538262900733e+18
14341.0	1.8890874800832507e+18
14342.0	1.8886499940433915e+18
14343.0	1.8881814617653245e+18
14344.0	1.8877380986667003e+18
14345.0	1.8873033255026683e+18
14346.0	1.8868509295509504e+18
14347.0	1.8863273680044027e+18
14348.0	1.8859509929738235e+18
14349.0	1.8855059924189184e+18
14350.0	1.8849387564236792e+18
14351.0	1.8844810873929725e+18
14352.0	1.884151212094259e+18
14353.0	1.8837083942551547e+18
14354.0	1.8832486582714365e+18
14355.0	1.8827798189703163e+18
14356.0	1.8823406233321472e+18
14357.0	1.881914480368025e+18
14358.0	1.881466028739788e+18
14359.0	1.881004760996249e+18
14360.0	1.8805616260677624e+18
14361.0	1.8801191806828541e+18
14362.0	1.879673993900851e+18
14363.0	1.8792258878832637e+18
14364.0	1.8783480401887232e+18
14365.0	1.878262125743308e+18
14366.0	1.8778162125078525e+18
14367.0	1.8774360676368384e+18
14368.0	1.876988770281062e+18
14369.0	1.8765432580210683e+18
14370.0	1.876095789537689e+18
14371.0	1.8756505675235325e+18
14372.0	1.8751937893629947e+18
14373.0	1.8747559694565373e+18
14374.0	1.8743087190769661e+18
14375.0	1.8738632923807736e+18
14376.0	1.8734186961567741e+18
14377.0	1.8729725799170045e+18
14378.0	1.872525111433625e+18
14379.0	1.8720815017099261e+18
14380.0	1.8716352764182525e+18
14381.0	1.8711807279497213e+18
14382.0	1.8707427838918656e+18
14383.0	1.87026749039575e+18
14384.0	1.8698330628423675e+18
14385.0	1.869404769039155e+18
14386.0	1.8689450917756925e+18
14387.0	1.8685138183389184e+18
14388.0	1.8680668296839163e+18
14389.0	1.867625407709184e+18
14390.0	1.8671802091831293e+18
14391.0	1.8667272646164472e+18
14392.0	1.8662734241464317e+18
14393.0	1.865849532684697e+18
14394.0	1.8653753095749632e+18
14395.0	1.8646567531577344e+18
14396.0	1.8645034748346363e+18
14397.0	1.8640754259787776e+18
14398.0	1.8636150709157888e+18
14399.0	1.8631804487467008e+18
14400.0	1.862540119454515e+18
14401.0	1.8622958834548733e+18
14402.0	1.8618562264432637e+18
14403.0	1.854686822085417e+18
14404.0	1.8450125877673964e+18
14405.0	1.8595148334104548e+18
14406.0	1.8600886410412032e+18
14407.0	1.8496667250589745e+18
14408.0	1.8590628166238205e+18
14409.0	1.8587469519781883e+18
14410.0	1.8582864257875963e+18
14411.0	1.8578660709629947e+18
14412.0	1.8574348545687547e+18
14413.0	1.856996116948582e+18
14414.0	1.8565537554497533e+18
14415.0	1.8561142561439736e+18
14416.0	1.8556393099362296e+18
14417.0	1.8551164916203515e+18
14418.0	1.854685164496486e+18
14419.0	1.85435010671575e+18
14420.0	1.8539059315998715e+18
14421.0	1.8534695511785472e+18
14422.0	1.8530248274477053e+18
14423.0	1.852577540158259e+18
14424.0	1.8155420673638205e+18
14425.0	1.851703277754777e+18
14426.0	1.8512686555856893e+18
14427.0	1.850830235054899e+18
14428.0	1.8503609058590717e+18
14429.0	1.8499482400325627e+18
14430.0	1.8495123226623997e+18
14431.0	1.8483989094334467e+18
14432.0	1.8485989810896896e+18
14433.0	1.8406995866419154e+18
14434.0	1.8477435444002808e+18
14435.0	1.8472059688452093e+18
14436.0	1.8468780816465915e+18
14437.0	1.8464398607646715e+18
14438.0	1.8457345348599805e+18
14439.0	1.845502645213593e+18
14440.0	1.8451244901203963e+18
14441.0	1.8446815095422976e+18
14442.0	1.8442422384066552e+18
14443.0	1.843775424115507e+18
14444.0	1.8433698332409853e+18
14445.0	1.8429356573458424e+18
14446.0	1.8346761030467612e+18
14447.0	1.8420419753148408e+18
14448.0	1.8416237058981888e+18
14449.0	1.8411868523593723e+18
14450.0	1.8407461736153083e+18
14451.0	1.8403105280360445e+18
14452.0	1.8398702133575675e+18
14453.0	1.8392815864119293e+18
14454.0	1.838998730938777e+18
14455.0	1.8385604916019197e+18
14456.0	1.8380913905762304e+18
14457.0	1.8376333910343675e+18
14458.0	1.8371208386969597e+18
14459.0	1.836779786416947e+18
14460.0	1.836375027692339e+18
14461.0	1.8358556940042237e+18
14462.0	1.8346887346126845e+18
14463.0	1.8350416718725115e+18
14464.0	1.8346325493940221e+18
14465.0	1.834189132608307e+18
14466.0	1.8337637496520704e+18
14467.0	1.8332210855673856e+18
14468.0	1.8328859254456315e+18
14469.0	1.8324132542283776e+18
14470.0	1.8320092890660861e+18
14471.0	1.831580434903859e+18
14472.0	1.8311514800783355e+18
14473.0	1.8307274409771003e+18
14474.0	1.830295592081817e+18
14475.0	1.8298510663221243e+18
14476.0	1.8289297505386499e+18
14477.0	1.8289926097338363e+18
14478.0	1.8285569524105216e+18
14479.0	1.8281154381611003e+18
14480.0	1.8276805039357947e+18
14481.0	1.8272620885573624e+18
14482.0	1.8268261091115005e+18
14483.0	1.826386384991027e+18
14484.0	1.8259580056240125e+18
14485.0	1.825499704092262e+18
14486.0	1.8248712211922941e+18
14487.0	1.824652669432627e+18
14488.0	1.8240202589863933e+18
14489.0	1.8237236092862461e+18
14490.0	1.8233467326169085e+18
14491.0	1.822937199096627e+18
14492.0	1.822496881062707e+18
14493.0	1.822039582808473e+18
14494.0	1.821618665947136e+18
14495.0	1.8212122630553592e+18
14496.0	1.8206769440358397e+18
14497.0	1.8203476962050045e+18
14498.0	1.8199155016990715e+18
14499.0	1.8194874830422013e+18
14500.0	1.8190565518606333e+18
14501.0	1.8183866057490432e+18
14502.0	1.8177157301796861e+18
14503.0	1.8176946043092987e+18
14504.0	1.8173282284994555e+18
14505.0	1.8166698502782968e+18
14506.0	1.815962522851737e+18
14507.0	1.8158572659539965e+18
14508.0	1.8156130148548603e+18
14509.0	1.8151826876530685e+18
14510.0	1.8147518269358075e+18
14511.0	1.814324019671859e+18
14512.0	1.8138815558320125e+18
14513.0	1.8134633166143485e+18
14514.0	1.8129493164031997e+18
14515.0	1.8125965351714813e+18
14516.0	1.8106146392899594e+18
14517.0	1.8117456551739387e+18
14518.0	1.8113163228610552e+18
14519.0	1.8108866986246141e+18
14520.0	1.8104588225740792e+18
14521.0	1.8100249084035072e+18
14522.0	1.80958518092759e+18
14523.0	1.8085511826505718e+18
14524.0	1.8081822718033915e+18
14525.0	1.8083127180132347e+18
14526.0	1.8078842916700152e+18
14527.0	1.8074037687156733e+18
14528.0	1.806804919412326e+18
14529.0	1.8065965916880896e+18
14530.0	1.8061627328823293e+18
14531.0	1.805747917894451e+18
14532.0	1.8044193033158653e+18
14533.0	1.8048915215482877e+18
14534.0	1.804468344795955e+18
14535.0	1.8040306591072253e+18
14536.0	1.80361022710743e+18
14537.0	1.803174651992473e+18
14538.0	1.8027576274452477e+18
14539.0	1.802332764582707e+18
14540.0	1.8019071685558264e+18
14541.0	1.8014612771307517e+18
14542.0	1.8010520808325115e+18
14543.0	1.800282821990809e+18
14544.0	1.8002001841356797e+18
14545.0	1.7997615522119675e+18
14546.0	1.7652982816440174e+18
14547.0	1.7681908917862218e+18
14548.0	1.798486102953164e+18
14549.0	1.7979808906477565e+18
14550.0	1.7976399138652155e+18
14551.0	1.7972220605235197e+18
14552.0	1.7967830058139643e+18
14553.0	1.796351888405299e+18
14554.0	1.7959410278072317e+18
14555.0	1.7955120394272765e+18
14556.0	1.79507491241984e+18
14557.0	1.7946641021534205e+18
14558.0	1.7942377343746048e+18
14559.0	1.7922446615117793e+18
14560.0	1.7930018709569528e+18
14561.0	1.7929618472304635e+18
14562.0	1.7925055136661504e+18
14563.0	1.7921166245101565e+18
14564.0	1.7916136536408061e+18
14565.0	1.7912719789260795e+18
14566.0	1.7908480622985208e+18
14567.0	1.790420379185971e+18
14568.0	1.789713638961971e+18
14569.0	1.7895710879907837e+18
14570.0	1.7886820817698808e+18
14571.0	1.7887247562964987e+18
14572.0	1.7881731533111293e+18
14573.0	1.7878195265077248e+18
14574.0	1.787233151064473e+18
14575.0	1.7870091785863168e+18
14576.0	1.7865928519712763e+18
14577.0	1.7861810417827837e+18
14578.0	1.7857626666696704e+18
14579.0	1.7853411038855163e+18
14580.0	1.7849191334150144e+18
14581.0	1.7844632125702141e+18
14582.0	1.7840681410101248e+18
14583.0	1.7836528982032381e+18
14584.0	1.7832062450925563e+18
14585.0	1.782808489177907e+18
14586.0	1.7823841078214653e+18
14587.0	1.781953752098406e+18
14588.0	1.7815396400758784e+18
14589.0	1.7811385824051197e+18
14590.0	1.780735152436019e+18
14591.0	1.7803161062342653e+18
14592.0	1.7799187496173563e+18
14593.0	1.779426838288793e+18
14594.0	1.779116578911027e+18
14595.0	1.7787089529602048e+18
14596.0	1.7779441400807416e+18
14597.0	1.7775294576328694e+18
14598.0	1.7774767687860221e+18
14599.0	1.7771014507200502e+18
14600.0	1.7766834799378427e+18
14601.0	1.7762888496185341e+18
14602.0	1.7758210739929085e+18
14603.0	1.7754625583087616e+18
14604.0	1.775008415848857e+18
14605.0	1.7745621150597115e+18
14606.0	1.774139929840845e+18
14607.0	1.7738701555630075e+18
14608.0	1.7734630731939837e+18
14609.0	1.773000391131136e+18
14610.0	1.7724429345751037e+18
14611.0	1.7722429786816507e+18
14612.0	1.7718595152773115e+18
14613.0	1.7714605178486781e+18
14614.0	1.7710549236187139e+18
14615.0	1.7705826768650237e+18
14616.0	1.7702537746448381e+18
14617.0	1.7698511801810936e+18
14618.0	1.769337223590707e+18
14619.0	1.7688075450712056e+18
14620.0	1.7676679761625088e+18
14621.0	1.768243439704473e+18
14622.0	1.7678389393489915e+18
14623.0	1.7674395476557821e+18
14624.0	1.766991379562496e+18
14625.0	1.7666327833477117e+18
14626.0	1.7662157034356733e+18
14627.0	1.7658014219632637e+18
14628.0	1.765430271357747e+18
14629.0	1.7650285929299965e+18
14630.0	1.7646202036158461e+18
14631.0	1.7642180554260475e+18
14632.0	1.7605492540964877e+18
14633.0	1.7629643158847473e+18
14634.0	1.763001568015155e+18
14635.0	1.7602680109137825e+18
14636.0	1.755923926640228e+18
14637.0	1.7618153685123072e+18
14638.0	1.761378538461593e+18
14639.0	1.760990852231987e+18
14640.0	1.7606071673683965e+18
14641.0	1.747884603500126e+18
14642.0	1.759803612541747e+18
14643.0	1.759402205904896e+18
14644.0	1.758987852290457e+18
14645.0	1.758577691302297e+18
14646.0	1.7580833858650107e+18
14647.0	1.7576868647534587e+18
