# Flux units: erg / (cm m2 s)
# Wavelength units: Angstrom
wave	flux
14000.0	1.9945138998476792e+18
14001.0	1.9942960208543747e+18
14002.0	1.9940223743950843e+18
14003.0	1.993646752661503e+18
14004.0	1.9932682167255035e+18
14005.0	1.9928884627636221e+18
14006.0	1.992501843564953e+18
14007.0	1.9921187341598715e+18
14008.0	1.991666410350182e+18
14009.0	1.9913556711440381e+18
14010.0	1.990967672858214e+18
14011.0	1.9900544084606968e+18
14012.0	1.9902147650912253e+18
14013.0	1.9898484731674621e+18
14014.0	1.989464855412736e+18
14015.0	1.989089589356134e+18
14016.0	1.988711972811571e+18
14017.0	1.9883330979758077e+18
14018.0	1.9879507603226621e+18
14019.0	1.9875747275472893e+18
14020.0	1.9871948813107197e+18
14021.0	1.986815001519718e+18
14022.0	1.9864342761570301e+18
14023.0	1.9860440901222397e+18
14024.0	1.9856657035034621e+18
14025.0	1.985299435067801e+18
14026.0	1.9849202146213888e+18
14027.0	1.9845421870350328e+18
14028.0	1.9841552272588797e+18
14029.0	1.9837667172679677e+18
14030.0	1.9823628619087877e+18
14031.0	1.982883628371148e+18
14032.0	1.9826414811348987e+18
14033.0	1.9822299561590781e+18
14034.0	1.9818936937742333e+18
14035.0	1.9815187045416955e+18
14036.0	1.9811377979850747e+18
14037.0	1.9807649797242875e+18
14038.0	1.9803878044205048e+18
14039.0	1.9800064482344955e+18
14040.0	1.9796301805780987e+18
14041.0	1.9792547199057912e+18
14042.0	1.9788693304770555e+18
14043.0	1.9784676184948736e+18
14044.0	1.978113120953958e+18
14045.0	1.9777431397203965e+18
14046.0	1.977366501287526e+18
14047.0	1.976985234020761e+18
14048.0	1.9766172324986875e+18
14049.0	1.9762419395985405e+18
14050.0	1.975865598122393e+18
14051.0	1.97548240315351e+18
14052.0	1.97510827123671e+18
14053.0	1.9747370132570112e+18
14054.0	1.9743611516092416e+18
14055.0	1.973985207753113e+18
14056.0	1.9736093192617981e+18
14057.0	1.9732335482109947e+18
14058.0	1.972857820780953e+18
14059.0	1.9724821638152187e+18
14060.0	1.9721064766504955e+18
14061.0	1.971725024834355e+18
14062.0	1.971354533573427e+18
14063.0	1.9709626933051387e+18
14064.0	1.970404043889049e+18
14065.0	1.9702208736002043e+18
14066.0	1.9698547142164477e+18
14067.0	1.969475611210547e+18
14068.0	1.9691051568594941e+18
14069.0	1.9687287365304315e+18
14070.0	1.9683550005559293e+18
14071.0	1.967978672501555e+18
14072.0	1.9676067266559997e+18
14073.0	1.9672322357067773e+18
14074.0	1.9668576055066624e+18
14075.0	1.9664654649262077e+18
14076.0	1.9660994582151163e+18
14077.0	1.9654970907295736e+18
14078.0	1.9653337494323197e+18
14079.0	1.9649758494719997e+18
14080.0	1.964612642878259e+18
14081.0	1.9642394873954301e+18
14082.0	1.9638649343705088e+18
14083.0	1.9634895441625083e+18
14084.0	1.9631081644883963e+18
14085.0	1.9624463200944125e+18
14086.0	1.9623365148934141e+18
14087.0	1.9619932832530427e+18
14088.0	1.9616123985068027e+18
14089.0	1.9612484721704955e+18
14090.0	1.9608782241791997e+18
14091.0	1.960507347042304e+18
14092.0	1.960134964989132e+18
14093.0	1.9597621031075837e+18
14094.0	1.9593887295209472e+18
14095.0	1.9590131446972408e+18
14096.0	1.958610221400064e+18
14097.0	1.9582398475796475e+18
14098.0	1.9578822445760512e+18
14099.0	1.9575248630317053e+18
14100.0	1.9571447366156283e+18
14101.0	1.95678403821568e+18
14102.0	1.9564121376686077e+18
14103.0	1.9560274780487675e+18
14104.0	1.9556661689581563e+18
14105.0	1.955297420849971e+18
14106.0	1.9549258390700027e+18
14107.0	1.9545540408639483e+18
14108.0	1.9541712200269821e+18
14109.0	1.9538069782790144e+18
14110.0	1.9534373845991421e+18
14111.0	1.953060690801459e+18
14112.0	1.9526878473748477e+18
14113.0	1.9523236979015675e+18
14114.0	1.9519370166271997e+18
14115.0	1.9515681510785021e+18
14116.0	1.9511050848174075e+18
14117.0	1.9489180908257277e+18
14118.0	1.9504197271551997e+18
14119.0	1.9500583727661056e+18
14120.0	1.94970281658286e+18
14121.0	1.9493391754592256e+18
14122.0	1.9489725228253181e+18
14123.0	1.9486012061253627e+18
14124.0	1.948217190750617e+18
14125.0	1.947471235461939e+18
14126.0	1.947494181660262e+18
14127.0	1.9471382614114301e+18
14128.0	1.946769652554137e+18
14129.0	1.946390408619622e+18
14130.0	1.9460109734248445e+18
14131.0	1.9456609268793341e+18
14132.0	1.9452711569195005e+18
14133.0	1.9444495514861558e+18
14134.0	1.9445366923460603e+18
14135.0	1.9441683066257405e+18
14136.0	1.943805202373017e+18
14137.0	1.9434391738515453e+18
14138.0	1.9430645688172541e+18
14139.0	1.942707205727846e+18
14140.0	1.94233413748654e+18
14141.0	1.9419322023673853e+18
14142.0	1.9415100456697848e+18
14143.0	1.9412253430251517e+18
14144.0	1.9408669028384765e+18
14145.0	1.940499451609088e+18
14146.0	1.940129146575257e+18
14147.0	1.9397641867624443e+18
14148.0	1.9393957439995904e+18
14149.0	1.9390287373664253e+18
14150.0	1.938663374900428e+18
14151.0	1.9382907629993981e+18
14152.0	1.9379284959297533e+18
14153.0	1.93756090377175e+18
14154.0	1.9371684326801405e+18
14155.0	1.9367996828942333e+18
14156.0	1.9364550486786043e+18
14157.0	1.93609089417216e+18
14158.0	1.9357207954980861e+18
14159.0	1.935356310480486e+18
14160.0	1.934974986171187e+18
14161.0	1.9345729151565821e+18
14162.0	1.934161826388377e+18
14163.0	1.9338763738021888e+18
14164.0	1.9334708450033656e+18
14165.0	1.9331273264726008e+18
14166.0	1.932785286014566e+18
14167.0	1.932408793543475e+18
14168.0	1.9320560626434045e+18
14169.0	1.9316916212465661e+18
14170.0	1.931322891593318e+18
14171.0	1.9309571348627453e+18
14172.0	1.9305934165639163e+18
14173.0	1.9302085052858365e+18
14174.0	1.9298547912409083e+18
14175.0	1.929496569158041e+18
14176.0	1.929131339232051e+18
14177.0	1.9287658995908605e+18
14178.0	1.928399859325337e+18
14179.0	1.928030987065753e+18
14180.0	1.9276696444207104e+18
14181.0	1.9273043188645888e+18
14182.0	1.926938214845644e+18
14183.0	1.9265729027112955e+18
14184.0	1.926201398106521e+18
14185.0	1.9258277426626555e+18
14186.0	1.9251495891369981e+18
14187.0	1.9250555293532155e+18
14188.0	1.9247411662684155e+18
14189.0	1.924380836967219e+18
14190.0	1.9240170666590203e+18
14191.0	1.9236512528859133e+18
14192.0	1.923279211410227e+18
14193.0	1.9228745248276477e+18
14194.0	1.9225593178488832e+18
14195.0	1.922199755266457e+18
14196.0	1.921836278559539e+18
14197.0	1.921472409265766e+18
14198.0	1.9211039899910144e+18
14199.0	1.9207399546028027e+18
14200.0	1.920180142525644e+18
14201.0	1.9199806027071483e+18
14202.0	1.9196506217119744e+18
14203.0	1.919285764240179e+18
14204.0	1.9189247806275581e+18
14205.0	1.9185594097729533e+18
14206.0	1.9180914227544061e+18
14207.0	1.917831745005158e+18
14208.0	1.9174724441473021e+18
14209.0	1.91699476325335e+18
14210.0	1.9166570798383096e+18
14211.0	1.9163801953763325e+18
14212.0	1.916023802010009e+18
14213.0	1.9156620768444416e+18
14214.0	1.9152991990841344e+18
14215.0	1.9149273656459261e+18
14216.0	1.9145760188661755e+18
14217.0	1.914213936345907e+18
14218.0	1.9138398832820221e+18
14219.0	1.9134895146139645e+18
14220.0	1.9131250094637053e+18
14221.0	1.91276376915968e+18
14222.0	1.9123872481673208e+18
14223.0	1.9120391528120315e+18
14224.0	1.9116240056352765e+18
14225.0	1.9106014427086845e+18
14226.0	1.910848477147955e+18
14227.0	1.9105150954110968e+18
14228.0	1.9085281244217347e+18
14229.0	1.9094043598258158e+18
14230.0	1.9094358976364541e+18
14231.0	1.9090736339222525e+18
14232.0	1.9087214734475261e+18
14233.0	1.9083590033735675e+18
14234.0	1.9080001487896573e+18
14235.0	1.907637115001241e+18
14236.0	1.9072780892897277e+18
14237.0	1.906915287026892e+18
14238.0	1.9065525770387453e+18
14239.0	1.9061696605716477e+18
14240.0	1.9043928527339523e+18
14241.0	1.90542788952064e+18
14242.0	1.905051620186521e+18
14243.0	1.9045540448698368e+18
14244.0	1.9043243983372283e+18
14245.0	1.9039587154264056e+18
14246.0	1.9035991947870203e+18
14247.0	1.9032427208900605e+18
14248.0	1.902873167475507e+18
14249.0	1.9025230185889787e+18
14250.0	1.9021657712623613e+18
14251.0	1.9018075575681021e+18
14252.0	1.901446961509171e+18
14253.0	1.9010846189420536e+18
14254.0	1.9007193521061888e+18
14255.0	1.9003133552230392e+18
14256.0	1.8993584145432579e+18
14257.0	1.8994675285229565e+18
14258.0	1.899273807042969e+18
14259.0	1.8989037217906683e+18
14260.0	1.8985393944788987e+18
14261.0	1.8981790265901053e+18
14262.0	1.8977845808201725e+18
14263.0	1.8964928761167872e+18
14264.0	1.896668229900697e+18
14265.0	1.8966983903019005e+18
14266.0	1.896365277000499e+18
14267.0	1.896011672007475e+18
14268.0	1.8956545521876987e+18
14269.0	1.8952872116879355e+18
14270.0	1.8949359789932544e+18
14271.0	1.894573708568166e+18
14272.0	1.8942040209358843e+18
14273.0	1.8937820034891779e+18
14274.0	1.8919133068394496e+18
14275.0	1.892839679275827e+18
14276.0	1.8927469096599547e+18
14277.0	1.892414407049216e+18
14278.0	1.8920696721702912e+18
14279.0	1.8917130976100347e+18
14280.0	1.8913529864126461e+18
14281.0	1.891001736940748e+18
14282.0	1.8906449040113661e+18
14283.0	1.890287561054617e+18
14284.0	1.889930031870771e+18
14285.0	1.8895080127463421e+18
14286.0	1.8891430613221373e+18
14287.0	1.888784080909107e+18
14288.0	1.8884110613217275e+18
14289.0	1.887144405001829e+18
14290.0	1.8876975800123384e+18
14291.0	1.8873537360035837e+18
14292.0	1.8869963813027837e+18
14293.0	1.8866372901601277e+18
14294.0	1.886165627253555e+18
14295.0	1.8858967354572797e+18
14296.0	1.8848353701855235e+18
14297.0	1.8851677167681533e+18
14298.0	1.8845771151441915e+18
14299.0	1.884469957387878e+18
14300.0	1.884134850953216e+18
14301.0	1.8837836283248637e+18
14302.0	1.8834294797500413e+18
14303.0	1.883038797109657e+18
14304.0	1.882701318376652e+18
14305.0	1.8823575901306877e+18
14306.0	1.881990482834227e+18
14307.0	1.8816324721442813e+18
14308.0	1.8812805499060221e+18
14309.0	1.8809150179901435e+18
14310.0	1.8804747569987581e+18
14311.0	1.8800722413879293e+18
14312.0	1.8797349874696187e+18
14313.0	1.879333169790976e+18
14314.0	1.8790698144759805e+18
14315.0	1.878719890404147e+18
14316.0	1.8783263858360317e+18
14317.0	1.8780000790511613e+18
14318.0	1.8776628704313341e+18
14319.0	1.877311822286028e+18
14320.0	1.8769575680147453e+18
14321.0	1.876600089162547e+18
14322.0	1.8762166995779584e+18
14323.0	1.8758731709808635e+18
14324.0	1.8755400375468027e+18
14325.0	1.8751763175702528e+18
14326.0	1.874832033998438e+18
14327.0	1.874470714841497e+18
14328.0	1.874117529278873e+18
14329.0	1.8737690279149563e+18
14330.0	1.873414834041651e+18
14331.0	1.8730603666997245e+18
14332.0	1.872706350664908e+18
14333.0	1.8723521534361597e+18
14334.0	1.8719976844165117e+18
14335.0	1.8716301644005376e+18
14336.0	1.8712213472673787e+18
14337.0	1.870931517505536e+18
14338.0	1.87051358027776e+18
14339.0	1.8701427719274493e+18
14340.0	1.869799094013132e+18
14341.0	1.8694439069286397e+18
14342.0	1.8690901006090235e+18
14343.0	1.868737495538073e+18
14344.0	1.8683805015474176e+18
14345.0	1.8680304818454525e+18
14346.0	1.8676726607380475e+18
14347.0	1.8673052413853693e+18
14348.0	1.866965512827699e+18
14349.0	1.8666146022555645e+18
14350.0	1.8662049210957821e+18
14351.0	1.8658473231253504e+18
14352.0	1.8655470260584445e+18
14353.0	1.865202898514739e+18
14354.0	1.8648444180627453e+18
14355.0	1.8644787385073661e+18
14356.0	1.8641291785011197e+18
14357.0	1.8637936727687165e+18
14358.0	1.8634420038664187e+18
14359.0	1.8630738530271227e+18
14360.0	1.8627324450701307e+18
14361.0	1.862381323105075e+18
14362.0	1.8620309041053693e+18
14363.0	1.8616744419524603e+18
14364.0	1.8611621832163325e+18
14365.0	1.860904022127411e+18
14366.0	1.8605884326281216e+18
14367.0	1.8602704490201083e+18
14368.0	1.8599192280694781e+18
14369.0	1.8595681564360704e+18
14370.0	1.8591558093766653e+18
14371.0	1.8587899050065915e+18
14372.0	1.858432671101747e+18
14373.0	1.8580845203816443e+18
14374.0	1.8577340460171261e+18
14375.0	1.8573808269000696e+18
14376.0	1.8570308759846907e+18
14377.0	1.8566786282684413e+18
14378.0	1.8563252497678333e+18
14379.0	1.855975973296537e+18
14380.0	1.8556235880071165e+18
14381.0	1.8552614887096317e+18
14382.0	1.854920325699993e+18
14383.0	1.854568985631129e+18
14384.0	1.8542009337774075e+18
14385.0	1.8538684512993277e+18
14386.0	1.8534990086143997e+18
14387.0	1.8531660161089533e+18
14388.0	1.852814108970188e+18
14389.0	1.8524636832595963e+18
14390.0	1.852111831485644e+18
14391.0	1.851762870426009e+18
14392.0	1.851411615920947e+18
14393.0	1.8510617069486077e+18
14394.0	1.8506722154905597e+18
14395.0	1.8503497490104315e+18
14396.0	1.8500097419509755e+18
14397.0	1.8496592927522816e+18
14398.0	1.8493082748059643e+18
14399.0	1.8489571058647035e+18
14400.0	1.8485888073859072e+18
14401.0	1.8482450472632317e+18
14402.0	1.8478884710252541e+18
14403.0	1.8471148417187837e+18
14404.0	1.8444283816181745e+18
14405.0	1.8451945383526372e+18
14406.0	1.8464606745788408e+18
14407.0	1.8455601759649795e+18
14408.0	1.8456918183903224e+18
14409.0	1.845358824207155e+18
14410.0	1.8450174632263675e+18
14411.0	1.844679714380185e+18
14412.0	1.8443298540617725e+18
14413.0	1.8439840957726715e+18
14414.0	1.8436324788797437e+18
14415.0	1.8432836923031552e+18
14416.0	1.8429332011614205e+18
14417.0	1.8425754152861693e+18
14418.0	1.8422214579716093e+18
14419.0	1.841882470966886e+18
14420.0	1.841529800464793e+18
14421.0	1.84118230908928e+18
14422.0	1.8408198826360827e+18
14423.0	1.8404108541100027e+18
14424.0	1.8380309573664755e+18
14425.0	1.839712853137817e+18
14426.0	1.8394303919292413e+18
14427.0	1.8390896886153213e+18
14428.0	1.838720406991667e+18
14429.0	1.838392085263155e+18
14430.0	1.8380333514751992e+18
14431.0	1.837398622417715e+18
14432.0	1.8373320655241213e+18
14433.0	1.836600771844505e+18
14434.0	1.836625461195571e+18
14435.0	1.8362732403228672e+18
14436.0	1.8359549748576253e+18
14437.0	1.8356105570680832e+18
14438.0	1.8352280264769533e+18
14439.0	1.8349056522715133e+18
14440.0	1.8345678413496315e+18
14441.0	1.8342128237150205e+18
14442.0	1.833859483802009e+18
14443.0	1.8334742101360635e+18
14444.0	1.8331674269974525e+18
14445.0	1.832815283299942e+18
14446.0	1.8314348187353093e+18
14447.0	1.8320704940277755e+18
14448.0	1.831706012365619e+18
14449.0	1.8313620978925568e+18
14450.0	1.8310091304337405e+18
14451.0	1.830663700978073e+18
14452.0	1.8303185886117888e+18
14453.0	1.8299676109307904e+18
14454.0	1.8296233542025216e+18
14455.0	1.8292672024281088e+18
14456.0	1.828922897045913e+18
14457.0	1.8285766438289408e+18
14458.0	1.8282269227614203e+18
14459.0	1.82787402408919e+18
14460.0	1.8275177263529981e+18
14461.0	1.8271362141388792e+18
14462.0	1.8267668838612987e+18
14463.0	1.8264618421977088e+18
14464.0	1.8261344683819005e+18
14465.0	1.8257745081794555e+18
14466.0	1.8254500401774587e+18
14467.0	1.825087358710579e+18
14468.0	1.824756780446515e+18
14469.0	1.8243825361223675e+18
14470.0	1.824039386690355e+18
14471.0	1.823717485602406e+18
14472.0	1.8233758813519872e+18
14473.0	1.8230342519357437e+18
14474.0	1.8226916729290747e+18
14475.0	1.8223432185413624e+18
14476.0	1.8219761749983232e+18
14477.0	1.8216525441794045e+18
14478.0	1.8213057054375933e+18
14479.0	1.820959366656819e+18
14480.0	1.8205982974803965e+18
14481.0	1.8202711484792832e+18
14482.0	1.819920362058547e+18
14483.0	1.8195697165664253e+18
14484.0	1.8192155277262843e+18
14485.0	1.818840600569446e+18
14486.0	1.8182596894654461e+18
14487.0	1.8181888963248123e+18
14488.0	1.817838636708659e+18
14489.0	1.8174785070563325e+18
14490.0	1.8171522237595645e+18
14491.0	1.8168147500597245e+18
14492.0	1.816471394267955e+18
14493.0	1.816114274448179e+18
14494.0	1.8157578190061565e+18
14495.0	1.8154263414833152e+18
14496.0	1.8149658320699384e+18
14497.0	1.814692690604851e+18
14498.0	1.814323742847795e+18
14499.0	1.8139788234194944e+18
14500.0	1.8136325349703677e+18
14501.0	1.8132636576776187e+18
14502.0	1.8127344606642176e+18
14503.0	1.812576999781171e+18
14504.0	1.8122449971314685e+18
14505.0	1.8118935312334845e+18
14506.0	1.8115305645539323e+18
14507.0	1.8109854409293821e+18
14508.0	1.810867646418124e+18
14509.0	1.8105286124371965e+18
14510.0	1.8101811546161147e+18
14511.0	1.8098381377241085e+18
14512.0	1.8094810682359805e+18
14513.0	1.8091452638691325e+18
14514.0	1.8087718382731261e+18
14515.0	1.8084307021070333e+18
14516.0	1.8057435306524685e+18
14517.0	1.8076905232138237e+18
14518.0	1.8074195392987133e+18
14519.0	1.8070821847171072e+18
14520.0	1.806738948043571e+18
14521.0	1.8063958103556093e+18
14522.0	1.8060487518322685e+18
14523.0	1.8056672664616955e+18
14524.0	1.805334408173977e+18
14525.0	1.8050140354904061e+18
14526.0	1.804673145949388e+18
14527.0	1.80429977068503e+18
14528.0	1.8038668044271616e+18
14529.0	1.8036327723302907e+18
14530.0	1.8032841048719355e+18
14531.0	1.802954810064896e+18
14532.0	1.8025845536849917e+18
14533.0	1.8022685682434048e+18
14534.0	1.8019282541608952e+18
14535.0	1.80157309559767e+18
14536.0	1.8012363399626747e+18
14537.0	1.800884310350233e+18
14538.0	1.800553901536051e+18
14539.0	1.800210899743539e+18
14540.0	1.7998672318955515e+18
14541.0	1.7994993998233595e+18
14542.0	1.7991758377910264e+18
14543.0	1.7988070443843584e+18
14544.0	1.7984848111075328e+18
14545.0	1.7981164706856955e+18
14546.0	1.795060009218866e+18
14547.0	1.7948219371683822e+18
14548.0	1.7970731425988603e+18
14549.0	1.7966532575363064e+18
14550.0	1.7964170712449021e+18
14551.0	1.796090625209139e+18
14552.0	1.795747925406515e+18
14553.0	1.795371384281497e+18
14554.0	1.7949881960235005e+18
14555.0	1.794644605350707e+18
14556.0	1.7943000097226752e+18
14557.0	1.793953457871257e+18
14558.0	1.7935819733991421e+18
14559.0	1.79150960973578e+18
14560.0	1.7928916043825147e+18
14561.0	1.7925739596742653e+18
14562.0	1.792212407314022e+18
14563.0	1.791892596667187e+18
14564.0	1.7915420770041856e+18
14565.0	1.7912147048660995e+18
14566.0	1.790873464681267e+18
14567.0	1.7905290737352704e+18
14568.0	1.790177275648409e+18
14569.0	1.7898321414717437e+18
14570.0	1.7890146598780925e+18
14571.0	1.7891483575123963e+18
14572.0	1.7887773763567613e+18
14573.0	1.7884187935637496e+18
14574.0	1.7881013468266493e+18
14575.0	1.7877758352818176e+18
14576.0	1.7874312211988477e+18
14577.0	1.787098998767616e+18
14578.0	1.7867620988485627e+18
14579.0	1.7864237544112125e+18
14580.0	1.7860819253460987e+18
14581.0	1.78573477454807e+18
14582.0	1.7853906168053755e+18
14583.0	1.7850543980412925e+18
14584.0	1.7846945284358144e+18
14585.0	1.7843684179443707e+18
14586.0	1.7840263154106363e+18
14587.0	1.7836800403832832e+18
14588.0	1.7833386710138875e+18
14589.0	1.7829986320777216e+18
14590.0	1.782658482411929e+18
14591.0	1.782316111442739e+18
14592.0	1.7819633889312765e+18
14593.0	1.781526260246118e+18
14594.0	1.7812923439120381e+18
14595.0	1.7809466812530685e+18
14596.0	1.780446939997798e+18
14597.0	1.7800729741754363e+18
14598.0	1.77991131898839e+18
14599.0	1.7795957965979648e+18
14600.0	1.7792551754924032e+18
14601.0	1.7789153529823227e+18
14602.0	1.778570852984422e+18
14603.0	1.778232763560755e+18
14604.0	1.777850771518259e+18
14605.0	1.7775314037899261e+18
14606.0	1.777135852401459e+18
14607.0	1.7768695526850555e+18
14608.0	1.7765315991568384e+18
14609.0	1.7761880017731581e+18
14610.0	1.7758384384114688e+18
14611.0	1.7755039997100027e+18
14612.0	1.7751787717001213e+18
14613.0	1.7748424036188155e+18
14614.0	1.7744984740462587e+18
14615.0	1.7741631176310781e+18
14616.0	1.7738260180631547e+18
14617.0	1.7734791742881787e+18
14618.0	1.773094895511142e+18
14619.0	1.772528974849638e+18
14620.0	1.771986300698624e+18
14621.0	1.7720416739000317e+18
14622.0	1.771708968284979e+18
14623.0	1.7713733669224448e+18
14624.0	1.7709826624716795e+18
14625.0	1.7706902691512315e+18
14626.0	1.770353193071411e+18
14627.0	1.7700140718489595e+18
14628.0	1.7696795895267325e+18
14629.0	1.7693396411875325e+18
14630.0	1.768995998505369e+18
14631.0	1.768656830306713e+18
14632.0	1.7681494638067712e+18
14633.0	1.767941953132953e+18
14634.0	1.7676363594989565e+18
14635.0	1.7672730723745787e+18
14636.0	1.766870992971366e+18
14637.0	1.766624045773619e+18
14638.0	1.7662735999303672e+18
14639.0	1.7659241238102016e+18
14640.0	1.765583522837299e+18
14641.0	1.7646041746636797e+18
14642.0	1.7649017823428603e+18
14643.0	1.7645809214423035e+18
14644.0	1.764229797799526e+18
14645.0	1.7638822644809725e+18
14646.0	1.7635481445466112e+18
14647.0	1.76320003744727e+18
14648.0	1.7628726887972861e+18
