# Flux units: erg / (cm m2 s)
# Wavelength units: Angstrom
wave	flux
14000.0	1.7428717357760507e+18
14001.0	1.742388451291955e+18
14002.0	1.7422784078544893e+18
14003.0	1.741973441688371e+18
14004.0	1.741667735647027e+18
14005.0	1.7413618987433981e+18
14006.0	1.7410456549326843e+18
14007.0	1.740738989234585e+18
14008.0	1.7403208339030013e+18
14009.0	1.7401350698565627e+18
14010.0	1.739815190423142e+18
14011.0	1.7386669023952896e+18
14012.0	1.739219023796633e+18
14013.0	1.738917740229427e+18
14014.0	1.7386058081632253e+18
14015.0	1.7383050463674365e+18
14016.0	1.7380030178918397e+18
14017.0	1.7376982194978816e+18
14018.0	1.737393310374297e+18
14019.0	1.737088562311987e+18
14020.0	1.736782862981529e+18
14021.0	1.7364773565890557e+18
14022.0	1.7361734675202048e+18
14023.0	1.735857290818355e+18
14024.0	1.735548937332326e+18
14025.0	1.7352607685148664e+18
14026.0	1.73495425213399e+18
14027.0	1.7346523075444733e+18
14028.0	1.734340395610931e+18
14029.0	1.734039452621209e+18
14030.0	1.7334753506099197e+18
14031.0	1.7334072082694141e+18
14032.0	1.7331301543575547e+18
14033.0	1.7327772305195005e+18
14034.0	1.7325237553070077e+18
14035.0	1.7322206530895864e+18
14036.0	1.7319170861432827e+18
14037.0	1.73161353094103e+18
14038.0	1.731310022714982e+18
14039.0	1.7310014007934976e+18
14040.0	1.73069763084288e+18
14041.0	1.730397603889152e+18
14042.0	1.7300827743977467e+18
14043.0	1.7297395377242107e+18
14044.0	1.7294728370323453e+18
14045.0	1.7291817775005693e+18
14046.0	1.7288789068087293e+18
14047.0	1.728572095148851e+18
14048.0	1.728277051028275e+18
14049.0	1.7279756969967613e+18
14050.0	1.7276729638780925e+18
14051.0	1.727359151085977e+18
14052.0	1.7270628553850877e+18
14053.0	1.7267650715451387e+18
14054.0	1.726462816577126e+18
14055.0	1.7261604458463227e+18
14056.0	1.7258580902150141e+18
14057.0	1.7255558805454843e+18
14058.0	1.725253699397222e+18
14059.0	1.7249515920687104e+18
14060.0	1.7246494864179195e+18
14061.0	1.7243381784641533e+18
14062.0	1.7240454277890043e+18
14063.0	1.72372400317399e+18
14064.0	1.723388185385369e+18
14065.0	1.7231285361573885e+18
14066.0	1.722838582244147e+18
14067.0	1.7225370637959165e+18
14068.0	1.722235513470976e+18
14069.0	1.7219328189399037e+18
14070.0	1.72163252355072e+18
14071.0	1.72132737786839e+18
14072.0	1.721030047013273e+18
14073.0	1.7207288741756925e+18
14074.0	1.7204278204563453e+18
14075.0	1.7201051425832957e+18
14076.0	1.7198255804776443e+18
14077.0	1.7194658752888832e+18
14078.0	1.719219384431411e+18
14079.0	1.7189105041407995e+18
14080.0	1.7186224108208125e+18
14081.0	1.7183217949868027e+18
14082.0	1.7180195685400576e+18
14083.0	1.7177185047543805e+18
14084.0	1.7174185834971139e+18
14085.0	1.7168010192093181e+18
14086.0	1.716811417727795e+18
14087.0	1.7165188180475904e+18
14088.0	1.7162049364688893e+18
14089.0	1.715918936945459e+18
14090.0	1.7156171735498747e+18
14091.0	1.7153190139002875e+18
14092.0	1.7150191345860605e+18
14093.0	1.7147192921817085e+18
14094.0	1.714419463199129e+18
14095.0	1.7141195637522427e+18
14096.0	1.7138072323883005e+18
14097.0	1.7135017293512704e+18
14098.0	1.7132159479316475e+18
14099.0	1.7129212628434944e+18
14100.0	1.7126052958568443e+18
14101.0	1.7123228094824443e+18
14102.0	1.712023240546713e+18
14103.0	1.7117028057874432e+18
14104.0	1.7114215592493053e+18
14105.0	1.7111260168454144e+18
14106.0	1.710827023368192e+18
14107.0	1.7105276977020925e+18
14108.0	1.7102149569740797e+18
14109.0	1.709924273251942e+18
14110.0	1.7096293952258048e+18
14111.0	1.7093216306200576e+18
14112.0	1.7090241823244285e+18
14113.0	1.7087355840102397e+18
14114.0	1.7084206639218685e+18
14115.0	1.7081362649448443e+18
14116.0	1.7078248798158843e+18
14117.0	1.7070750120804347e+18
14118.0	1.7072415511150587e+18
14119.0	1.7069323017256957e+18
14120.0	1.706641636458496e+18
14121.0	1.7063359723601915e+18
14122.0	1.7060424599994363e+18
14123.0	1.7057482077634552e+18
14124.0	1.7054463269273597e+18
14125.0	1.7045531079475195e+18
14126.0	1.7048569282297853e+18
14127.0	1.704562258241126e+18
14128.0	1.7042633469722621e+18
14129.0	1.7039527990263803e+18
14130.0	1.7036436939210747e+18
14131.0	1.7033723895611387e+18
14132.0	1.7030641971363837e+18
14133.0	1.702070046425086e+18
14134.0	1.702476207724953e+18
14135.0	1.7021673911877624e+18
14136.0	1.7018827086757885e+18
14137.0	1.7015889547231227e+18
14138.0	1.701288776774451e+18
14139.0	1.700995737531187e+18
14140.0	1.700696368244326e+18
14141.0	1.7003980995428347e+18
14142.0	1.7000749602963453e+18
14143.0	1.6998070667444224e+18
14144.0	1.699513267493273e+18
14145.0	1.6992145072193533e+18
14146.0	1.698918416200499e+18
14147.0	1.698623259672576e+18
14148.0	1.6983275629182976e+18
14149.0	1.6980320121257981e+18
14150.0	1.6977358221213693e+18
14151.0	1.6974364729671677e+18
14152.0	1.6971413583822843e+18
14153.0	1.696847679927091e+18
14154.0	1.6965200460644347e+18
14155.0	1.6962412590661635e+18
14156.0	1.6959584572801021e+18
14157.0	1.6956645405884408e+18
14158.0	1.6953637217501181e+18
14159.0	1.6950732259327997e+18
14160.0	1.6947684661264381e+18
14161.0	1.6944042663215104e+18
14162.0	1.694049112791449e+18
14163.0	1.6938878820679683e+18
14164.0	1.6935699370475515e+18
14165.0	1.6932600098586621e+18
14166.0	1.6930044173615104e+18
14167.0	1.692693087597363e+18
14168.0	1.6924121464045565e+18
14169.0	1.6921213469196288e+18
14170.0	1.6918226906644475e+18
14171.0	1.691527574401843e+18
14172.0	1.6912368101490685e+18
14173.0	1.690906345970073e+18
14174.0	1.6906413582319613e+18
14175.0	1.6903531508269053e+18
14176.0	1.6900587878612987e+18
14177.0	1.689764423217971e+18
14178.0	1.6894694780829693e+18
14179.0	1.6891686944767997e+18
14180.0	1.688881587657113e+18
14181.0	1.6885874411175933e+18
14182.0	1.6882922560684032e+18
14183.0	1.6879992470241275e+18
14184.0	1.6876985909247997e+18
14185.0	1.68741068383191e+18
14186.0	1.6870104247566333e+18
14187.0	1.686790103000678e+18
14188.0	1.6865246555668477e+18
14189.0	1.686235357642752e+18
14190.0	1.6859417630736381e+18
14191.0	1.6856481466941435e+18
14192.0	1.6853447777189885e+18
14193.0	1.6850489601687547e+18
14194.0	1.684767225413632e+18
14195.0	1.6844758185934848e+18
14196.0	1.6841822424793085e+18
14197.0	1.6838890841178107e+18
14198.0	1.683588995088384e+18
14199.0	1.6833007155412987e+18
14200.0	1.682957871454617e+18
14201.0	1.6827144172732413e+18
14202.0	1.6824221783031805e+18
14203.0	1.6821233207214077e+18
14204.0	1.6818349203783677e+18
14205.0	1.6815418207371261e+18
14206.0	1.6810888812036096e+18
14207.0	1.680959049039872e+18
14208.0	1.6806678771007488e+18
14209.0	1.680198782785945e+18
14210.0	1.679960846630911e+18
14211.0	1.679781879034675e+18
14212.0	1.679498211544268e+18
14213.0	1.6792074556801021e+18
14214.0	1.678914077537075e+18
14215.0	1.6786054858145787e+18
14216.0	1.6783317688909821e+18
14217.0	1.678039917474611e+18
14218.0	1.6777330319949821e+18
14219.0	1.6774561324335104e+18
14220.0	1.6771646232723453e+18
14221.0	1.6768723457146875e+18
14222.0	1.67657121817559e+18
14223.0	1.6762894767095805e+18
14224.0	1.6759979558043643e+18
14225.0	1.6755411558334461e+18
14226.0	1.6754133100920832e+18
14227.0	1.6751236883677181e+18
14228.0	1.6743716882481152e+18
14229.0	1.6744647346880504e+18
14230.0	1.6742505835921405e+18
14231.0	1.6739580023668733e+18
14232.0	1.673644605649715e+18
14233.0	1.6733403692924925e+18
14234.0	1.673052708824678e+18
14235.0	1.6727583475367933e+18
14236.0	1.6724707726327805e+18
14237.0	1.672177949815603e+18
14238.0	1.671887662035763e+18
14239.0	1.6715856805363712e+18
14240.0	1.6690380485427203e+18
14241.0	1.6710054136774653e+18
14242.0	1.6707222998351872e+18
14243.0	1.6702324269383683e+18
14244.0	1.6701451518607357e+18
14245.0	1.6698422895575037e+18
14246.0	1.6695505807474685e+18
14247.0	1.6692694449389565e+18
14248.0	1.6689614102200315e+18
14249.0	1.6686894481932285e+18
14250.0	1.6683800830410747e+18
14251.0	1.668081220426137e+18
14252.0	1.6677910786080765e+18
14253.0	1.667500017398579e+18
14254.0	1.6672077029310461e+18
14255.0	1.6668737138589693e+18
14256.0	1.666460694033203e+18
14257.0	1.6663218189500416e+18
14258.0	1.6660517896585213e+18
14259.0	1.6657375322701821e+18
14260.0	1.6654606092206077e+18
14261.0	1.66515797173207e+18
14262.0	1.664917671667302e+18
14263.0	1.6643752172978176e+18
14264.0	1.66427427382231e+18
14265.0	1.6640444528066557e+18
14266.0	1.6637609430220797e+18
14267.0	1.6634732406112256e+18
14268.0	1.66318425809879e+18
14269.0	1.6628834677817341e+18
14270.0	1.662580617222553e+18
14271.0	1.6622825129377787e+18
14272.0	1.661993517003571e+18
14273.0	1.6617007243853821e+18
14274.0	1.6610241143635965e+18
14275.0	1.6610856498364416e+18
14276.0	1.660822054607257e+18
14277.0	1.660512885748531e+18
14278.0	1.6602293793193981e+18
14279.0	1.659939655254016e+18
14280.0	1.6596430693072896e+18
14281.0	1.6593642755981307e+18
14282.0	1.6590763500503035e+18
14283.0	1.6587880151384061e+18
14284.0	1.6584996936482808e+18
14285.0	1.658211273172582e+18
14286.0	1.6579224701763581e+18
14287.0	1.657634291292569e+18
14288.0	1.6573415842381821e+18
14289.0	1.655599443161904e+18
14290.0	1.656765446252134e+18
14291.0	1.6564810153983997e+18
14292.0	1.6561920312082432e+18
14293.0	1.6558744502534144e+18
14294.0	1.6554032352985085e+18
14295.0	1.6552766579146747e+18
14296.0	1.6538365453139976e+18
14297.0	1.654710785907097e+18
14298.0	1.6542163781287933e+18
14299.0	1.6541269069135872e+18
14300.0	1.6538489319325693e+18
14301.0	1.653567544465817e+18
14302.0	1.6532817244585984e+18
14303.0	1.6529521746378747e+18
14304.0	1.6526864185032696e+18
14305.0	1.652421259637555e+18
14306.0	1.6521266802458621e+18
14307.0	1.6518425245384704e+18
14308.0	1.651560628722073e+18
14309.0	1.6512708224483323e+18
14310.0	1.6509412961157115e+18
14311.0	1.65065163580375e+18
14312.0	1.6503737950404605e+18
14313.0	1.6499324150087677e+18
14314.0	1.6498379978702848e+18
14315.0	1.649552387578265e+18
14316.0	1.6491985544151037e+18
14317.0	1.6489746943442944e+18
14318.0	1.6486746455801853e+18
14319.0	1.6483761621303293e+18
14320.0	1.648089028467097e+18
14321.0	1.6477993228566525e+18
14322.0	1.6474639446310907e+18
14323.0	1.647205360756326e+18
14324.0	1.6469443978723325e+18
14325.0	1.6466463288197115e+18
14326.0	1.6463722662854653e+18
14327.0	1.6460776214626304e+18
14328.0	1.6457910146039805e+18
14329.0	1.6455141133647872e+18
14330.0	1.645228192694272e+18
14331.0	1.6449418995695608e+18
14332.0	1.6446563245096957e+18
14333.0	1.644370586710835e+18
14334.0	1.6440848287793147e+18
14335.0	1.6437819194998781e+18
14336.0	1.6434949854855165e+18
14337.0	1.6432240485466112e+18
14338.0	1.642938374501171e+18
14339.0	1.642642281804595e+18
14340.0	1.6423712223920123e+18
14341.0	1.6420850047647741e+18
14342.0	1.6417974416048123e+18
14343.0	1.6415126550740992e+18
14344.0	1.6412246708060157e+18
14345.0	1.640945011392512e+18
14346.0	1.6406299973517312e+18
14347.0	1.6403267894378493e+18
14348.0	1.6400565302984704e+18
14349.0	1.6397721564872704e+18
14350.0	1.6394738273878016e+18
14351.0	1.6391809206845437e+18
14352.0	1.638903646991155e+18
14353.0	1.6386294301065213e+18
14354.0	1.6383446603530235e+18
14355.0	1.6380579612196861e+18
14356.0	1.6377745202216957e+18
14357.0	1.63749376861143e+18
14358.0	1.637209146497433e+18
14359.0	1.6369055778734075e+18
14360.0	1.6366384023863293e+18
14361.0	1.6363550821842941e+18
14362.0	1.636071147936153e+18
14363.0	1.6357862657753085e+18
14364.0	1.6354603465441283e+18
14365.0	1.6352089517064187e+18
14366.0	1.6349237155463163e+18
14367.0	1.6346498191065085e+18
14368.0	1.634365044319846e+18
14369.0	1.634081677141606e+18
14370.0	1.6337976875286528e+18
14371.0	1.6335137516027904e+18
14372.0	1.6332226920710144e+18
14373.0	1.6329455223963643e+18
14374.0	1.6326613381677056e+18
14375.0	1.6323742649024507e+18
14376.0	1.632094583678566e+18
14377.0	1.6318099766640635e+18
14378.0	1.6315001149063165e+18
14379.0	1.631211409217945e+18
14380.0	1.6309267032178688e+18
14381.0	1.6306283992842235e+18
14382.0	1.6303583884476413e+18
14383.0	1.6300734257561597e+18
14384.0	1.6297699510845432e+18
14385.0	1.6295101441507325e+18
14386.0	1.6292036797792253e+18
14387.0	1.6289429333213181e+18
14388.0	1.628657396849049e+18
14389.0	1.628376203998003e+18
14390.0	1.6280904058011643e+18
14391.0	1.627810383999795e+18
14392.0	1.6275259514683387e+18
14393.0	1.6272443777744893e+18
14394.0	1.6269108148436992e+18
14395.0	1.6266646662414333e+18
14396.0	1.626395348303872e+18
14397.0	1.6261124223664128e+18
14398.0	1.62582910551982e+18
14399.0	1.6255462987005955e+18
14400.0	1.625235911815987e+18
14401.0	1.6249708435472381e+18
14402.0	1.6246888839774203e+18
14403.0	1.6237223317864435e+18
14404.0	1.6193857653833695e+18
14405.0	1.6214776023613379e+18
14406.0	1.6235555125723133e+18
14407.0	1.6222965234401277e+18
14408.0	1.6229880534401021e+18
14409.0	1.6226910665179133e+18
14410.0	1.6224347224014848e+18
14411.0	1.6221553951768579e+18
14412.0	1.6218695667810301e+18
14413.0	1.621593200735027e+18
14414.0	1.6213077582151677e+18
14415.0	1.6209973260320763e+18
14416.0	1.6207151064154107e+18
14417.0	1.6204304541024253e+18
14418.0	1.62014278189056e+18
14419.0	1.6198662111625213e+18
14420.0	1.6195787352440832e+18
14421.0	1.619302800372531e+18
14422.0	1.6190139738882043e+18
14423.0	1.618711383375872e+18
14424.0	1.614492608128612e+18
14425.0	1.6181487359492093e+18
14426.0	1.6178924354535421e+18
14427.0	1.6176116167344125e+18
14428.0	1.6173017902088192e+18
14429.0	1.617045947731148e+18
14430.0	1.6167692444631037e+18
14431.0	1.6164136513699835e+18
14432.0	1.616199971713843e+18
14433.0	1.6151655909163003e+18
14434.0	1.6156195488268285e+18
14435.0	1.615340223279923e+18
14436.0	1.6150808995299325e+18
14437.0	1.614800238516633e+18
14438.0	1.6144965172199421e+18
14439.0	1.614231573102592e+18
14440.0	1.6139557858705403e+18
14441.0	1.6136613843173376e+18
14442.0	1.6133696469860347e+18
14443.0	1.6130309401608192e+18
14444.0	1.6128237650313213e+18
14445.0	1.6125470483415037e+18
14446.0	1.6104701044981773e+18
14447.0	1.6119636844085248e+18
14448.0	1.6117080029921277e+18
14449.0	1.6114284878626813e+18
14450.0	1.6111402435477504e+18
14451.0	1.610862181325209e+18
14452.0	1.610585224721203e+18
14453.0	1.6102946567618557e+18
14454.0	1.610024754977177e+18
14455.0	1.609732168718745e+18
14456.0	1.609430898573312e+18
14457.0	1.6091488567951357e+18
14458.0	1.6088703231328253e+18
14459.0	1.6085872730439675e+18
14460.0	1.6083062043443197e+18
14461.0	1.6079991846469632e+18
14462.0	1.607709071350169e+18
14463.0	1.607459132774809e+18
14464.0	1.6071868452700157e+18
14465.0	1.6068706769567741e+18
14466.0	1.6066241777106944e+18
14467.0	1.606314034095718e+18
14468.0	1.6060616728903675e+18
14469.0	1.605755933294592e+18
14470.0	1.605462776610816e+18
14471.0	1.605211985752883e+18
14472.0	1.6049393157275643e+18
14473.0	1.6046648085970941e+18
14474.0	1.604388065063731e+18
14475.0	1.6041058588688384e+18
14476.0	1.6037813287911421e+18
14477.0	1.6035486875254784e+18
14478.0	1.6032653656457216e+18
14479.0	1.6029857146208253e+18
14480.0	1.602684063632588e+18
14481.0	1.6024300381274112e+18
14482.0	1.6021447617019901e+18
14483.0	1.601855339626496e+18
14484.0	1.6015745779499005e+18
14485.0	1.6012522406543357e+18
14486.0	1.6005984963002368e+18
14487.0	1.600749674115891e+18
14488.0	1.600469799954022e+18
14489.0	1.6001861156864e+18
14490.0	1.5999091842482176e+18
14491.0	1.5995938430517243e+18
14492.0	1.5993101487177725e+18
14493.0	1.5990215688585213e+18
14494.0	1.5987218757713915e+18
14495.0	1.5984692931067901e+18
14496.0	1.5979987676954621e+18
14497.0	1.597910734287667e+18
14498.0	1.5976339404226557e+18
14499.0	1.5973548766003197e+18
14500.0	1.5970749890166781e+18
14501.0	1.596765645674905e+18
14502.0	1.5961862294208512e+18
14503.0	1.596213180340633e+18
14504.0	1.595947680897433e+18
14505.0	1.5956445333815293e+18
14506.0	1.5953263786459133e+18
14507.0	1.5947346210717693e+18
14508.0	1.5948106436706304e+18
14509.0	1.5945331736838141e+18
14510.0	1.5942489944883197e+18
14511.0	1.593974571243929e+18
14512.0	1.5936740409737213e+18
14513.0	1.5934155980275712e+18
14514.0	1.5930908280356864e+18
14515.0	1.5928494290632701e+18
14516.0	1.5887980283559967e+18
14517.0	1.5922763210424315e+18
14518.0	1.592019893039923e+18
14519.0	1.5917431679614976e+18
14520.0	1.5914632619229184e+18
14521.0	1.5911858674335741e+18
14522.0	1.5909072968613888e+18
14523.0	1.590580020353433e+18
14524.0	1.590301691373158e+18
14525.0	1.5900633575981053e+18
14526.0	1.5897891608461312e+18
14527.0	1.5894835370131453e+18
14528.0	1.5890291328286723e+18
14529.0	1.5889406044930043e+18
14530.0	1.5886517981413376e+18
14531.0	1.5883962173882365e+18
14532.0	1.5880575239847933e+18
14533.0	1.5878412958695421e+18
14534.0	1.5875649264680957e+18
14535.0	1.5872712815673341e+18
14536.0	1.587002344472576e+18
14537.0	1.586708961296384e+18
14538.0	1.586450775041638e+18
14539.0	1.5861725400137723e+18
14540.0	1.5858939862188024e+18
14541.0	1.5855842670673915e+18
14542.0	1.5853336792137725e+18
14543.0	1.5850127746924541e+18
14544.0	1.5847765884010493e+18
14545.0	1.5844848477143035e+18
14546.0	1.5786636184911834e+18
14547.0	1.5787479978213327e+18
14548.0	1.5836351958089725e+18
14549.0	1.5832085914714107e+18
14550.0	1.583094789937561e+18
14551.0	1.582830886007603e+18
14552.0	1.5825513993994235e+18
14553.0	1.5822607056109565e+18
14554.0	1.5819708674605053e+18
14555.0	1.581657963993497e+18
14556.0	1.581378428731392e+18
14557.0	1.581100096395673e+18
14558.0	1.5808131556704253e+18
14559.0	1.5777511979876293e+18
14560.0	1.5802547042254848e+18
14561.0	1.5799712565166075e+18
14562.0	1.5796457516826621e+18
14563.0	1.5793992759246843e+18
14564.0	1.5791185343807485e+18
14565.0	1.5788459885068285e+18
14566.0	1.578567802132889e+18
14567.0	1.5782890168123387e+18
14568.0	1.5780022673473533e+18
14569.0	1.577729020185804e+18
14570.0	1.5766795835146235e+18
14571.0	1.5771691393220603e+18
14572.0	1.576843005342515e+18
14573.0	1.5765498520141824e+18
14574.0	1.576329283633152e+18
14575.0	1.5760608095895555e+18
14576.0	1.5757820846669821e+18
14577.0	1.5754969122603003e+18
14578.0	1.5752250206978043e+18
14579.0	1.5749501813784579e+18
14580.0	1.5746720772128765e+18
14581.0	1.5743896747245565e+18
14582.0	1.5741150870634493e+18
14583.0	1.5738369812201467e+18
14584.0	1.5735437574275067e+18
14585.0	1.5732801018003453e+18
14586.0	1.5729970399674365e+18
14587.0	1.5727222593683456e+18
14588.0	1.572445059494707e+18
14589.0	1.572169649750016e+18
14590.0	1.5718939917025277e+18
14591.0	1.5716173505101821e+18
14592.0	1.571330218524672e+18
14593.0	1.5708952842993656e+18
14594.0	1.570789173441331e+18
14595.0	1.5705028484399104e+18
14596.0	1.5701960300691456e+18
14597.0	1.569913667846144e+18
14598.0	1.569681175897702e+18
14599.0	1.569412008955084e+18
14600.0	1.569135896245043e+18
14601.0	1.5688604143583224e+18
14602.0	1.568579860719206e+18
14603.0	1.5683083416109048e+18
14604.0	1.567972285585817e+18
14605.0	1.5677484523585539e+18
14606.0	1.5673661902028797e+18
14607.0	1.567194104620646e+18
14608.0	1.5669246222663677e+18
14609.0	1.566649734293094e+18
14610.0	1.5663666892374013e+18
14611.0	1.566095057721753e+18
14612.0	1.5658256139550715e+18
14613.0	1.565550519622041e+18
14614.0	1.5652687412461565e+18
14615.0	1.5649978445725693e+18
14616.0	1.564722230145843e+18
14617.0	1.5644455252000765e+18
14618.0	1.5641664177569787e+18
14619.0	1.5638625622425595e+18
14620.0	1.563512571061862e+18
14621.0	1.5633403512619003e+18
14622.0	1.563059950295449e+18
14623.0	1.5627875151511547e+18
14624.0	1.5624270164000763e+18
14625.0	1.5622294428712957e+18
14626.0	1.5619489613742077e+18
14627.0	1.561647454670028e+18
14628.0	1.5613762711060477e+18
14629.0	1.561099525894963e+18
14630.0	1.5608216213782525e+18
14631.0	1.5605447620820995e+18
14632.0	1.5599284997062653e+18
14633.0	1.5599485149249528e+18
14634.0	1.559711863904665e+18
14635.0	1.5594193229447163e+18
14636.0	1.559106231572889e+18
14637.0	1.5588832875380733e+18
14638.0	1.558601556138393e+18
14639.0	1.5583123387449341e+18
14640.0	1.5580404270497787e+18
14641.0	1.556489267734117e+18
14642.0	1.5574832506732544e+18
14643.0	1.5572176237232125e+18
14644.0	1.556925445151129e+18
14645.0	1.5566296376672253e+18
14646.0	1.556376888908185e+18
14647.0	1.5560957564551165e+18
14648.0	1.5558283997741053e+18
