# Flux units: erg / (cm m2 s)
# Wavelength units: Angstrom
wave	flux
14000.0	1.6461949093019643e+18
14001.0	1.6457653840510976e+18
14002.0	1.6457243721465853e+18
14003.0	1.645445657290342e+18
14004.0	1.645165699242393e+18
14005.0	1.6448850013192187e+18
14006.0	1.6445945826770941e+18
14007.0	1.6443118144454653e+18
14008.0	1.643936003129344e+18
14009.0	1.6437459256606715e+18
14010.0	1.6434549785362435e+18
14011.0	1.6423868805677053e+18
14012.0	1.642899800326144e+18
14013.0	1.6426414110670848e+18
14014.0	1.6423572352270333e+18
14015.0	1.6420826576322557e+18
14016.0	1.6418052279107581e+18
14017.0	1.6415261909319677e+18
14018.0	1.6412389700272125e+18
14019.0	1.640967202616115e+18
14020.0	1.640686897279795e+18
14021.0	1.6404067731374077e+18
14022.0	1.6401278351441915e+18
14023.0	1.639836752124313e+18
14024.0	1.6395569299718141e+18
14025.0	1.6392905312698363e+18
14026.0	1.639010054805913e+18
14027.0	1.6387322140426237e+18
14028.0	1.6384455870513147e+18
14029.0	1.6381658705952765e+18
14030.0	1.6375766262480893e+18
14031.0	1.637555840955187e+18
14032.0	1.637334272652083e+18
14033.0	1.6370126131560443e+18
14034.0	1.6367804332638203e+18
14035.0	1.6365028877795323e+18
14036.0	1.636222194889523e+18
14037.0	1.635943483388723e+18
14038.0	1.6356682179280893e+18
14039.0	1.635385181261005e+18
14040.0	1.6351092296122365e+18
14041.0	1.6348322193211387e+18
14042.0	1.6345430656811003e+18
14043.0	1.634229573333811e+18
14044.0	1.6339784586756093e+18
14045.0	1.6337118318034941e+18
14046.0	1.6334388497219581e+18
14047.0	1.633157584728883e+18
14048.0	1.6328875973804032e+18
14049.0	1.6326107129184253e+18
14050.0	1.6323330248278013e+18
14051.0	1.6320443292057597e+18
14052.0	1.631772729566822e+18
14053.0	1.6315006920425467e+18
14054.0	1.6312235324342267e+18
14055.0	1.630946267129446e+18
14056.0	1.6306690320236541e+18
14057.0	1.630391909325209e+18
14058.0	1.630114788304486e+18
14059.0	1.6298307450044416e+18
14060.0	1.6295605898838013e+18
14061.0	1.6292749644922883e+18
14062.0	1.6290057556066304e+18
14063.0	1.6287121845256187e+18
14064.0	1.6283755312316413e+18
14065.0	1.6281653345255421e+18
14066.0	1.627897541636915e+18
14067.0	1.6276236300976125e+18
14068.0	1.6273470895685624e+18
14069.0	1.6270697957425147e+18
14070.0	1.6267941544722432e+18
14071.0	1.6265143742627835e+18
14072.0	1.6262418032230397e+18
14073.0	1.6259656720580603e+18
14074.0	1.62568953921536e+18
14075.0	1.6253930673537021e+18
14076.0	1.6251360185942013e+18
14077.0	1.6247891681083387e+18
14078.0	1.6245765739380739e+18
14079.0	1.6242983875641344e+18
14080.0	1.624033572631347e+18
14081.0	1.6237581175881723e+18
14082.0	1.6234818119401472e+18
14083.0	1.6232038201819133e+18
14084.0	1.6229226910842877e+18
14085.0	1.6223741532962813e+18
14086.0	1.6223553611366397e+18
14087.0	1.6220979483115515e+18
14088.0	1.6218161850351613e+18
14089.0	1.6215549453271037e+18
14090.0	1.6212795641036797e+18
14091.0	1.6210052029349885e+18
14092.0	1.6207303770374141e+18
14093.0	1.6204554437656576e+18
14094.0	1.6201804131860477e+18
14095.0	1.619904808825651e+18
14096.0	1.619620062560256e+18
14097.0	1.619332980906393e+18
14098.0	1.6190767408087037e+18
14099.0	1.6188058609123325e+18
14100.0	1.6185169069211643e+18
14101.0	1.6182580596441088e+18
14102.0	1.6179812355801085e+18
14103.0	1.6176885385920507e+18
14104.0	1.6174317196804093e+18
14105.0	1.6171611434516475e+18
14106.0	1.6168869768986621e+18
14107.0	1.6166068158463995e+18
14108.0	1.6163254132801533e+18
14109.0	1.6160597913632765e+18
14110.0	1.6157892621107197e+18
14111.0	1.6155095238443003e+18
14112.0	1.6152327786332157e+18
14113.0	1.6149667372859392e+18
14114.0	1.6146785147813888e+18
14115.0	1.6144154346127352e+18
14116.0	1.614109590998221e+18
14117.0	1.613279113773056e+18
14118.0	1.6135843483746301e+18
14119.0	1.613310767346483e+18
14120.0	1.6130462292377595e+18
14121.0	1.6127662611234813e+18
14122.0	1.6124989883285504e+18
14123.0	1.6122255381626877e+18
14124.0	1.6119317322006525e+18
14125.0	1.611159825914265e+18
14126.0	1.6113971396345853e+18
14127.0	1.6111392352370685e+18
14128.0	1.6108672178454525e+18
14129.0	1.6105827165274107e+18
14130.0	1.6102982135316475e+18
14131.0	1.6100479259901947e+18
14132.0	1.609747910780518e+18
14133.0	1.608887897266585e+18
14134.0	1.6092028811083776e+18
14135.0	1.6089443760865277e+18
14136.0	1.6086865236983803e+18
14137.0	1.608415148874137e+18
14138.0	1.6081416836087803e+18
14139.0	1.607872535121101e+18
14140.0	1.6075995681390587e+18
14141.0	1.607318283013325e+18
14142.0	1.6070312164589563e+18
14143.0	1.6067830747234301e+18
14144.0	1.606514073875251e+18
14145.0	1.606239917388595e+18
14146.0	1.605969686770483e+18
14147.0	1.6056989092151293e+18
14148.0	1.6054279454326781e+18
14149.0	1.605157018560102e+18
14150.0	1.6048853602009085e+18
14151.0	1.604611411751731e+18
14152.0	1.6043406090305533e+18
14153.0	1.6040714940973053e+18
14154.0	1.6037703766245376e+18
14155.0	1.6035162185793533e+18
14156.0	1.6032567052468221e+18
14157.0	1.6029862363922424e+18
14158.0	1.602711314864537e+18
14159.0	1.602443506876416e+18
14160.0	1.6021537006026747e+18
14161.0	1.6018364770025472e+18
14162.0	1.6015125995585533e+18
14163.0	1.601346523575091e+18
14164.0	1.6010647904976893e+18
14165.0	1.600802143181209e+18
14166.0	1.600547669724364e+18
14167.0	1.600262336256409e+18
14168.0	1.6000056180080635e+18
14169.0	1.5997389458374653e+18
14170.0	1.599465108117913e+18
14171.0	1.5991944882683904e+18
14172.0	1.5989277305339901e+18
14173.0	1.5986385735385085e+18
14174.0	1.5983791709356032e+18
14175.0	1.5981179765260285e+18
14176.0	1.597848438806937e+18
14177.0	1.597578691372646e+18
14178.0	1.5973084959866877e+18
14179.0	1.5970346431676408e+18
14180.0	1.5967693886717947e+18
14181.0	1.5964997385453568e+18
14182.0	1.5962291975487485e+18
14183.0	1.5959601866342397e+18
14184.0	1.5956846779039741e+18
14185.0	1.5954168648826875e+18
14186.0	1.595033482008985e+18
14187.0	1.5948420472635392e+18
14188.0	1.5946076745891837e+18
14189.0	1.594343394849587e+18
14190.0	1.594074229584691e+18
14191.0	1.5938044687286267e+18
14192.0	1.5935248462249981e+18
14193.0	1.5932532801404925e+18
14194.0	1.5929976557666301e+18
14195.0	1.5927308393119741e+18
14196.0	1.592462046501273e+18
14197.0	1.5921932419465213e+18
14198.0	1.5919185703993344e+18
14199.0	1.5916497859772416e+18
14200.0	1.5913260276514816e+18
14201.0	1.5911074238824448e+18
14202.0	1.5908475028635643e+18
14203.0	1.5905764384178176e+18
14204.0	1.5903098014793728e+18
14205.0	1.590038240428032e+18
14206.0	1.5896349966860285e+18
14207.0	1.589499443491635e+18
14208.0	1.5892363062804477e+18
14209.0	1.5888200450965501e+18
14210.0	1.5885836222463995e+18
14211.0	1.5884252906258432e+18
14212.0	1.588168000274432e+18
14213.0	1.5879020746899453e+18
14214.0	1.5876329413017597e+18
14215.0	1.5873504297615357e+18
14216.0	1.5870978991063037e+18
14217.0	1.5868324718051328e+18
14218.0	1.5865509417320448e+18
14219.0	1.5862974665195515e+18
14220.0	1.586030175269683e+18
14221.0	1.5857623236607997e+18
14222.0	1.5854861337755643e+18
14223.0	1.5852272965648381e+18
14224.0	1.584957649793843e+18
14225.0	1.5844776150564864e+18
14226.0	1.5844109809876992e+18
14227.0	1.5841512227078144e+18
14228.0	1.5832561414569981e+18
14229.0	1.5834728041021432e+18
14230.0	1.583355962536755e+18
14231.0	1.58309185224704e+18
14232.0	1.5828258025111547e+18
14233.0	1.5825578754047997e+18
14234.0	1.5822925101793283e+18
14235.0	1.5820228281761792e+18
14236.0	1.581758644066713e+18
14237.0	1.581489076148633e+18
14238.0	1.5812191122882557e+18
14239.0	1.580919702736076e+18
14240.0	1.57851050794025e+18
14241.0	1.5803593906978813e+18
14242.0	1.5801365708144637e+18
14243.0	1.57972093206528e+18
14244.0	1.5796240235102205e+18
14245.0	1.5793544891465725e+18
14246.0	1.579091445887795e+18
14247.0	1.578826508481331e+18
14248.0	1.578543762060083e+18
14249.0	1.5782960934420477e+18
14250.0	1.5780337632149504e+18
14251.0	1.5777691814854653e+18
14252.0	1.5774928557047805e+18
14253.0	1.577225559421747e+18
14254.0	1.5769568370753539e+18
14255.0	1.5766448513220605e+18
14256.0	1.576224483075686e+18
14257.0	1.5761009926995963e+18
14258.0	1.5758957704380416e+18
14259.0	1.575609938686771e+18
14260.0	1.5753531952726016e+18
14261.0	1.5750780640296952e+18
14262.0	1.5748492412583933e+18
14263.0	1.5742903150182403e+18
14264.0	1.5741888313163776e+18
14265.0	1.5740524090621947e+18
14266.0	1.5738001904631803e+18
14267.0	1.5735373367869437e+18
14268.0	1.573271194776371e+18
14269.0	1.5729973386018816e+18
14270.0	1.5727310791507965e+18
14271.0	1.572463519465472e+18
14272.0	1.572197364033126e+18
14273.0	1.5719109199134715e+18
14274.0	1.571162867472793e+18
14275.0	1.5713105237508093e+18
14276.0	1.5711235047686144e+18
14277.0	1.5708712945582077e+18
14278.0	1.570615398393446e+18
14279.0	1.5703502814707707e+18
14280.0	1.5700819450003453e+18
14281.0	1.5698255237087232e+18
14282.0	1.569562154971955e+18
14283.0	1.5692982527197181e+18
14284.0	1.5690341994725376e+18
14285.0	1.5687697922260992e+18
14286.0	1.5685046585262075e+18
14287.0	1.5682377296642043e+18
14288.0	1.567947916679577e+18
14289.0	1.5663105677721582e+18
14290.0	1.5674105441288187e+18
14291.0	1.5671694790230013e+18
14292.0	1.5669066840670203e+18
14293.0	1.5666402618769403e+18
14294.0	1.5662286060388347e+18
14295.0	1.5660757790228477e+18
14296.0	1.564754038069658e+18
14297.0	1.5655278301151232e+18
14298.0	1.5651111964770296e+18
14299.0	1.5650408177336315e+18
14300.0	1.5647957076410363e+18
14301.0	1.564539131999027e+18
14302.0	1.5642763353653248e+18
14303.0	1.563974431041126e+18
14304.0	1.56373379710976e+18
14305.0	1.5634906851835901e+18
14306.0	1.5632257309999101e+18
14307.0	1.562961441193984e+18
14308.0	1.5627016493596672e+18
14309.0	1.5624351768379387e+18
14310.0	1.5621552104013827e+18
14311.0	1.561879691604787e+18
14312.0	1.56160812384256e+18
14313.0	1.5611584474775555e+18
14314.0	1.5611130986627067e+18
14315.0	1.560848015294464e+18
14316.0	1.560535791304704e+18
14317.0	1.5603253261631485e+18
14318.0	1.5600698343292925e+18
14319.0	1.5598094569701373e+18
14320.0	1.559547331425075e+18
14321.0	1.5592815232811003e+18
14322.0	1.5589811322617853e+18
14323.0	1.5587350205693947e+18
14324.0	1.5585006613168125e+18
14325.0	1.5582289794695163e+18
14326.0	1.5579787204493312e+18
14327.0	1.557708905906176e+18
14328.0	1.5574454767714301e+18
14329.0	1.5571945131081728e+18
14330.0	1.5569333002436605e+18
14331.0	1.5566716880814077e+18
14332.0	1.556410701709312e+18
14333.0	1.5561494938779643e+18
14334.0	1.555888136729395e+18
14335.0	1.555611027452723e+18
14336.0	1.5553440046383104e+18
14337.0	1.5551011024273403e+18
14338.0	1.5548293333385216e+18
14339.0	1.5545574031884288e+18
14340.0	1.5543092849410048e+18
14341.0	1.554046162829312e+18
14342.0	1.553784980163788e+18
14343.0	1.5535261345644541e+18
14344.0	1.5532585883009021e+18
14345.0	1.5530036836696064e+18
14346.0	1.5527415799349243e+18
14347.0	1.5524718777991165e+18
14348.0	1.5522223771090941e+18
14349.0	1.5519631808659453e+18
14350.0	1.5516852595720192e+18
14351.0	1.5514184733163515e+18
14352.0	1.551168526352384e+18
14353.0	1.550919564210995e+18
14354.0	1.5506593764343805e+18
14355.0	1.550396333175603e+18
14356.0	1.5501358098546688e+18
14357.0	1.5498811635924992e+18
14358.0	1.5496231417544696e+18
14359.0	1.5493457657200635e+18
14360.0	1.5491016740044797e+18
14361.0	1.5488426555998205e+18
14362.0	1.5485834610343933e+18
14363.0	1.548322325345075e+18
14364.0	1.5480140674891773e+18
14365.0	1.5477819094073341e+18
14366.0	1.5475192889343995e+18
14367.0	1.5472731772420093e+18
14368.0	1.5470135716347901e+18
14369.0	1.5467548266987515e+18
14370.0	1.546495571735347e+18
14371.0	1.546236350326374e+18
14372.0	1.545970300590489e+18
14373.0	1.54571640930304e+18
14374.0	1.5454571912495096e+18
14375.0	1.545191545844531e+18
14376.0	1.5449404630630397e+18
14377.0	1.5446805990866941e+18
14378.0	1.5444192150945787e+18
14379.0	1.544163293763993e+18
14380.0	1.5439033459015677e+18
14381.0	1.543631445950464e+18
14382.0	1.5433847738990587e+18
14383.0	1.5431266614640637e+18
14384.0	1.5428477670916096e+18
14385.0	1.542610991919923e+18
14386.0	1.5423307755028477e+18
14387.0	1.5420932839440381e+18
14388.0	1.5418311718207485e+18
14389.0	1.5415755776458747e+18
14390.0	1.5413156801150973e+18
14391.0	1.5410598409928696e+18
14392.0	1.5408009165406205e+18
14393.0	1.5405434047299581e+18
14394.0	1.540236688700211e+18
14395.0	1.5400141540294653e+18
14396.0	1.539768377881395e+18
14397.0	1.5395099282243581e+18
14398.0	1.5392394560143357e+18
14399.0	1.5389793135362043e+18
14400.0	1.5386952970797056e+18
14401.0	1.538448465644748e+18
14402.0	1.5381831222296573e+18
14403.0	1.5376519589265403e+18
14404.0	1.534119646960023e+18
14405.0	1.5349085267558356e+18
14406.0	1.5371192084987904e+18
14407.0	1.536579884757811e+18
14408.0	1.5366329896796157e+18
14409.0	1.5363715553558525e+18
14410.0	1.5361390566965248e+18
14411.0	1.5358863398141947e+18
14412.0	1.5356267056857085e+18
14413.0	1.5353751330095101e+18
14414.0	1.5351155139805184e+18
14415.0	1.5348596043939837e+18
14416.0	1.5346019315220475e+18
14417.0	1.5343453995007995e+18
14418.0	1.5340848761798653e+18
14419.0	1.5338295521181693e+18
14420.0	1.5335674567720957e+18
14421.0	1.5333152968933373e+18
14422.0	1.5330486062678013e+18
14423.0	1.5327563723309053e+18
14424.0	1.5312777459531768e+18
14425.0	1.5322407547961341e+18
14426.0	1.5320275935559677e+18
14427.0	1.5317740478791677e+18
14428.0	1.5314909189373947e+18
14429.0	1.531260931827302e+18
14430.0	1.5310037639495677e+18
14431.0	1.5306565477203965e+18
14432.0	1.5304849755209725e+18
14433.0	1.5299785888104443e+18
14434.0	1.5299534431191037e+18
14435.0	1.5296926966611965e+18
14436.0	1.5294558745133053e+18
14437.0	1.5292015117860864e+18
14438.0	1.5289329588895744e+18
14439.0	1.5286833055268864e+18
14440.0	1.5284328770568187e+18
14441.0	1.528161513976627e+18
14442.0	1.5278946220244987e+18
14443.0	1.5275872097402877e+18
14444.0	1.5273945854902272e+18
14445.0	1.527135459711385e+18
14446.0	1.5256410459734019e+18
14447.0	1.526572087508992e+18
14448.0	1.5263807400050685e+18
14449.0	1.5261301051752448e+18
14450.0	1.525868362150707e+18
14451.0	1.525616351589171e+18
14452.0	1.525364757102592e+18
14453.0	1.5251073694433283e+18
14454.0	1.5248537818234875e+18
14455.0	1.5245879686463488e+18
14456.0	1.5243428870750205e+18
14457.0	1.5240846823653373e+18
14458.0	1.5238306669264893e+18
14459.0	1.5235727491071997e+18
14460.0	1.5233143044833275e+18
14461.0	1.5230349437042685e+18
14462.0	1.522782168101683e+18
14463.0	1.5225424669835264e+18
14464.0	1.5222956036718592e+18
14465.0	1.522009474963865e+18
14466.0	1.5217875828604925e+18
14467.0	1.5215105994129403e+18
14468.0	1.5212760187011067e+18
14469.0	1.5209922169929723e+18
14470.0	1.5207329737736192e+18
14471.0	1.5205050016071677e+18
14472.0	1.520257713831936e+18
14473.0	1.520008332260147e+18
14474.0	1.5197577209184253e+18
14475.0	1.5195005480075264e+18
14476.0	1.5192220613214205e+18
14477.0	1.5189818703085565e+18
14478.0	1.5187246655209472e+18
14479.0	1.5184706500820992e+18
14480.0	1.5181951363186685e+18
14481.0	1.5179649529151485e+18
14482.0	1.5177040051306493e+18
14483.0	1.5174434650324987e+18
14484.0	1.5171780008214523e+18
14485.0	1.5168832435912701e+18
14486.0	1.5163169689305085e+18
14487.0	1.5164290843541504e+18
14488.0	1.5161845329428477e+18
14489.0	1.5159241018966013e+18
14490.0	1.515673879786291e+18
14491.0	1.5154235503017981e+18
14492.0	1.5151721873407995e+18
14493.0	1.5149099443552253e+18
14494.0	1.5146355747979264e+18
14495.0	1.5143979188223997e+18
14496.0	1.5139930560790525e+18
14497.0	1.5138948439343101e+18
14498.0	1.5136484638064637e+18
14499.0	1.513396303927705e+18
14500.0	1.513141937845043e+18
14501.0	1.512862177768243e+18
14502.0	1.5123359352225795e+18
14503.0	1.5123592622637053e+18
14504.0	1.5121170982502397e+18
14505.0	1.5118668627181565e+18
14506.0	1.5115933638983675e+18
14507.0	1.5110595548282877e+18
14508.0	1.511107062870835e+18
14509.0	1.5108613454430205e+18
14510.0	1.510605046625075e+18
14511.0	1.5103551416041467e+18
14512.0	1.5100861994762237e+18
14513.0	1.5098433324974083e+18
14514.0	1.5095521404256256e+18
14515.0	1.509292729434112e+18
14516.0	1.505438455981672e+18
14517.0	1.5086993931239421e+18
14518.0	1.508571609458278e+18
14519.0	1.5083268936302587e+18
14520.0	1.5080799833423872e+18
14521.0	1.5078306135146493e+18
14522.0	1.507578109702963e+18
14523.0	1.5073092783046653e+18
14524.0	1.5070584639586301e+18
14525.0	1.5068085371273213e+18
14526.0	1.506552483256729e+18
14527.0	1.5062552731975675e+18
14528.0	1.5058725530238973e+18
14529.0	1.5057834022535163e+18
14530.0	1.5055254760456192e+18
14531.0	1.5052930277179392e+18
14532.0	1.5050269226172413e+18
14533.0	1.504790941007872e+18
14534.0	1.5045412641570813e+18
14535.0	1.5042751003361277e+18
14536.0	1.5040313508757501e+18
14537.0	1.5037683445268483e+18
14538.0	1.5035326363860987e+18
14539.0	1.5032812935577597e+18
14540.0	1.5030291487784957e+18
14541.0	1.5027486672814077e+18
14542.0	1.5025210709245947e+18
14543.0	1.5022473456123904e+18
14544.0	1.502014197674803e+18
14545.0	1.5017406619451384e+18
14546.0	1.4994702113701875e+18
14547.0	1.4992004740022254e+18
14548.0	1.500962132013875e+18
14549.0	1.5006000008396797e+18
14550.0	1.5004893098016765e+18
14551.0	1.5002582153953277e+18
14552.0	1.5000060387393536e+18
14553.0	1.4997432018403325e+18
14554.0	1.4995061079015421e+18
14555.0	1.4992539782217728e+18
14556.0	1.4990004006682621e+18
14557.0	1.498742628810752e+18
14558.0	1.4984431840264187e+18
14559.0	1.4955371504336858e+18
14560.0	1.4979359349669883e+18
14561.0	1.4977282749759488e+18
14562.0	1.4974598177095675e+18
14563.0	1.4972407139794941e+18
14564.0	1.4969846265544704e+18
14565.0	1.4967442744803323e+18
14566.0	1.4964938376216576e+18
14567.0	1.4962400839073787e+18
14568.0	1.495982872408883e+18
14569.0	1.4957201294622715e+18
14570.0	1.4947452490612728e+18
14571.0	1.4952218411139072e+18
14572.0	1.4949370126401536e+18
14573.0	1.4946714796425216e+18
14574.0	1.4944778353377277e+18
14575.0	1.4942333543907325e+18
14576.0	1.4939810837823488e+18
14577.0	1.4937255432945664e+18
14578.0	1.4934832366747643e+18
14579.0	1.4932366099218424e+18
14580.0	1.4929865807495165e+18
14581.0	1.4927311728017405e+18
14582.0	1.4924727868981248e+18
14583.0	1.492222225888051e+18
14584.0	1.4919590266011648e+18
14585.0	1.491720947839795e+18
14586.0	1.491468115194675e+18
14587.0	1.491220834130329e+18
14588.0	1.490971526378291e+18
14589.0	1.490722072664473e+18
14590.0	1.4904723102498813e+18
14591.0	1.4902175868125181e+18
14592.0	1.489954860643123e+18
14593.0	1.4895756250972152e+18
14594.0	1.489464261292851e+18
14595.0	1.489213037582745e+18
14596.0	1.4889151765676032e+18
14597.0	1.4886571027202045e+18
14598.0	1.488466352485171e+18
14599.0	1.4882269986553853e+18
14600.0	1.4879779777937405e+18
14601.0	1.4877286264209403e+18
14602.0	1.4874740674002944e+18
14603.0	1.4872279439638525e+18
14604.0	1.486928150213427e+18
14605.0	1.486715042660352e+18
14606.0	1.4863597465239547e+18
14607.0	1.4862256596582395e+18
14608.0	1.485974893966131e+18
14609.0	1.485725332878131e+18
14610.0	1.485471354349158e+18
14611.0	1.4852206188560381e+18
14612.0	1.4849890144223224e+18
14613.0	1.4847416444387325e+18
14614.0	1.4844826780434424e+18
14615.0	1.4842376031830013e+18
14616.0	1.4839957478703104e+18
14617.0	1.4837335199842304e+18
14618.0	1.4834834857787387e+18
14619.0	1.4831843916382203e+18
14620.0	1.4828732481011712e+18
14621.0	1.4827480967806976e+18
14622.0	1.4824983695982592e+18
14623.0	1.4822521404653565e+18
14624.0	1.4819363211182075e+18
14625.0	1.4817486797012992e+18
14626.0	1.4815012040212477e+18
14627.0	1.481253273678643e+18
14628.0	1.4810126212923387e+18
14629.0	1.4807643721826301e+18
14630.0	1.4805105379377155e+18
14631.0	1.4802611630768125e+18
14632.0	1.479898191364096e+18
14633.0	1.4797444583784445e+18
14634.0	1.4795193383387136e+18
14635.0	1.4792615312490493e+18
14636.0	1.4789845259911165e+18
14637.0	1.4787767535927293e+18
14638.0	1.4785226710450176e+18
14639.0	1.4782635016454141e+18
14640.0	1.4780141133627395e+18
14641.0	1.4773711114600445e+18
14642.0	1.4775158988341248e+18
14643.0	1.4772832693125115e+18
14644.0	1.477021631984435e+18
14645.0	1.4767569747574784e+18
14646.0	1.476524509652582e+18
14647.0	1.4762687191842816e+18
