# Flux units: erg / (cm m2 s)
# Wavelength units: Angstrom
wave	flux
14000.0	1.678345145365299e+18
14001.0	1.677942113016217e+18
14002.0	1.677567721052569e+18
14003.0	1.6771788419629053e+18
14004.0	1.676790152455782e+18
14005.0	1.6764013320863741e+18
14006.0	1.6760112148381693e+18
14007.0	1.675622147843686e+18
14008.0	1.675216360675737e+18
14009.0	1.6748470589194235e+18
14010.0	1.674456206829158e+18
14011.0	1.673956826284032e+18
14012.0	1.673682434916352e+18
14013.0	1.673293534016307e+18
14014.0	1.6729020863348733e+18
14015.0	1.6725149571088381e+18
14016.0	1.6721277842620413e+18
14017.0	1.671740252382822e+18
14018.0	1.6713524638121984e+18
14019.0	1.6709654939697147e+18
14020.0	1.6705781281849341e+18
14021.0	1.6701909167505405e+18
14022.0	1.6698026819059707e+18
14023.0	1.6694050232991736e+18
14024.0	1.6690244724195325e+18
14025.0	1.6686435474079741e+18
14026.0	1.6682568946548733e+18
14027.0	1.6678708123271163e+18
14028.0	1.6674832703815675e+18
14029.0	1.6670972568403963e+18
14030.0	1.6662656152764419e+18
14031.0	1.6663199818448896e+18
14032.0	1.6659365687721981e+18
14033.0	1.665537321363046e+18
14034.0	1.6651649191772157e+18
14035.0	1.664779605245952e+18
14036.0	1.6643941218648067e+18
14037.0	1.6640073768370176e+18
14038.0	1.6636234872913915e+18
14039.0	1.6632375140155387e+18
14040.0	1.6628506414809085e+18
14041.0	1.6624675052322813e+18
14042.0	1.6620816426860541e+18
14043.0	1.6616908845481984e+18
14044.0	1.661312026489651e+18
14045.0	1.660929014392422e+18
14046.0	1.6605442104885243e+18
14047.0	1.6601577825501181e+18
14048.0	1.6597756646785024e+18
14049.0	1.6593926408372221e+18
14050.0	1.6590086690832381e+18
14051.0	1.6586199913201661e+18
14052.0	1.6582367695077376e+18
14053.0	1.6578538127753213e+18
14054.0	1.657470379569971e+18
14055.0	1.6570807538941947e+18
14056.0	1.656686450730598e+18
14057.0	1.6563031987191805e+18
14058.0	1.6559201111244795e+18
14059.0	1.6555371074158592e+18
14060.0	1.6551542077259776e+18
14061.0	1.6547700715552765e+18
14062.0	1.6543887254355965e+18
14063.0	1.6540031363579904e+18
14064.0	1.653555057183948e+18
14065.0	1.6532397327646715e+18
14066.0	1.6528589436485632e+18
14067.0	1.6524654105591805e+18
14068.0	1.6520948438007805e+18
14069.0	1.6517116337324032e+18
14070.0	1.6513309217914877e+18
14071.0	1.6509488005644288e+18
14072.0	1.65056771784704e+18
14073.0	1.6501849372753915e+18
14074.0	1.649801395018137e+18
14075.0	1.649416342811443e+18
14076.0	1.649025349792563e+18
14077.0	1.6485497744392187e+18
14078.0	1.6482692191223803e+18
14079.0	1.6478939882979325e+18
14080.0	1.6475151570829312e+18
14081.0	1.647134431720243e+18
14082.0	1.6467497989439488e+18
14083.0	1.646373155477913e+18
14084.0	1.6459931079147523e+18
14085.0	1.6455014448889853e+18
14086.0	1.6452248640946176e+18
14087.0	1.644852713567027e+18
14088.0	1.6444695253090304e+18
14089.0	1.644082005173862e+18
14090.0	1.6437110609281021e+18
14091.0	1.6433336557764605e+18
14092.0	1.642954158505984e+18
14093.0	1.6425747132448765e+18
14094.0	1.6421954659549181e+18
14095.0	1.6418163109396475e+18
14096.0	1.6414158689927165e+18
14097.0	1.641049998177075e+18
14098.0	1.6406677561540605e+18
14099.0	1.6402972061728768e+18
14100.0	1.6399164304785405e+18
14101.0	1.6395400688697341e+18
14102.0	1.6391615010570237e+18
14103.0	1.6387806347657213e+18
14104.0	1.6384044728057853e+18
14105.0	1.638026059343462e+18
14106.0	1.6376488471298043e+18
14107.0	1.6372683314823165e+18
14108.0	1.636889733470617e+18
14109.0	1.6365144221155325e+18
14110.0	1.6361330340528123e+18
14111.0	1.6357503927320576e+18
14112.0	1.6353807185215485e+18
14113.0	1.63499941602263e+18
14114.0	1.6346252404850688e+18
14115.0	1.6342498083340288e+18
14116.0	1.6338381323632637e+18
14117.0	1.6327835148877824e+18
14118.0	1.6331203426648061e+18
14119.0	1.6327322353270781e+18
14120.0	1.6323563048927224e+18
14121.0	1.6319867498004477e+18
14122.0	1.6315976492515325e+18
14123.0	1.6312183835066363e+18
14124.0	1.6308364266962941e+18
14125.0	1.6303991017177088e+18
14126.0	1.6301015611473912e+18
14127.0	1.629731219203686e+18
14128.0	1.629355233404518e+18
14129.0	1.6289777326227453e+18
14130.0	1.6286002083528704e+18
14131.0	1.628227866565017e+18
14132.0	1.627852434413977e+18
14133.0	1.627377127496089e+18
14134.0	1.6271032344117248e+18
14135.0	1.6267237019090941e+18
14136.0	1.6263011928899581e+18
14137.0	1.6259781006196733e+18
14138.0	1.625593736278835e+18
14139.0	1.6252293200478205e+18
14140.0	1.6248472122425344e+18
14141.0	1.6244799673729021e+18
14142.0	1.624040468067123e+18
14143.0	1.6237216053329915e+18
14144.0	1.623358096749363e+18
14145.0	1.622983904434585e+18
14146.0	1.6226090326425597e+18
14147.0	1.622235716098457e+18
14148.0	1.6218592001392637e+18
14149.0	1.621483628737331e+18
14150.0	1.6211158402859e+18
14151.0	1.6207322644742141e+18
14152.0	1.6203673180831744e+18
14153.0	1.6199941592449021e+18
14154.0	1.6196163749281787e+18
14155.0	1.6189050427801597e+18
14156.0	1.6188644318511096e+18
14157.0	1.6185006212775933e+18
14158.0	1.6181240029773821e+18
14159.0	1.617753961345843e+18
14160.0	1.6173816984109056e+18
14161.0	1.616997510230835e+18
14162.0	1.6166175532646397e+18
14163.0	1.6162650102693885e+18
14164.0	1.615868022751232e+18
14165.0	1.6154424988663805e+18
14166.0	1.6151491458891776e+18
14167.0	1.6147752824078333e+18
14168.0	1.6144012494766077e+18
14169.0	1.6140349088989181e+18
14170.0	1.6136600924717056e+18
14171.0	1.613290352830054e+18
14172.0	1.6129211097939965e+18
14173.0	1.6125140190363648e+18
14174.0	1.612177226491494e+18
14175.0	1.6118081294172157e+18
14176.0	1.6114343615660032e+18
14177.0	1.611066006044672e+18
14178.0	1.6106954258644987e+18
14179.0	1.610318035812352e+18
14180.0	1.609955480174592e+18
14181.0	1.6095852405719037e+18
14182.0	1.6092149506375675e+18
14183.0	1.6088450583232507e+18
14184.0	1.6084741644091392e+18
14185.0	1.6081052686614528e+18
14186.0	1.6076027927199741e+18
14187.0	1.607361365226291e+18
14188.0	1.6069956319838205e+18
14189.0	1.6066249511403515e+18
14190.0	1.6062565956190205e+18
14191.0	1.6058867821576187e+18
14192.0	1.605517750514483e+18
14193.0	1.605126883324723e+18
14194.0	1.6047766606184448e+18
14195.0	1.6044093100523515e+18
14196.0	1.6040405267120123e+18
14197.0	1.6036719178547197e+18
14198.0	1.6033023929614333e+18
14199.0	1.6029337555828733e+18
14200.0	1.6024846529986557e+18
14201.0	1.6021975679893504e+18
14202.0	1.601829898656153e+18
14203.0	1.6014536930754557e+18
14204.0	1.6010939006451707e+18
14205.0	1.6007246777417725e+18
14206.0	1.600329169974067e+18
14207.0	1.5999849199566843e+18
14208.0	1.5996175157035005e+18
14209.0	1.5992233031368696e+18
14210.0	1.598867575826022e+18
14211.0	1.5985146922532861e+18
14212.0	1.5981483751636995e+18
14213.0	1.5977787747729403e+18
14214.0	1.5974145397358587e+18
14215.0	1.5970451289276413e+18
14216.0	1.5966812512452603e+18
14217.0	1.596314635521228e+18
14218.0	1.595945971299123e+18
14219.0	1.5955818151149565e+18
14220.0	1.595214887334707e+18
14221.0	1.594846652609331e+18
14222.0	1.5944618839375867e+18
14223.0	1.5941160870608893e+18
14224.0	1.5937514560815101e+18
14225.0	1.5931512159469568e+18
14226.0	1.5930199728193533e+18
14227.0	1.5926544828465147e+18
14228.0	1.5916926987403267e+18
14229.0	1.591860801411481e+18
14230.0	1.5915583904153597e+18
14231.0	1.5911733650522107e+18
14232.0	1.5908281671221248e+18
14233.0	1.5904617309143037e+18
14234.0	1.5900951806214141e+18
14235.0	1.589729853387571e+18
14236.0	1.5893654556114941e+18
14237.0	1.5890007071916035e+18
14238.0	1.5886363597471744e+18
14239.0	1.5882690897117181e+18
14240.0	1.5876299180474368e+18
14241.0	1.5875420658335741e+18
14242.0	1.5871792820256763e+18
14243.0	1.5867870407819264e+18
14244.0	1.5864520031338493e+18
14245.0	1.5860842465591293e+18
14246.0	1.5857178841710587e+18
14247.0	1.5853599657558013e+18
14248.0	1.5849947224080381e+18
14249.0	1.5846337471840253e+18
14250.0	1.5842704214720507e+18
14251.0	1.583907723227955e+18
14252.0	1.583544650851942e+18
14253.0	1.5831815616987133e+18
14254.0	1.5828183383277565e+18
14255.0	1.582450182455296e+18
14256.0	1.581889944236851e+18
14257.0	1.5817283561586685e+18
14258.0	1.5813683405914107e+18
14259.0	1.581002308714496e+18
14260.0	1.5806373690343421e+18
14261.0	1.5802776755896315e+18
14262.0	1.5799238508150781e+18
14263.0	1.5792611893706755e+18
14264.0	1.579159079878656e+18
14265.0	1.578832971064934e+18
14266.0	1.5784761482018813e+18
14267.0	1.5781148575662075e+18
14268.0	1.5777532666183675e+18
14269.0	1.5773904190570496e+18
14270.0	1.577030854796902e+18
14271.0	1.5766684400877563e+18
14272.0	1.5763083423121405e+18
14273.0	1.5759474845286395e+18
14274.0	1.5751511673929728e+18
14275.0	1.5751870974787581e+18
14276.0	1.5748566903422976e+18
14277.0	1.5744993004093435e+18
14278.0	1.574144138490675e+18
14279.0	1.5737837051707392e+18
14280.0	1.573421943095296e+18
14281.0	1.5730632462172157e+18
14282.0	1.572702487419289e+18
14283.0	1.5723400643215357e+18
14284.0	1.5719801578061821e+18
14285.0	1.5716203234328576e+18
14286.0	1.5712595528908797e+18
14287.0	1.5709010439176187e+18
14288.0	1.5705414863683581e+18
14289.0	1.570005108706508e+18
14290.0	1.569821123044966e+18
14291.0	1.569463261672243e+18
14292.0	1.5691044523868157e+18
14293.0	1.5687450407993344e+18
14294.0	1.568360037246566e+18
14295.0	1.5680248687362043e+18
14296.0	1.5675257348161539e+18
14297.0	1.5673104311255037e+18
14298.0	1.5668577130512381e+18
14299.0	1.5665880964792315e+18
14300.0	1.5662333724459005e+18
14301.0	1.5658751822397437e+18
14302.0	1.5655181295288315e+18
14303.0	1.565153496871731e+18
14304.0	1.564799656997683e+18
14305.0	1.5644440303501307e+18
14306.0	1.5640651605475325e+18
14307.0	1.563723141899878e+18
14308.0	1.5633716491583485e+18
14309.0	1.563012368433152e+18
14310.0	1.5625710068563965e+18
14311.0	1.562158787303833e+18
14312.0	1.5619232033144832e+18
14313.0	1.5615668737015803e+18
14314.0	1.5612248449875963e+18
14315.0	1.5608707450667005e+18
14316.0	1.5605054681645053e+18
14317.0	1.5601395201736704e+18
14318.0	1.5598019021897725e+18
14319.0	1.559445555799654e+18
14320.0	1.559089078547251e+18
14321.0	1.558732352992051e+18
14322.0	1.5583681682866176e+18
14323.0	1.5580182173712381e+18
14324.0	1.5576631242391547e+18
14325.0	1.5573069221330944e+18
14326.0	1.5569529815957504e+18
14327.0	1.5565959423066112e+18
14328.0	1.5562404716871675e+18
14329.0	1.5558861603733501e+18
14330.0	1.555530746796441e+18
14331.0	1.5551732075462656e+18
14332.0	1.5548201964666877e+18
14333.0	1.5544650949459965e+18
14334.0	1.5541100521455613e+18
14335.0	1.553749435953971e+18
14336.0	1.5533725928390653e+18
14337.0	1.5530449069670395e+18
14338.0	1.5526878710333437e+18
14339.0	1.5523299693953021e+18
14340.0	1.551978802131763e+18
14341.0	1.5516223685001213e+18
14342.0	1.5512697617514493e+18
14343.0	1.5509124557045757e+18
14344.0	1.5505594261700605e+18
14345.0	1.5502082052194304e+18
14346.0	1.549853674124083e+18
14347.0	1.549487086921318e+18
14348.0	1.549146496014745e+18
14349.0	1.5487932534095867e+18
14350.0	1.5484213495070715e+18
14351.0	1.5480661439676413e+18
14352.0	1.5477312774471675e+18
14353.0	1.547379591767654e+18
14354.0	1.5470245187682304e+18
14355.0	1.5466674224365565e+18
14356.0	1.5463168356646907e+18
14357.0	1.5459679702351867e+18
14358.0	1.545615244368281e+18
14359.0	1.5452597284503547e+18
14360.0	1.544908406836428e+18
14361.0	1.5445572613832701e+18
14362.0	1.5442053274009597e+18
14363.0	1.5438529454669821e+18
14364.0	1.5434347918131197e+18
14365.0	1.5431418834321405e+18
14366.0	1.5427861494104064e+18
14367.0	1.542445055187353e+18
14368.0	1.5420931899916285e+18
14369.0	1.5417415898759163e+18
14370.0	1.541390043447296e+18
14371.0	1.5410386429804544e+18
14372.0	1.540685376887193e+18
14373.0	1.5403355417346048e+18
14374.0	1.5399846865272832e+18
14375.0	1.5396333045153787e+18
14376.0	1.5392825600376832e+18
14377.0	1.538931510214656e+18
14378.0	1.538580299330355e+18
14379.0	1.538230049780531e+18
14380.0	1.5378793623453693e+18
14381.0	1.5375265005830144e+18
14382.0	1.537178046195302e+18
14383.0	1.536822578931302e+18
14384.0	1.536473752089395e+18
14385.0	1.536127569336729e+18
14386.0	1.5357741388267515e+18
14387.0	1.5354274343026685e+18
14388.0	1.535077144487526e+18
14389.0	1.5347277405093885e+18
14390.0	1.5343776352436227e+18
14391.0	1.5340283017297915e+18
14392.0	1.5336758912745472e+18
14393.0	1.533329527327948e+18
14394.0	1.532973113828966e+18
14395.0	1.5326139253784576e+18
14396.0	1.5322810603798523e+18
14397.0	1.5319327972524032e+18
14398.0	1.531582186992435e+18
14399.0	1.5312347543371773e+18
14400.0	1.530874205254451e+18
14401.0	1.5305363339345912e+18
14402.0	1.530186367919718e+18
14403.0	1.5285555973586916e+18
14404.0	1.5259392022675448e+18
14405.0	1.5288928948977646e+18
14406.0	1.528792407762534e+18
14407.0	1.5264546067316744e+18
14408.0	1.5280806142410747e+18
14409.0	1.527744665590169e+18
14410.0	1.5273954377728e+18
14411.0	1.5270514041815037e+18
14412.0	1.526704463098675e+18
14413.0	1.5263573894758397e+18
14414.0	1.5260095994658816e+18
14415.0	1.5256624369238013e+18
14416.0	1.5253120380567547e+18
14417.0	1.5249521130864637e+18
14418.0	1.524604042896998e+18
14419.0	1.5242737095802877e+18
14420.0	1.5239261242523643e+18
14421.0	1.523580084106035e+18
14422.0	1.5232327353368573e+18
14423.0	1.522885217117798e+18
14424.0	1.5145204713521088e+18
14425.0	1.5221928952332285e+18
14426.0	1.5218472761950203e+18
14427.0	1.521501093442355e+18
14428.0	1.5211492953554947e+18
14429.0	1.5208085349990397e+18
14430.0	1.520462957903872e+18
14431.0	1.5200124544221184e+18
14432.0	1.5197652337557504e+18
14433.0	1.5179417835798515e+18
14434.0	1.519077035710873e+18
14435.0	1.518718068719616e+18
14436.0	1.5183888494100477e+18
14437.0	1.5180435290062843e+18
14438.0	1.5176510025498621e+18
14439.0	1.517344211022643e+18
14440.0	1.5170078009982973e+18
14441.0	1.5166615612030968e+18
14442.0	1.5163155344785405e+18
14443.0	1.5159635702972416e+18
14444.0	1.5156275981582336e+18
14445.0	1.5152837809930237e+18
14446.0	1.5133494250307592e+18
14447.0	1.514582600738406e+18
14448.0	1.5142356797882365e+18
14449.0	1.513891424737689e+18
14450.0	1.5135460640686077e+18
14451.0	1.5132030169776125e+18
14452.0	1.5128584666480637e+18
14453.0	1.5124883075760125e+18
14454.0	1.5121711007531003e+18
14455.0	1.5118259816759296e+18
14456.0	1.511477544065433e+18
14457.0	1.5111313210474493e+18
14458.0	1.510790505326182e+18
14459.0	1.5104496191406077e+18
14460.0	1.5101092748591104e+18
14461.0	1.509757745207705e+18
14462.0	1.5093024971292672e+18
14463.0	1.5090782142726141e+18
14464.0	1.5087376518873085e+18
14465.0	1.5083910144720893e+18
14466.0	1.508051653335449e+18
14467.0	1.5076893493559293e+18
14468.0	1.50736507764736e+18
14469.0	1.5070147207233536e+18
14470.0	1.5066764064849915e+18
14471.0	1.5063363927146496e+18
14472.0	1.505995675978956e+18
14473.0	1.5056552629108736e+18
14474.0	1.5053137777786877e+18
14475.0	1.504970415276032e+18
14476.0	1.5045329544019965e+18
14477.0	1.5042879734939643e+18
14478.0	1.5039458155954173e+18
14479.0	1.5036024346378237e+18
14480.0	1.5032573776363515e+18
14481.0	1.5029193821650941e+18
14482.0	1.5025774423703547e+18
14483.0	1.5022346972692477e+18
14484.0	1.5018949267685373e+18
14485.0	1.501546497546649e+18
14486.0	1.5011571923156992e+18
14487.0	1.5008722078138365e+18
14488.0	1.5005069309116416e+18
14489.0	1.5001805654065155e+18
14490.0	1.4998473950625787e+18
14491.0	1.4995101210116093e+18
14492.0	1.499168538571571e+18
14493.0	1.498825280087654e+18
14494.0	1.498484410679296e+18
14495.0	1.4981491431833597e+18
14496.0	1.4977832321023997e+18
14497.0	1.4974689344487421e+18
14498.0	1.4971287025745915e+18
14499.0	1.4967892760068093e+18
14500.0	1.4964494769848315e+18
14501.0	1.4960678120980475e+18
14502.0	1.4956786561843197e+18
14503.0	1.4954216158134267e+18
14504.0	1.4950904537022464e+18
14505.0	1.4947144494481403e+18
14506.0	1.4943216562339835e+18
14507.0	1.4940272328703995e+18
14508.0	1.4937346382233597e+18
14509.0	1.4933956562518013e+18
14510.0	1.4930561642528763e+18
14511.0	1.4927179339005947e+18
14512.0	1.4923761199349757e+18
14513.0	1.4920405504491515e+18
14514.0	1.4916876769427453e+18
14515.0	1.4913558789750781e+18
14516.0	1.490582803316736e+18
14517.0	1.490680221899161e+18
14518.0	1.4903419814805501e+18
14519.0	1.4900038937346048e+18
14520.0	1.4896656885481472e+18
14521.0	1.4893265471930365e+18
14522.0	1.4889882849640445e+18
14523.0	1.4885483947491325e+18
14524.0	1.4882156757123067e+18
14525.0	1.487975786689331e+18
14526.0	1.4876388246945792e+18
14527.0	1.4872964621139965e+18
14528.0	1.4869268030029821e+18
14529.0	1.4866251922800637e+18
14530.0	1.4862860962234365e+18
14531.0	1.4859523453878272e+18
14532.0	1.4854626620735485e+18
14533.0	1.4852786009145344e+18
14534.0	1.4849419140661245e+18
14535.0	1.4846027307679741e+18
14536.0	1.4842675689684987e+18
14537.0	1.4839292345974781e+18
14538.0	1.4835949787676667e+18
14539.0	1.4832587012833277e+18
14540.0	1.4829222962921472e+18
14541.0	1.4825815946559485e+18
14542.0	1.482249301760409e+18
14543.0	1.4818526866964477e+18
14544.0	1.481577441368473e+18
14545.0	1.481238937547571e+18
14546.0	1.4711328996327352e+18
14547.0	1.4719687824768934e+18
14548.0	1.480231319764992e+18
14549.0	1.4798754666250235e+18
14550.0	1.479561039786803e+18
14551.0	1.479227282240307e+18
14552.0	1.478890952746598e+18
14553.0	1.478554210533376e+18
14554.0	1.478221211317043e+18
14555.0	1.4778857508831232e+18
14556.0	1.4775483124154365e+18
14557.0	1.4772158181933053e+18
14558.0	1.476880741957632e+18
14559.0	1.4761923207757809e+18
14560.0	1.476179623778713e+18
14561.0	1.4758751659622395e+18
14562.0	1.4755348988559357e+18
14563.0	1.4752072297611264e+18
14564.0	1.4748619529781248e+18
14565.0	1.4745384261779453e+18
14566.0	1.474204081428889e+18
14567.0	1.473869508509696e+18
14568.0	1.4735030018375677e+18
14569.0	1.4732008307556355e+18
14570.0	1.4727576505286653e+18
14571.0	1.4725299551862781e+18
14572.0	1.4721767075479547e+18
14573.0	1.4718511137947645e+18
14574.0	1.4714984550367232e+18
14575.0	1.4711928228151293e+18
14576.0	1.4708588421316603e+18
14577.0	1.470527203547545e+18
14578.0	1.470194289895014e+18
14579.0	1.4698616413224957e+18
14580.0	1.4695284458127357e+18
14581.0	1.4691913328230395e+18
14582.0	1.468860690805555e+18
14583.0	1.4685289146482685e+18
14584.0	1.4681909242101752e+18
14585.0	1.467862981646745e+18
14586.0	1.467529427104563e+18
14587.0	1.4671953575018493e+18
14588.0	1.466865208734515e+18
14589.0	1.4665453142015995e+18
14590.0	1.4662267819786237e+18
14591.0	1.4659065686786048e+18
14592.0	1.4655885448052736e+18
14593.0	1.4652485360680957e+18
14594.0	1.4649529601097725e+18
14595.0	1.4646329229705213e+18
14596.0	1.4642574488764416e+18
14597.0	1.4639347861028864e+18
14598.0	1.4636754237652992e+18
14599.0	1.4633619263848445e+18
14600.0	1.463041907700531e+18
14601.0	1.4627256555012093e+18
14602.0	1.4623990031056893e+18
14603.0	1.4620896815742973e+18
14604.0	1.4617590697558013e+18
14605.0	1.461437158601523e+18
14606.0	1.4611153967644672e+18
14607.0	1.4608187135098877e+18
14608.0	1.4605006560821245e+18
14609.0	1.4601752586223613e+18
14610.0	1.4598338322104315e+18
14611.0	1.4595472740057085e+18
14612.0	1.4592318925438973e+18
14613.0	1.4589147847065597e+18
14614.0	1.4585968044539901e+18
14615.0	1.4582742607986685e+18
14616.0	1.4579631709487101e+18
14617.0	1.4576459976802301e+18
14618.0	1.457316087149363e+18
14619.0	1.456984804242227e+18
14620.0	1.4565414931529723e+18
14621.0	1.4563780293820416e+18
14622.0	1.4560605541236736e+18
14623.0	1.455744311990681e+18
14624.0	1.4554163828490237e+18
14625.0	1.4551100828942336e+18
14626.0	1.4547913426337787e+18
14627.0	1.454471709825433e+18
14628.0	1.4541607390937085e+18
14629.0	1.4538441362505725e+18
14630.0	1.4535263288033277e+18
14631.0	1.4532102645088253e+18
14632.0	1.4522305539473408e+18
14633.0	1.452512177972838e+18
14634.0	1.452258637329203e+18
14635.0	1.4516551289929702e+18
14636.0	1.450488515212083e+18
14637.0	1.4513127966113787e+18
14638.0	1.450992754438963e+18
14639.0	1.450676097908736e+18
14640.0	1.4503632414179325e+18
14641.0	1.447538216612657e+18
14642.0	1.4497307420524541e+18
14643.0	1.4494150887997435e+18
14644.0	1.4490961203691515e+18
14645.0	1.4487781887705085e+18
14646.0	1.4484508417982464e+18
14647.0	1.4481354385260541e+18
