# Flux units: erg / (cm m2 s)
# Wavelength units: Angstrom
wave	flux
14000.0	1.994136694344908e+18
14001.0	1.994047276816793e+18
14002.0	1.9937807036317693e+18
14003.0	1.9934082729246723e+18
14004.0	1.9930305557168125e+18
14005.0	1.992650633982771e+18
14006.0	1.9922643452952573e+18
14007.0	1.9918797242630136e+18
14008.0	1.9914425318244347e+18
14009.0	1.9911094923427837e+18
14010.0	1.9907200461832187e+18
14011.0	1.9898801602953216e+18
14012.0	1.989959702754099e+18
14013.0	1.9896044284280827e+18
14014.0	1.9892217921404925e+18
14015.0	1.9888464086433787e+18
14016.0	1.9884677384896512e+18
14017.0	1.988088328460697e+18
14018.0	1.987704710705971e+18
14019.0	1.9873285319688187e+18
14020.0	1.9869479928332288e+18
14021.0	1.98656745537536e+18
14022.0	1.9861867820220416e+18
14023.0	1.985796082604441e+18
14024.0	1.985418232856576e+18
14025.0	1.985048416039731e+18
14026.0	1.984668281235046e+18
14027.0	1.9842882068283387e+18
14028.0	1.9838987237588987e+18
14029.0	1.9834985250815992e+18
14030.0	1.9823307654168579e+18
14031.0	1.9825713490165755e+18
14032.0	1.98237771310039e+18
14033.0	1.9819750666272765e+18
14034.0	1.9816362339729403e+18
14035.0	1.9812603991687165e+18
14036.0	1.980880484145561e+18
14037.0	1.980506328740659e+18
14038.0	1.9801278498471933e+18
14039.0	1.9797460742307837e+18
14040.0	1.979369729399193e+18
14041.0	1.9789928493744125e+18
14042.0	1.978607144534016e+18
14043.0	1.97820858499072e+18
14044.0	1.9778499267002365e+18
14045.0	1.9774783684083712e+18
14046.0	1.9771011847159803e+18
14047.0	1.9767205465948155e+18
14048.0	1.9763507029344256e+18
14049.0	1.9759744470220797e+18
14050.0	1.9755972801069053e+18
14051.0	1.9752150598942712e+18
14052.0	1.9748384080396283e+18
14053.0	1.9744666752647168e+18
14054.0	1.9740901274288125e+18
14055.0	1.9737134873182205e+18
14056.0	1.9733368807620603e+18
14057.0	1.972960379902361e+18
14058.0	1.9725839193079805e+18
14059.0	1.9722041670238203e+18
14060.0	1.971831006507827e+18
14061.0	1.9714495312035837e+18
14062.0	1.9710766659665915e+18
14063.0	1.970683763700531e+18
14064.0	1.970153358727577e+18
14065.0	1.9699414104801275e+18
14066.0	1.9695757711900672e+18
14067.0	1.969196542355046e+18
14068.0	1.9688240780935165e+18
14069.0	1.968447649375846e+18
14070.0	1.968072809460531e+18
14071.0	1.9676958187061245e+18
14072.0	1.9673227940855803e+18
14073.0	1.9669475347398653e+18
14074.0	1.9665719885037565e+18
14075.0	1.9661796516298747e+18
14076.0	1.965810682062438e+18
14077.0	1.9652558461075456e+18
14078.0	1.9650395659829243e+18
14079.0	1.964686554903347e+18
14080.0	1.96432131826647e+18
14081.0	1.9639483724988416e+18
14082.0	1.9635734134652928e+18
14083.0	1.9631960653561853e+18
14084.0	1.962807506711347e+18
14085.0	1.9622109575643133e+18
14086.0	1.9620354259419133e+18
14087.0	1.9616952578211837e+18
14088.0	1.9613176513429501e+18
14089.0	1.9609535069028347e+18
14090.0	1.9605825609793533e+18
14091.0	1.9602101604712443e+18
14092.0	1.9598369882112e+18
14093.0	1.9594633361227773e+18
14094.0	1.9590890465001472e+18
14095.0	1.9587123074039803e+18
14096.0	1.958321034205593e+18
14097.0	1.957942608999219e+18
14098.0	1.9575853398622203e+18
14099.0	1.9572212642086912e+18
14100.0	1.9568425319792637e+18
14101.0	1.956479795147571e+18
14102.0	1.9561070104412155e+18
14103.0	1.9557236762214397e+18
14104.0	1.955359989799321e+18
14105.0	1.9549908155498493e+18
14106.0	1.9546185240936445e+18
14107.0	1.9542431993167872e+18
14108.0	1.9538629202280443e+18
14109.0	1.9534982489833472e+18
14110.0	1.9531271587758072e+18
14111.0	1.9527505908072443e+18
14112.0	1.9523753901817853e+18
14113.0	1.952008818078515e+18
14114.0	1.951619293066035e+18
14115.0	1.9512419365683197e+18
14116.0	1.950724730231193e+18
14117.0	1.9489581715947515e+18
14118.0	1.950064437729689e+18
14119.0	1.9497400620023805e+18
14120.0	1.949386889861529e+18
14121.0	1.949019661769113e+18
14122.0	1.9486562572042237e+18
14123.0	1.9482829574373373e+18
14124.0	1.9478864447143933e+18
14125.0	1.9472174918139901e+18
14126.0	1.9471609643401216e+18
14127.0	1.946813031723827e+18
14128.0	1.946445432854937e+18
14129.0	1.9460663399153661e+18
14130.0	1.945686352750182e+18
14131.0	1.9453327762784248e+18
14132.0	1.944930648221286e+18
14133.0	1.9442016932855803e+18
14134.0	1.944191363553689e+18
14135.0	1.9438411425251328e+18
14136.0	1.943480103547699e+18
14137.0	1.9431110500941821e+18
14138.0	1.9427391495471101e+18
14139.0	1.942375317163212e+18
14140.0	1.9420013530185725e+18
14141.0	1.9416062630035448e+18
14142.0	1.9412116511391741e+18
14143.0	1.9408905587130363e+18
14144.0	1.9405322007347197e+18
14145.0	1.9401651823575037e+18
14146.0	1.939794937721651e+18
14147.0	1.939429888989593e+18
14148.0	1.9390613757624317e+18
14149.0	1.938693454770995e+18
14150.0	1.9383267182510075e+18
14151.0	1.937955027419136e+18
14152.0	1.9375918678015992e+18
14153.0	1.9372225744338941e+18
14154.0	1.9368308029521917e+18
14155.0	1.9364687590195197e+18
14156.0	1.9361161858252797e+18
14157.0	1.935749632176947e+18
14158.0	1.935379674431488e+18
14159.0	1.9350130637406203e+18
14160.0	1.9346288420061181e+18
14161.0	1.9342357249916925e+18
14162.0	1.933832566813491e+18
14163.0	1.9335251176194045e+18
14164.0	1.9331395553853437e+18
14165.0	1.932788557571686e+18
14166.0	1.9324380949512187e+18
14167.0	1.9320619850006525e+18
14168.0	1.9317070915174397e+18
14169.0	1.9313432188682235e+18
14170.0	1.9309744388833277e+18
14171.0	1.930607415472947e+18
14172.0	1.930242866701926e+18
14173.0	1.929863798928179e+18
14174.0	1.9295035417690112e+18
14175.0	1.9291443600293883e+18
14176.0	1.928778705639833e+18
14177.0	1.928412662018867e+18
14178.0	1.9280460983042045e+18
14179.0	1.9276775095795707e+18
14180.0	1.927314385194188e+18
14181.0	1.9269482727866363e+18
14182.0	1.9265813802385403e+18
14183.0	1.9262145514438653e+18
14184.0	1.925841657685606e+18
14185.0	1.9254590398529533e+18
14186.0	1.9248749360447483e+18
14187.0	1.9246822983729147e+18
14188.0	1.9243773892493312e+18
14189.0	1.9240190564368381e+18
14190.0	1.923655130100531e+18
14191.0	1.9232888348213243e+18
14192.0	1.9229148354445307e+18
14193.0	1.922525258422681e+18
14194.0	1.922194621438361e+18
14195.0	1.921834845785292e+18
14196.0	1.9214719260819453e+18
14197.0	1.9211076256137216e+18
14198.0	1.9207389446143997e+18
14199.0	1.9203691831623677e+18
14200.0	1.9198591943835643e+18
14201.0	1.9196027965800443e+18
14202.0	1.9192818803146747e+18
14203.0	1.9189136506224637e+18
14204.0	1.9185504037634043e+18
14205.0	1.918182444184371e+18
14206.0	1.9177348934926333e+18
14207.0	1.917450611956121e+18
14208.0	1.9170926968963064e+18
14209.0	1.9166356788215803e+18
14210.0	1.9163029044199416e+18
14211.0	1.9160138514431997e+18
14212.0	1.9156602565165053e+18
14213.0	1.915298514573721e+18
14214.0	1.9149358029078525e+18
14215.0	1.9145654878076925e+18
14216.0	1.9142050695872507e+18
14217.0	1.913825652847411e+18
14218.0	1.913451616560742e+18
14219.0	1.9130999057154043e+18
14220.0	1.9127344979509243e+18
14221.0	1.9123682429370363e+18
14222.0	1.9119918175748093e+18
14223.0	1.9116391235846141e+18
14224.0	1.911263117652787e+18
14225.0	1.9103818809606141e+18
14226.0	1.9104821315371003e+18
14227.0	1.910168177816371e+18
14228.0	1.9084904511832064e+18
14229.0	1.9090371904536566e+18
14230.0	1.9091033681821693e+18
14231.0	1.9086982823018493e+18
14232.0	1.9083447712612347e+18
14233.0	1.9079828581908475e+18
14234.0	1.9076214081716221e+18
14235.0	1.907259478324019e+18
14236.0	1.9068991540559872e+18
14237.0	1.9065351891320832e+18
14238.0	1.9061691203452925e+18
14239.0	1.9057665527250941e+18
14240.0	1.9041743177515005e+18
14241.0	1.9050005402746875e+18
14242.0	1.9046909519855608e+18
14243.0	1.90425095775191e+18
14244.0	1.9039942747357181e+18
14245.0	1.9036325512478715e+18
14246.0	1.9032741244829693e+18
14247.0	1.9029184324042747e+18
14248.0	1.9025615155888125e+18
14249.0	1.902153668178739e+18
14250.0	1.9017953672429565e+18
14251.0	1.901435819760025e+18
14252.0	1.901075257255526e+18
14253.0	1.9007345019322365e+18
14254.0	1.9003552848412664e+18
14255.0	1.899921659238809e+18
14256.0	1.899129608549171e+18
14257.0	1.899050487198515e+18
14258.0	1.898878591198822e+18
14259.0	1.8985160271724541e+18
14260.0	1.8981550737588221e+18
14261.0	1.897786084058726e+18
14262.0	1.8974233707151352e+18
14263.0	1.8963813864833021e+18
14264.0	1.8963276859703293e+18
14265.0	1.896351702555033e+18
14266.0	1.896034307827302e+18
14267.0	1.895684845128908e+18
14268.0	1.8953195799707643e+18
14269.0	1.8948997821497341e+18
14270.0	1.8945524451246075e+18
14271.0	1.8941997595230203e+18
14272.0	1.893823569041817e+18
14273.0	1.8933803804262397e+18
14274.0	1.891901824512819e+18
14275.0	1.8924355966730235e+18
14276.0	1.8923789517586427e+18
14277.0	1.8920451388473341e+18
14278.0	1.8916888260116477e+18
14279.0	1.8913342328406013e+18
14280.0	1.8909764956192763e+18
14281.0	1.8906247797407744e+18
14282.0	1.8902699382669307e+18
14283.0	1.889912642286387e+18
14284.0	1.889554846344806e+18
14285.0	1.88919655211991e+18
14286.0	1.8888372344848381e+18
14287.0	1.88847581298688e+18
14288.0	1.8880883935150075e+18
14289.0	1.8869399360372726e+18
14290.0	1.8873692347957245e+18
14291.0	1.8870204566077435e+18
14292.0	1.8866166978052093e+18
14293.0	1.886255324961177e+18
14294.0	1.885807366583091e+18
14295.0	1.8855141310463997e+18
14296.0	1.884600306289869e+18
14297.0	1.8847974754877437e+18
14298.0	1.884294563338649e+18
14299.0	1.8841265999183864e+18
14300.0	1.883794548614758e+18
14301.0	1.8834446362869755e+18
14302.0	1.8830830939930624e+18
14303.0	1.8826718861066237e+18
14304.0	1.8823354928594941e+18
14305.0	1.881990137223577e+18
14306.0	1.8816273416716283e+18
14307.0	1.8812685424525312e+18
14308.0	1.8809144291098621e+18
14309.0	1.8805518835384312e+18
14310.0	1.880178323724697e+18
14311.0	1.8798081193541632e+18
14312.0	1.8794553683214333e+18
14313.0	1.8790518527885312e+18
14314.0	1.8787779999694845e+18
14315.0	1.8784232339931133e+18
14316.0	1.878038180108697e+18
14317.0	1.8776356175216635e+18
14318.0	1.8772916611055616e+18
14319.0	1.8769403881455616e+18
14320.0	1.876586407342899e+18
14321.0	1.8762563860824061e+18
14322.0	1.8758794674700288e+18
14323.0	1.875538608128e+18
14324.0	1.8752167137509368e+18
14325.0	1.8748492272893947e+18
14326.0	1.8745035176542205e+18
14327.0	1.8741422907719677e+18
14328.0	1.8737912174608384e+18
14329.0	1.873440630688972e+18
14330.0	1.8730714748944384e+18
14331.0	1.8727017235087355e+18
14332.0	1.8723474860146688e+18
14333.0	1.87199303712768e+18
14334.0	1.8716378433323003e+18
14335.0	1.871269507943629e+18
14336.0	1.870874721596211e+18
14337.0	1.870570520471142e+18
14338.0	1.870219415283302e+18
14339.0	1.869857332763033e+18
14340.0	1.869513425000857e+18
14341.0	1.869159301591859e+18
14342.0	1.8688059801337856e+18
14343.0	1.8684541333929981e+18
14344.0	1.8680794948042747e+18
14345.0	1.867675220941209e+18
14346.0	1.8673192319057915e+18
14347.0	1.866956956447539e+18
14348.0	1.8666156676087803e+18
14349.0	1.8662801971085307e+18
14350.0	1.8658816677642237e+18
14351.0	1.865525066360422e+18
14352.0	1.865212951422566e+18
14353.0	1.8648632924307453e+18
14354.0	1.8645066272735227e+18
14355.0	1.864150723801907e+18
14356.0	1.8638161290723325e+18
14357.0	1.8634774289580027e+18
14358.0	1.8631262231068664e+18
14359.0	1.8627590487015421e+18
14360.0	1.862418107151155e+18
14361.0	1.862066174846566e+18
14362.0	1.8616997621268477e+18
14363.0	1.8613225096478715e+18
14364.0	1.8608494995308541e+18
14365.0	1.860552010969907e+18
14366.0	1.8602442178428925e+18
14367.0	1.8599218839027712e+18
14368.0	1.8595719094992893e+18
14369.0	1.859221166699315e+18
14370.0	1.8588698937393147e+18
14371.0	1.858518696276787e+18
14372.0	1.8581620915175421e+18
14373.0	1.8578144894124032e+18
14374.0	1.8574643707248637e+18
14375.0	1.8571117606207483e+18
14376.0	1.8567519950340096e+18
14377.0	1.8563366029099003e+18
14378.0	1.8559845078663165e+18
14379.0	1.8556357347115e+18
14380.0	1.8552867904290816e+18
14381.0	1.854952653717504e+18
14382.0	1.8546108934389752e+18
14383.0	1.8542602898898941e+18
14384.0	1.8538928990584827e+18
14385.0	1.853550172412313e+18
14386.0	1.853177162891264e+18
14387.0	1.8528433348804605e+18
14388.0	1.8524903288340475e+18
14389.0	1.8521416244658176e+18
14390.0	1.8517911484235776e+18
14391.0	1.8514419541606397e+18
14392.0	1.8511047405076477e+18
14393.0	1.8507635271663613e+18
14394.0	1.8503760355524605e+18
14395.0	1.8500526396145661e+18
14396.0	1.849711578945945e+18
14397.0	1.8493612354437117e+18
14398.0	1.8490101621325821e+18
14399.0	1.8486338474999805e+18
14400.0	1.848258559632998e+18
14401.0	1.847909773056409e+18
14402.0	1.847544479376998e+18
14403.0	1.8468825896845307e+18
14404.0	1.844629162950655e+18
14405.0	1.8449257136652268e+18
14406.0	1.8461045311930363e+18
14407.0	1.8454939781038077e+18
14408.0	1.845429915982233e+18
14409.0	1.8451063757602816e+18
14410.0	1.8447674424426493e+18
14411.0	1.8444281316376576e+18
14412.0	1.844080274518835e+18
14413.0	1.843707124069171e+18
14414.0	1.8433094335856635e+18
14415.0	1.8429607074070525e+18
14416.0	1.842610830311424e+18
14417.0	1.8422659092054013e+18
14418.0	1.8419361077264381e+18
14419.0	1.8415927838113787e+18
14420.0	1.8412412675817464e+18
14421.0	1.8408917713289208e+18
14422.0	1.8405217800290296e+18
14423.0	1.8401037824032763e+18
14424.0	1.8385418370154488e+18
14425.0	1.8393981092102141e+18
14426.0	1.8391296116785147e+18
14427.0	1.8387897103155197e+18
14428.0	1.838422483900825e+18
14429.0	1.8380933233115133e+18
14430.0	1.8377249828896763e+18
14431.0	1.8371585169686525e+18
14432.0	1.8370261581561856e+18
14433.0	1.836467498673766e+18
14434.0	1.836351147003084e+18
14435.0	1.8360115727958013e+18
14436.0	1.8356839557103613e+18
14437.0	1.8353398281666555e+18
14438.0	1.8349681843109885e+18
14439.0	1.8346352454926339e+18
14440.0	1.8342724784619515e+18
14441.0	1.8339109344903168e+18
14442.0	1.8335588176363515e+18
14443.0	1.833179583768166e+18
14444.0	1.8328630362898427e+18
14445.0	1.8325047454203904e+18
14446.0	1.8313651228246019e+18
14447.0	1.8317516480708605e+18
14448.0	1.8314802984124413e+18
14449.0	1.8311400061403133e+18
14450.0	1.830788969739059e+18
14451.0	1.8304447381766141e+18
14452.0	1.830100783438233e+18
14453.0	1.829752530377113e+18
14454.0	1.8293755782103037e+18
14455.0	1.8289755556937725e+18
14456.0	1.828631587533619e+18
14457.0	1.8282845189439485e+18
14458.0	1.8279479411474427e+18
14459.0	1.8276175457550333e+18
14460.0	1.8272643870359547e+18
14461.0	1.8268964660445181e+18
14462.0	1.8265423476686845e+18
14463.0	1.8262103668293627e+18
14464.0	1.8258753308590075e+18
14465.0	1.8255181774847992e+18
14466.0	1.8251905587216381e+18
14467.0	1.8248330110828544e+18
14468.0	1.824499902814617e+18
14469.0	1.8241368321163261e+18
14470.0	1.8237907030507517e+18
14471.0	1.8234658038743035e+18
14472.0	1.8231242633773056e+18
14473.0	1.8227837681008637e+18
14474.0	1.8224419826565115e+18
14475.0	1.822093167558656e+18
14476.0	1.8217299374768125e+18
14477.0	1.821397845907865e+18
14478.0	1.8210517873065984e+18
14479.0	1.8207066128646141e+18
14480.0	1.8203476290961403e+18
14481.0	1.8200193409220603e+18
14482.0	1.8196758626566141e+18
14483.0	1.8193443465461755e+18
14484.0	1.8189885571596285e+18
14485.0	1.8186096387031037e+18
14486.0	1.818085552029696e+18
14487.0	1.817960006444646e+18
14488.0	1.8176193903722493e+18
14489.0	1.8172527813591037e+18
14490.0	1.8168992082427904e+18
14491.0	1.8165623888543736e+18
14492.0	1.8162197947482112e+18
14493.0	1.815863944963686e+18
14494.0	1.81550872264704e+18
14495.0	1.8151715576479741e+18
14496.0	1.8147421112500221e+18
14497.0	1.8144908573409277e+18
14498.0	1.814153999364915e+18
14499.0	1.8138106167295997e+18
14500.0	1.8134651285536765e+18
14501.0	1.8130957697548285e+18
14502.0	1.8126013384884221e+18
14503.0	1.812416215331635e+18
14504.0	1.812013979900313e+18
14505.0	1.8116573835296765e+18
14506.0	1.811290937255526e+18
14507.0	1.8107892682981376e+18
14508.0	1.8106520273158141e+18
14509.0	1.8103237240422397e+18
14510.0	1.8099792307552256e+18
14511.0	1.8096365645070333e+18
14512.0	1.8092799312265213e+18
14513.0	1.8089361073504253e+18
14514.0	1.808568137705062e+18
14515.0	1.8081990641188861e+18
14516.0	1.8058271701073928e+18
14517.0	1.8074182877183997e+18
14518.0	1.8072113709580285e+18
14519.0	1.8068799622217728e+18
14520.0	1.806542012048998e+18
14521.0	1.8062006980444155e+18
14522.0	1.8058551125606397e+18
14523.0	1.8054915419013117e+18
14524.0	1.8051545631293437e+18
14525.0	1.8048270483849213e+18
14526.0	1.8044862343413755e+18
14527.0	1.804108849322393e+18
14528.0	1.803705214671257e+18
14529.0	1.8034515498762237e+18
14530.0	1.803106318391705e+18
14531.0	1.8027760890937336e+18
14532.0	1.802412870755942e+18
14533.0	1.8020845607714813e+18
14534.0	1.8017456861741053e+18
14535.0	1.8013927019380739e+18
14536.0	1.8010566090031104e+18
14537.0	1.8007087032303613e+18
14538.0	1.800378155165286e+18
14539.0	1.80005962294231e+18
14540.0	1.7997173811576832e+18
14541.0	1.7993528005099517e+18
14542.0	1.7990283207639035e+18
14543.0	1.7986674579472381e+18
14544.0	1.7983377252548603e+18
14545.0	1.7979588437082107e+18
14546.0	1.7957941952905206e+18
14547.0	1.795477834039295e+18
14548.0	1.7968831456608253e+18
14549.0	1.796497187484467e+18
14550.0	1.796242299630387e+18
14551.0	1.7959215259713533e+18
14552.0	1.7955811313582077e+18
14553.0	1.7952360189919227e+18
14554.0	1.7949013974188032e+18
14555.0	1.7945594324582397e+18
14556.0	1.7942159105720317e+18
14557.0	1.7938673706205181e+18
14558.0	1.79347239469056e+18
14559.0	1.7916367390900209e+18
14560.0	1.792736581228953e+18
14561.0	1.7924178460016637e+18
14562.0	1.7920630313713661e+18
14563.0	1.7917442609119232e+18
14564.0	1.7914172662611965e+18
14565.0	1.791103715193651e+18
14566.0	1.79076463591424e+18
14567.0	1.790422585389875e+18
14568.0	1.7900723240959997e+18
14569.0	1.789712343760896e+18
14570.0	1.788967388394291e+18
14571.0	1.7890360592171005e+18
14572.0	1.7886783857491963e+18
14573.0	1.7883244334678016e+18
14574.0	1.7880160715931643e+18
14575.0	1.7876845588381693e+18
14576.0	1.7873388525584384e+18
14577.0	1.787009537618739e+18
14578.0	1.7866737215078395e+18
14579.0	1.786337224241971e+18
14580.0	1.785997665134182e+18
14581.0	1.7856539939307515e+18
14582.0	1.785311227019264e+18
14583.0	1.7849763856646136e+18
14584.0	1.7846239315886077e+18
14585.0	1.7842960645226493e+18
14586.0	1.7839584566050813e+18
14587.0	1.7836208822419456e+18
14588.0	1.783281797929369e+18
14589.0	1.78294376890368e+18
14590.0	1.7826064210329597e+18
14591.0	1.7822669307117565e+18
14592.0	1.7819108577902587e+18
14593.0	1.7814995190415355e+18
14594.0	1.7812410576404475e+18
14595.0	1.7809010757468155e+18
14596.0	1.7804261261836288e+18
14597.0	1.7800524304744443e+18
14598.0	1.779864094480793e+18
14599.0	1.7795503219539965e+18
14600.0	1.7792133985468416e+18
14601.0	1.7788755255492603e+18
14602.0	1.778534485013299e+18
14603.0	1.7782000983212032e+18
14604.0	1.7778497078427648e+18
14605.0	1.7775280835788797e+18
14606.0	1.7771336428421115e+18
14607.0	1.7768659204177912e+18
14608.0	1.776529320810905e+18
14609.0	1.776189553665638e+18
14610.0	1.7758407402455035e+18
14611.0	1.7754753895235581e+18
14612.0	1.7751495810220024e+18
14613.0	1.7748142447394813e+18
14614.0	1.7744720331538427e+18
14615.0	1.7741385826304e+18
14616.0	1.7738022111936507e+18
14617.0	1.77345456546775e+18
14618.0	1.7731002977746941e+18
14619.0	1.7725862824640507e+18
14620.0	1.7721297442177021e+18
14621.0	1.772094339258777e+18
14622.0	1.771772470047539e+18
14623.0	1.771440059711488e+18
14624.0	1.7710658019655677e+18
14625.0	1.770710302824857e+18
14626.0	1.7703472505815037e+18
14627.0	1.7700112163667965e+18
14628.0	1.7696786516803581e+18
14629.0	1.769358748758835e+18
14630.0	1.7690334452514813e+18
14631.0	1.7686949229756416e+18
14632.0	1.7682558615551997e+18
14633.0	1.7679903017140221e+18
14634.0	1.76767801229312e+18
14635.0	1.7673265413619707e+18
14636.0	1.766947376280371e+18
14637.0	1.7666712400822264e+18
14638.0	1.7663246529986557e+18
14639.0	1.765981032126873e+18
14640.0	1.765634146408857e+18
14641.0	1.7649160027111416e+18
14642.0	1.7649586201952253e+18
14643.0	1.764645181535027e+18
14644.0	1.7642986431053821e+18
14645.0	1.7639572770914304e+18
14646.0	1.7636232628535296e+18
14647.0	1.7632848445964285e+18
14648.0	1.7629561856458747e+18
