# Flux units: erg / (cm m2 s)
# Wavelength units: Angstrom
wave	flux
14000.0	1.745631797523251e+18
14001.0	1.7452070856556536e+18
14002.0	1.744792263956889e+18
14003.0	1.7443730231394304e+18
14004.0	1.7439523042492416e+18
14005.0	1.7435316122025981e+18
14006.0	1.7431119083339776e+18
14007.0	1.7426931456671741e+18
14008.0	1.7422661688754176e+18
14009.0	1.7418560296976381e+18
14010.0	1.7414362587201528e+18
14011.0	1.7409707345969147e+18
14012.0	1.7406005805580285e+18
14013.0	1.7401824436813821e+18
14014.0	1.7397643588141053e+18
14015.0	1.7393461917384704e+18
14016.0	1.7389285749555195e+18
14017.0	1.73851085415383e+18
14018.0	1.7380929102151675e+18
14019.0	1.7376758001041405e+18
14020.0	1.7372583829700605e+18
14021.0	1.736841123541811e+18
14022.0	1.7364237819052032e+18
14023.0	1.7360036602839037e+18
14024.0	1.735585206317875e+18
14025.0	1.7351704282398715e+18
14026.0	1.7347537157488637e+18
14027.0	1.7343373790674936e+18
14028.0	1.733921049097011e+18
14029.0	1.733503752758886e+18
14030.0	1.7329590603087872e+18
14031.0	1.7326695845462008e+18
14032.0	1.732255621840896e+18
14033.0	1.7318346043162621e+18
14034.0	1.731424220191129e+18
14035.0	1.7310088196784125e+18
14036.0	1.7305934426537981e+18
14037.0	1.7301774733934587e+18
14038.0	1.7297630778359803e+18
14039.0	1.7293480816541693e+18
14040.0	1.7289319915978747e+18
14041.0	1.7285180741910525e+18
14042.0	1.7281029941231613e+18
14043.0	1.727685947765555e+18
14044.0	1.7272740570464253e+18
14045.0	1.7268606547001344e+18
14046.0	1.7264450646048765e+18
14047.0	1.7260289191837693e+18
14048.0	1.7256152333025277e+18
14049.0	1.7252017219043325e+18
14050.0	1.7247880695775227e+18
14051.0	1.7243737797165053e+18
14052.0	1.723961103823667e+18
14053.0	1.7235477148991488e+18
14054.0	1.723134658163507e+18
14055.0	1.7227211668979712e+18
14056.0	1.72230868729856e+18
14057.0	1.7218958352449539e+18
14058.0	1.7214832046505984e+18
14059.0	1.7210706529091581e+18
14060.0	1.7206582169305088e+18
14061.0	1.720245317900697e+18
14062.0	1.7198337140719608e+18
14063.0	1.7194202798489597e+18
14064.0	1.7189918082072576e+18
14065.0	1.7185971913097216e+18
14066.0	1.7181860454989821e+18
14067.0	1.7177706953179133e+18
14068.0	1.7173631213764603e+18
14069.0	1.7169513917186043e+18
14070.0	1.7165405176987643e+18
14071.0	1.7161272982241275e+18
14072.0	1.7157154511257597e+18
14073.0	1.715304587172249e+18
14074.0	1.7148938440146941e+18
14075.0	1.7144815758082048e+18
14076.0	1.714068275802931e+18
14077.0	1.7136316672114685e+18
14078.0	1.7132497389223933e+18
14079.0	1.7128408546803707e+18
14080.0	1.712431413434777e+18
14081.0	1.7120214856499195e+18
14082.0	1.7116091838889981e+18
14083.0	1.711201948847308e+18
14084.0	1.7107925814214653e+18
14085.0	1.7103440341630976e+18
14086.0	1.709971578290176e+18
14087.0	1.7095647291244544e+18
14088.0	1.7091544204967933e+18
14089.0	1.7087428066017275e+18
14090.0	1.7083374153760765e+18
14091.0	1.7079292928196605e+18
14092.0	1.707520729022464e+18
14093.0	1.7071122625331197e+18
14094.0	1.7067039537496061e+18
14095.0	1.7062957842169853e+18
14096.0	1.7058808383668221e+18
14097.0	1.7054738583388152e+18
14098.0	1.7050648214241277e+18
14099.0	1.7046583950442496e+18
14100.0	1.7042499402989563e+18
14101.0	1.7038433964785661e+18
14102.0	1.70343594501079e+18
14103.0	1.7030276899143677e+18
14104.0	1.702621679609446e+18
14105.0	1.70221380871127e+18
14106.0	1.7018077732405243e+18
14107.0	1.7013984544686075e+18
14108.0	1.7009933585219581e+18
14109.0	1.7005874404917248e+18
14110.0	1.7001787424767995e+18
14111.0	1.6997697844150267e+18
14112.0	1.699368912971366e+18
14113.0	1.6989629781639165e+18
14114.0	1.69855545287639e+18
14115.0	1.6981511504920568e+18
14116.0	1.6977317989449723e+18
14117.0	1.6971371791777795e+18
14118.0	1.6969342906269688e+18
14119.0	1.696525981843456e+18
14120.0	1.6961207080583165e+18
14121.0	1.69571758678999e+18
14122.0	1.6953098735976443e+18
14123.0	1.6949020849078267e+18
14124.0	1.6944961618444285e+18
14125.0	1.6940612326522877e+18
14126.0	1.693693484466176e+18
14127.0	1.6932909638221821e+18
14128.0	1.6928866111062013e+18
14129.0	1.6924816057565181e+18
14130.0	1.6920748857753597e+18
14131.0	1.691671699075891e+18
14132.0	1.6912679151075325e+18
14133.0	1.690819297384857e+18
14134.0	1.690460644127539e+18
14135.0	1.690055499526963e+18
14136.0	1.6896371562905597e+18
14137.0	1.689250602523033e+18
14138.0	1.6888446559715325e+18
14139.0	1.688444727407411e+18
14140.0	1.6880373564702715e+18
14141.0	1.687639043552051e+18
14142.0	1.6872159255199741e+18
14143.0	1.6868243067109376e+18
14144.0	1.6864318003871744e+18
14145.0	1.686029561600409e+18
14146.0	1.685627287581491e+18
14147.0	1.6852251595243515e+18
14148.0	1.6848223436013568e+18
14149.0	1.6844198498009085e+18
14150.0	1.6840200319664123e+18
14151.0	1.6836157765582843e+18
14152.0	1.6832171918491648e+18
14153.0	1.6828158674206723e+18
14154.0	1.6824125062381565e+18
14155.0	1.6818896325574653e+18
14156.0	1.681608473260851e+18
14157.0	1.6812116702920704e+18
14158.0	1.6808098542911488e+18
14159.0	1.6804103619346432e+18
14160.0	1.680009998840627e+18
14161.0	1.679604374411673e+18
14162.0	1.6792006474858496e+18
14163.0	1.6788092652355581e+18
14164.0	1.6784014933229565e+18
14165.0	1.677962675172147e+18
14166.0	1.6776074981539835e+18
14167.0	1.6772059187118077e+18
14168.0	1.6768059347828733e+18
14169.0	1.676408177190502e+18
14170.0	1.6760077302104061e+18
14171.0	1.67560875123671e+18
14172.0	1.675210629578752e+18
14173.0	1.67479077807063e+18
14174.0	1.6744121297272832e+18
14175.0	1.674014113765785e+18
14176.0	1.6736138731454461e+18
14177.0	1.6732165400166397e+18
14178.0	1.6728181365014528e+18
14179.0	1.6724158574493696e+18
14180.0	1.672022260606566e+18
14181.0	1.6716242429673472e+18
14182.0	1.6712262756597757e+18
14183.0	1.67082854491095e+18
14184.0	1.670430450096537e+18
14185.0	1.6700333149388795e+18
14186.0	1.6695963120828416e+18
14187.0	1.669236539785216e+18
14188.0	1.6688412635430907e+18
14189.0	1.6684433918656507e+18
14190.0	1.6680469663842304e+18
14191.0	1.667649946989363e+18
14192.0	1.6672529745707005e+18
14193.0	1.6668505109692413e+18
14194.0	1.6664600866979837e+18
14195.0	1.6660641494335485e+18
14196.0	1.665667844748083e+18
14197.0	1.6652716877021181e+18
14198.0	1.6648752202776576e+18
14199.0	1.664478856871936e+18
14200.0	1.66406070992896e+18
14201.0	1.6636879403220992e+18
14202.0	1.6632926456250365e+18
14203.0	1.662892161735065e+18
14204.0	1.6625015243931643e+18
14205.0	1.6621063387480061e+18
14206.0	1.6617004240732157e+18
14207.0	1.6613135481831421e+18
14208.0	1.660918684660531e+18
14209.0	1.6605123924983803e+18
14210.0	1.6601224279228413e+18
14211.0	1.6597346276081661e+18
14212.0	1.6593401717719037e+18
14213.0	1.6589450599464957e+18
14214.0	1.6585516627525632e+18
14215.0	1.6581561784729597e+18
14216.0	1.657763673826918e+18
14217.0	1.657369774994227e+18
14218.0	1.6569750373007357e+18
14219.0	1.656582437024563e+18
14220.0	1.656188930778726e+18
14221.0	1.6557946225819643e+18
14222.0	1.655396259332096e+18
14223.0	1.655008432173875e+18
14224.0	1.65461600805847e+18
14225.0	1.6541585437097984e+18
14226.0	1.6538302421139453e+18
14227.0	1.653437556273971e+18
14228.0	1.652890660975411e+18
14229.0	1.6526349778812925e+18
14230.0	1.6522601144778747e+18
14231.0	1.6518618871234557e+18
14232.0	1.6514757158764541e+18
14233.0	1.6510830300364797e+18
14234.0	1.6506917836816384e+18
14235.0	1.6502997454422016e+18
14236.0	1.649908029325312e+18
14237.0	1.649516527956787e+18
14238.0	1.6491251272515581e+18
14239.0	1.6487329162067965e+18
14240.0	1.648226841552486e+18
14241.0	1.6479515979022333e+18
14242.0	1.6475606350823421e+18
14243.0	1.6471569316446203e+18
14244.0	1.6467789829111805e+18
14245.0	1.6463868825960448e+18
14246.0	1.6459947487264768e+18
14247.0	1.645607226913587e+18
14248.0	1.6452158916395005e+18
14249.0	1.6448266535174141e+18
14250.0	1.6444365211697147e+18
14251.0	1.644046761276211e+18
14252.0	1.6436569040748541e+18
14253.0	1.6432671022383104e+18
14254.0	1.6428773087903741e+18
14255.0	1.6424834636447741e+18
14256.0	1.642048821343027e+18
14257.0	1.641706044365209e+18
14258.0	1.6413172676165624e+18
14259.0	1.6409268886437885e+18
14260.0	1.640537715952844e+18
14261.0	1.640148570105446e+18
14262.0	1.6397638869975035e+18
14263.0	1.6393055804325885e+18
14264.0	1.6389770104012797e+18
14265.0	1.6385961239773181e+18
14266.0	1.638210075203993e+18
14267.0	1.6378217581510653e+18
14268.0	1.6374338420735995e+18
14269.0	1.6370457062146048e+18
14270.0	1.6366580703166461e+18
14271.0	1.6362696039464952e+18
14272.0	1.63588255860654e+18
14273.0	1.6354951944994808e+18
14274.0	1.6350070530113533e+18
14275.0	1.6347116297256957e+18
14276.0	1.6343284465008637e+18
14277.0	1.633943622464307e+18
14278.0	1.63355942757335e+18
14279.0	1.6331725734936576e+18
14280.0	1.6327852177752067e+18
14281.0	1.632399279731507e+18
14282.0	1.6320128148832253e+18
14283.0	1.631626442309632e+18
14284.0	1.6312401787879424e+18
14285.0	1.630854019284992e+18
14286.0	1.6304676601331707e+18
14287.0	1.6300820240793597e+18
14288.0	1.6296961984430077e+18
14289.0	1.6292366570749947e+18
14290.0	1.6289239197024253e+18
14291.0	1.6285392768598013e+18
14292.0	1.628154098823987e+18
14293.0	1.6277686708076541e+18
14294.0	1.6273718711943165e+18
14295.0	1.6269973299134461e+18
14296.0	1.6265538527297539e+18
14297.0	1.6262289552310267e+18
14298.0	1.6258146284601341e+18
14299.0	1.625457652924416e+18
14300.0	1.6250745116426235e+18
14301.0	1.6246898352455675e+18
14302.0	1.6243057879941115e+18
14303.0	1.6239184909959163e+18
14304.0	1.6235368428863485e+18
14305.0	1.6231533643825147e+18
14306.0	1.622758373353062e+18
14307.0	1.622383446196224e+18
14308.0	1.6220027191558141e+18
14309.0	1.621618391724851e+18
14310.0	1.6211859606601725e+18
14311.0	1.6208086310060032e+18
14312.0	1.6204603678785528e+18
14313.0	1.6200780872679421e+18
14314.0	1.6196997912461312e+18
14315.0	1.6193179468431357e+18
14316.0	1.6189310105550848e+18
14317.0	1.6185417120350203e+18
14318.0	1.6181702091079672e+18
14319.0	1.6177878798434304e+18
14320.0	1.6174055690338304e+18
14321.0	1.617023447806771e+18
14322.0	1.6166376104263675e+18
14323.0	1.6162583732027392e+18
14324.0	1.615876867699507e+18
14325.0	1.6154950786613243e+18
14326.0	1.6151143482654715e+18
14327.0	1.614732720288563e+18
14328.0	1.6143509429944315e+18
14329.0	1.6139701857550333e+18
14330.0	1.613589017473843e+18
14331.0	1.6132078508703741e+18
14332.0	1.6128269996785656e+18
14333.0	1.6124461702971392e+18
14334.0	1.612065439901286e+18
14335.0	1.6116817231609853e+18
14336.0	1.6112956358000635e+18
14337.0	1.610923856048947e+18
14338.0	1.6105434544865275e+18
14339.0	1.6101624221007872e+18
14340.0	1.6097833643933693e+18
14341.0	1.609402774926131e+18
14342.0	1.6090235377025021e+18
14343.0	1.6086417067212797e+18
14344.0	1.6082631137427456e+18
14345.0	1.6078847657115648e+18
14346.0	1.6075052315312125e+18
14347.0	1.6071223939170301e+18
14348.0	1.6067466497097723e+18
14349.0	1.6063678738595837e+18
14350.0	1.6059838349967357e+18
14351.0	1.6056048712417275e+18
14352.0	1.6052309674950653e+18
14353.0	1.6048524902793208e+18
14354.0	1.6044734543822843e+18
14355.0	1.604094153405235e+18
14356.0	1.603715634246451e+18
14357.0	1.6033374606983163e+18
14358.0	1.6029593492258816e+18
14359.0	1.602579979462246e+18
14360.0	1.602203049105817e+18
14361.0	1.601825561745817e+18
14362.0	1.6014480022437888e+18
14363.0	1.6010703404007421e+18
14364.0	1.6006739937722363e+18
14365.0	1.6003135134760963e+18
14366.0	1.5999354338803712e+18
14367.0	1.5995612382101504e+18
14368.0	1.599184161891942e+18
14369.0	1.5988072768339963e+18
14370.0	1.5984304706289661e+18
14371.0	1.598053796963942e+18
14372.0	1.5976768464748544e+18
14373.0	1.597300667737702e+18
14374.0	1.596922814634393e+18
14375.0	1.596545241710592e+18
14376.0	1.5961691468595197e+18
14377.0	1.5957930285203456e+18
14378.0	1.595416893403955e+18
14379.0	1.5950412649594875e+18
14380.0	1.5946654905532416e+18
14381.0	1.5942887950778363e+18
14382.0	1.5939141363564544e+18
14383.0	1.5935356020981757e+18
14384.0	1.5931616295649277e+18
14385.0	1.5927883767742467e+18
14386.0	1.5924119866441728e+18
14387.0	1.5920382489919488e+18
14388.0	1.5916631792287741e+18
14389.0	1.5912885238628347e+18
14390.0	1.590913719179673e+18
14391.0	1.590539192998297e+18
14392.0	1.5901624874565632e+18
14393.0	1.5897905181229056e+18
14394.0	1.5894130609618944e+18
14395.0	1.589029914646937e+18
14396.0	1.588666469816729e+18
14397.0	1.5882930710642685e+18
14398.0	1.5879176187805693e+18
14399.0	1.587545362556518e+18
14400.0	1.5871638083993595e+18
14401.0	1.586797858730803e+18
14402.0	1.586424933095833e+18
14403.0	1.5853219485843438e+18
14404.0	1.5837462324576253e+18
14405.0	1.5852022062383094e+18
14406.0	1.5849324135055352e+18
14407.0	1.5834463430770693e+18
14408.0	1.5841811113181181e+18
14409.0	1.5838124185747456e+18
14410.0	1.5834398335172603e+18
14411.0	1.5830684698411005e+18
14412.0	1.5826965239955453e+18
14413.0	1.5823244254773248e+18
14414.0	1.5819522179071997e+18
14415.0	1.5815802888388603e+18
14416.0	1.5812074571563003e+18
14417.0	1.5808310905143293e+18
14418.0	1.580457748804403e+18
14419.0	1.580093188289331e+18
14420.0	1.5797213934387197e+18
14421.0	1.579350346851942e+18
14422.0	1.5789790972608512e+18
14423.0	1.5786073711968256e+18
14424.0	1.573686903989859e+18
14425.0	1.577865408885555e+18
14426.0	1.577494850515763e+18
14427.0	1.5771242552360952e+18
14428.0	1.5767503380676605e+18
14429.0	1.5763828247625725e+18
14430.0	1.576012573415833e+18
14431.0	1.5756130105950205e+18
14432.0	1.575268378057113e+18
14433.0	1.574072993028505e+18
14434.0	1.5745308835184635e+18
14435.0	1.5741568791085053e+18
14436.0	1.5737920417693693e+18
14437.0	1.5734223155494907e+18
14438.0	1.573027529202073e+18
14439.0	1.5726779373191165e+18
14440.0	1.5723136737607675e+18
14441.0	1.5719438049345539e+18
14442.0	1.5715742246764541e+18
14443.0	1.571202085892915e+18
14444.0	1.5708367267823613e+18
14445.0	1.5704681514795005e+18
14446.0	1.5692279545069568e+18
14447.0	1.5697296066871293e+18
14448.0	1.569362143713689e+18
14449.0	1.5689936606855165e+18
14450.0	1.568625246443929e+18
14451.0	1.5682566610747392e+18
14452.0	1.5678857503834107e+18
14453.0	1.5675019447238653e+18
14454.0	1.567149977187123e+18
14455.0	1.5667817810493437e+18
14456.0	1.5664110179975165e+18
14457.0	1.5660412582232064e+18
14458.0	1.5656737180745728e+18
14459.0	1.5653079781212157e+18
14460.0	1.5649439880314877e+18
14461.0	1.564573800438169e+18
14462.0	1.564174034613043e+18
14463.0	1.563841944721817e+18
14464.0	1.563475778627174e+18
14465.0	1.5631073509638141e+18
14466.0	1.5627420606398464e+18
14467.0	1.5623638988357632e+18
14468.0	1.5620080826056701e+18
14469.0	1.5616397237288957e+18
14470.0	1.5612737136623613e+18
14471.0	1.5609081314148347e+18
14472.0	1.560543272265318e+18
14473.0	1.5601778930221053e+18
14474.0	1.5598120020738048e+18
14475.0	1.5594455910318077e+18
14476.0	1.559026440811315e+18
14477.0	1.558714639607398e+18
14478.0	1.5583489751515133e+18
14479.0	1.5579827973128192e+18
14480.0	1.557616985217433e+18
14481.0	1.557253248463667e+18
14482.0	1.556887810500198e+18
14483.0	1.5565221426888701e+18
14484.0	1.5561577851781115e+18
14485.0	1.5557896746041341e+18
14486.0	1.5554038238019581e+18
14487.0	1.5550637345341437e+18
14488.0	1.5546908172877821e+18
14489.0	1.5543318754623485e+18
14490.0	1.553969485919027e+18
14491.0	1.5536063967657981e+18
14492.0	1.5532418513502203e+18
14493.0	1.552877309290086e+18
14494.0	1.552512351154995e+18
14495.0	1.5521506058567677e+18
14496.0	1.551775499183718e+18
14497.0	1.551423182680883e+18
14498.0	1.551059450960281e+18
14499.0	1.5506962611437565e+18
14500.0	1.5503328851001341e+18
14501.0	1.5499456904429563e+18
14502.0	1.549561842840371e+18
14503.0	1.5492399333638141e+18
14504.0	1.5488801375780867e+18
14505.0	1.548495134025318e+18
14506.0	1.5481012888797184e+18
14507.0	1.5477720007835648e+18
14508.0	1.547429792553369e+18
14509.0	1.5470673325457405e+18
14510.0	1.5467049815900157e+18
14511.0	1.5463427229089792e+18
14512.0	1.5459791371501563e+18
14513.0	1.5456182307127293e+18
14514.0	1.5452471270834173e+18
14515.0	1.544893587521536e+18
14516.0	1.5443523796992e+18
14517.0	1.544170927397273e+18
14518.0	1.5438093196722173e+18
14519.0	1.543447873008435e+18
14520.0	1.5430864850649085e+18
14521.0	1.5427244075778048e+18
14522.0	1.5423633987993597e+18
14523.0	1.5419455035146237e+18
14524.0	1.5415838051926013e+18
14525.0	1.5412805100371963e+18
14526.0	1.540920160603341e+18
14527.0	1.5405547108958203e+18
14528.0	1.5401819664547835e+18
14529.0	1.5398374127697915e+18
14530.0	1.539476476133376e+18
14531.0	1.5391173732466685e+18
14532.0	1.5386611218907133e+18
14533.0	1.5383970451554296e+18
14534.0	1.538037111796531e+18
14535.0	1.537676004032512e+18
14536.0	1.537317223268352e+18
14537.0	1.536956377228902e+18
14538.0	1.5365976065310715e+18
14539.0	1.5362382687633405e+18
14540.0	1.5358787783229437e+18
14541.0	1.535518096700211e+18
14542.0	1.5351577506217981e+18
14543.0	1.5347628636110843e+18
14544.0	1.5344391891714048e+18
14545.0	1.534079316210483e+18
14546.0	1.528466072456393e+18
14547.0	1.5287407003828178e+18
14548.0	1.5330024185921533e+18
14549.0	1.5326350093058048e+18
14550.0	1.5322864508993539e+18
14551.0	1.5319280207790075e+18
14552.0	1.5315687786414075e+18
14553.0	1.5312099391569915e+18
14554.0	1.530853183402803e+18
14555.0	1.5304949193768952e+18
14556.0	1.5301355514101757e+18
14557.0	1.5297791278448637e+18
14558.0	1.5294212580835323e+18
14559.0	1.5289149955244024e+18
14560.0	1.528690759643955e+18
14561.0	1.5283478551592957e+18
14562.0	1.5279881617145853e+18
14563.0	1.527633581965312e+18
14564.0	1.5272730983137275e+18
14565.0	1.5269191225442301e+18
14566.0	1.5265620111130627e+18
14567.0	1.5262049902788603e+18
14568.0	1.5258362287489021e+18
14569.0	1.5254912573112315e+18
14570.0	1.52509247127552e+18
14571.0	1.524777549509427e+18
14572.0	1.5244143261384701e+18
14573.0	1.5240598906732541e+18
14574.0	1.5236990362451965e+18
14575.0	1.5233511489273856e+18
14576.0	1.5229956598530048e+18
14577.0	1.5226396825616384e+18
14578.0	1.5222834435457021e+18
14579.0	1.5219275417518077e+18
14580.0	1.5215717808865277e+18
14581.0	1.5212130068332541e+18
14582.0	1.5208602054688765e+18
14583.0	1.5205046308306941e+18
14584.0	1.520147599930163e+18
14585.0	1.5197936157720573e+18
14586.0	1.5194379320819707e+18
14587.0	1.5190817819852797e+18
14588.0	1.5187288111710203e+18
14589.0	1.5183872471859197e+18
14590.0	1.518047542116352e+18
14591.0	1.5177073538629632e+18
14592.0	1.5173681655316477e+18
14593.0	1.5170187430985725e+18
14594.0	1.5166893576945664e+18
14595.0	1.5163494412320763e+18
14596.0	1.5159923633553405e+18
14597.0	1.515654544044851e+18
14598.0	1.5153310860312573e+18
14599.0	1.514993169412915e+18
14600.0	1.514653554940313e+18
14601.0	1.5143150913847293e+18
14602.0	1.513972529155276e+18
14603.0	1.5136370771099648e+18
14604.0	1.513293670986547e+18
14605.0	1.5129549389955067e+18
14606.0	1.5126120227667965e+18
14607.0	1.5122826239410173e+18
14608.0	1.5119436000264192e+18
14609.0	1.5115996452880381e+18
14610.0	1.5112577877016573e+18
14611.0	1.5109285163827197e+18
14612.0	1.510590945375027e+18
14613.0	1.5102528442073085e+18
14614.0	1.5099144158838784e+18
14615.0	1.509573549830963e+18
14616.0	1.5092386682109947e+18
14617.0	1.5089007062941693e+18
14618.0	1.5085582531166205e+18
14619.0	1.5082171186282493e+18
14620.0	1.5078436879990781e+18
14621.0	1.5075495515258877e+18
14622.0	1.50721190166528e+18
14623.0	1.506874313880371e+18
14624.0	1.5065318372147197e+18
14625.0	1.5061992893054973e+18
14626.0	1.5058603761205243e+18
14627.0	1.5055212632866813e+18
14628.0	1.505187180262195e+18
14629.0	1.5048499062112253e+18
14630.0	1.5045123989569536e+18
14631.0	1.5041748766031872e+18
14632.0	1.5034718055563264e+18
14633.0	1.5034657775026176e+18
14634.0	1.5031631333031936e+18
14635.0	1.5027210553393142e+18
14636.0	1.5020839053295613e+18
14637.0	1.5021536314392573e+18
14638.0	1.5018162214928384e+18
14639.0	1.5014787998023675e+18
14640.0	1.5011428897390587e+18
14641.0	1.4994085836226542e+18
14642.0	1.5004695026204667e+18
14643.0	1.500133293922713e+18
14644.0	1.499795585341849e+18
14645.0	1.4994582408265725e+18
14646.0	1.499118777348915e+18
14647.0	1.498782600527872e+18
14648.0	1.4984505173475325e+18
