# Flux units: erg / (cm m2 s)
# Wavelength units: Angstrom
wave	flux
14000.0	2.4318756155031547e+18
14001.0	2.431499272349286e+18
14002.0	2.431021259266457e+18
14003.0	2.4305060594843643e+18
14004.0	2.4299889974312955e+18
14005.0	2.429471229057433e+18
14006.0	2.428949455962112e+18
14007.0	2.428428852238745e+18
14008.0	2.427864169735782e+18
14009.0	2.4273917971529723e+18
14010.0	2.426868965415321e+18
14011.0	2.4260398639218683e+18
14012.0	2.4258405203967995e+18
14013.0	2.425330335324569e+18
14014.0	2.4248100956667904e+18
14015.0	2.424296152498175e+18
14016.0	2.423780550062899e+18
14017.0	2.4232641641316347e+18
14018.0	2.4227475886178294e+18
14019.0	2.4222311993311227e+18
14020.0	2.4217143537041403e+18
14021.0	2.4211975483424763e+18
14022.0	2.420680560109158e+18
14023.0	2.420154233677414e+18
14024.0	2.4196400606609403e+18
14025.0	2.4191339709071355e+18
14026.0	2.4186179507191803e+18
14027.0	2.4181029220646907e+18
14028.0	2.417586140191129e+18
14029.0	2.4170623118868475e+18
14030.0	2.415809325642547e+18
14031.0	2.4159428521492475e+18
14032.0	2.415521445393203e+18
14033.0	2.414982994067456e+18
14034.0	2.4144981946007547e+18
14035.0	2.4139853234962427e+18
14036.0	2.413471771236761e+18
14037.0	2.4129580629491707e+18
14038.0	2.412444351306137e+18
14039.0	2.411927601309286e+18
14040.0	2.411413716860927e+18
14041.0	2.410902072170905e+18
14042.0	2.4103834867466235e+18
14043.0	2.409855685597593e+18
14044.0	2.4093582310768635e+18
14045.0	2.408848841244672e+18
14046.0	2.4083336414625787e+18
14047.0	2.4078183695384576e+18
14048.0	2.4073118251220987e+18
14049.0	2.40680013177815e+18
14050.0	2.406287814321766e+18
14051.0	2.4057709552730107e+18
14052.0	2.4052596578713595e+18
14053.0	2.4047515045199867e+18
14054.0	2.4042398128537595e+18
14055.0	2.4037281329315835e+18
14056.0	2.403216568772198e+18
14057.0	2.4027051270864896e+18
14058.0	2.402193797808128e+18
14059.0	2.4016825675153403e+18
14060.0	2.401171409364582e+18
14061.0	2.4006569091923963e+18
14062.0	2.4001489873666043e+18
14063.0	2.399627695777382e+18
14064.0	2.3990134483451904e+18
14065.0	2.398612511470387e+18
14066.0	2.3981074266718203e+18
14067.0	2.397590039140761e+18
14068.0	2.397087231010406e+18
14069.0	2.396576200366489e+18
14070.0	2.396067003472281e+18
14071.0	2.395556380514713e+18
14072.0	2.395048341248409e+18
14073.0	2.394538862496973e+18
14074.0	2.394029360257433e+18
14075.0	2.3935073992572923e+18
14076.0	2.393000069667225e+18
14077.0	2.3923299138404347e+18
14078.0	2.3919751478640635e+18
14079.0	2.391479236847206e+18
14080.0	2.3909756401876987e+18
14081.0	2.390467657963929e+18
14082.0	2.389958046672486e+18
14083.0	2.3894471653457915e+18
14084.0	2.388928791314432e+18
14085.0	2.388214051713843e+18
14086.0	2.387895819803033e+18
14087.0	2.387410278783385e+18
14088.0	2.3868959799377915e+18
14089.0	2.3863912625602555e+18
14090.0	2.3858899341803515e+18
14091.0	2.3853839702556667e+18
14092.0	2.384877190958285e+18
14093.0	2.3843700996046843e+18
14094.0	2.3838625871429627e+18
14095.0	2.3833533600497664e+18
14096.0	2.382826016918733e+18
14097.0	2.38231802127319e+18
14098.0	2.3818249539944443e+18
14099.0	2.3813291788730363e+18
14100.0	2.380819052521062e+18
14101.0	2.380320185358745e+18
14102.0	2.3798146274426875e+18
14103.0	2.3793021036265467e+18
14104.0	2.3788039847280635e+18
14105.0	2.3782985576742907e+18
14106.0	2.377793444354457e+18
14107.0	2.3772878444953595e+18
14108.0	2.3767747099885563e+18
14109.0	2.376275339509759e+18
14110.0	2.3757704963031035e+18
14111.0	2.3752636264087547e+18
14112.0	2.374757187688857e+18
14113.0	2.374254144677478e+18
14114.0	2.373742362414285e+18
14115.0	2.3732398931836923e+18
14116.0	2.3726694493847547e+18
14117.0	2.3708897978089467e+18
14118.0	2.3717042913804283e+18
14119.0	2.3712057547292667e+18
14120.0	2.3707127646257147e+18
14121.0	2.370213892430233e+18
14122.0	2.3697173640118267e+18
14123.0	2.3692075463606267e+18
14124.0	2.368695619813375e+18
14125.0	2.367946200029593e+18
14126.0	2.367701722438041e+18
14127.0	2.3672102204735483e+18
14128.0	2.366708578359705e+18
14129.0	2.3661992489254907e+18
14130.0	2.365689773529497e+18
14131.0	2.3652020078510075e+18
14132.0	2.364686685595238e+18
14133.0	2.3638856909717494e+18
14134.0	2.363683802343014e+18
14135.0	2.3631742229282816e+18
14136.0	2.36267285596078e+18
14137.0	2.362179359185305e+18
14138.0	2.3616748884328443e+18
14139.0	2.3611810796011515e+18
14140.0	2.3606749311270907e+18
14141.0	2.360151737001574e+18
14142.0	2.3596157418602496e+18
14143.0	2.359170620509388e+18
14144.0	2.358675476211302e+18
14145.0	2.3581761006993403e+18
14146.0	2.3576761094635515e+18
14147.0	2.357176218891059e+18
14148.0	2.3566751203590144e+18
14149.0	2.356174979806003e+18
14150.0	2.3556791291871227e+18
14151.0	2.3551734689300475e+18
14152.0	2.354680618077389e+18
14153.0	2.3541813298069494e+18
14154.0	2.3536641519910907e+18
14155.0	2.353168948972749e+18
14156.0	2.3526816798998523e+18
14157.0	2.3521850071973883e+18
14158.0	2.351684351583846e+18
14159.0	2.351187564796313e+18
14160.0	2.350679617804697e+18
14161.0	2.3501575729184763e+18
14162.0	2.3496293590499323e+18
14163.0	2.3491851386355707e+18
14164.0	2.348660320475545e+18
14165.0	2.348162830722662e+18
14166.0	2.3476948504150006e+18
14167.0	2.3471927989370875e+18
14168.0	2.3467051607654395e+18
14169.0	2.346209649046323e+18
14170.0	2.3457107919503355e+18
14171.0	2.345214350773453e+18
14172.0	2.3447185169317883e+18
14173.0	2.3442023608483835e+18
14174.0	2.3437195092164603e+18
14175.0	2.343229124614553e+18
14176.0	2.3427331129343995e+18
14177.0	2.342236891539046e+18
14178.0	2.341739854770995e+18
14179.0	2.3412407141400576e+18
14180.0	2.3407486736269307e+18
14181.0	2.340252811264e+18
14182.0	2.3397564489400315e+18
14183.0	2.3392605597335547e+18
14184.0	2.3387603571048443e+18
14185.0	2.338257411401318e+18
14186.0	2.3375299194388475e+18
14187.0	2.337236848318873e+18
14188.0	2.3367807462801403e+18
14189.0	2.3362869424816123e+18
14190.0	2.3357929457451003e+18
14191.0	2.3352973534953467e+18
14192.0	2.3347974276907003e+18
14193.0	2.334272529000038e+18
14194.0	2.33381509988352e+18
14195.0	2.3333242371309563e+18
14196.0	2.332666634017177e+18
14197.0	2.3321234934595584e+18
14198.0	2.3316265506439163e+18
14199.0	2.3311320589795323e+18
14200.0	2.330499781073305e+18
14201.0	2.3301222417039355e+18
14202.0	2.329652749769113e+18
14203.0	2.329156171019059e+18
14204.0	2.3286653585981435e+18
14205.0	2.3281708551897083e+18
14206.0	2.3276078940291067e+18
14207.0	2.327183864994201e+18
14208.0	2.3266932857765883e+18
14209.0	2.3261243452162043e+18
14210.0	2.3256485752471547e+18
14211.0	2.3252125521805307e+18
14212.0	2.324724380493414e+18
14213.0	2.3242321470423035e+18
14214.0	2.323568970537369e+18
14215.0	2.323014072506777e+18
14216.0	2.3225280550141947e+18
14217.0	2.3220358534397947e+18
14218.0	2.321535073674854e+18
14219.0	2.3210515341770747e+18
14220.0	2.3205595876163584e+18
14221.0	2.3200655892021243e+18
14222.0	2.3195582663229435e+18
14223.0	2.319082739623526e+18
14224.0	2.3185869796016123e+18
14225.0	2.3176739718955003e+18
14226.0	2.3175835963883515e+18
14227.0	2.317111257359974e+18
14228.0	2.3157106819465216e+18
14229.0	2.3159074786902006e+18
14230.0	2.3156426654351355e+18
14231.0	2.3151441136844795e+18
14232.0	2.314665494944153e+18
14233.0	2.314173244715827e+18
14234.0	2.313463982876262e+18
14235.0	2.312950125271449e+18
14236.0	2.312460730525286e+18
14237.0	2.3119691916509184e+18
14238.0	2.3114779564441595e+18
14239.0	2.3109768059027456e+18
14240.0	2.30968187158528e+18
14241.0	2.309984217150259e+18
14242.0	2.3095080680161275e+18
14243.0	2.308941481299149e+18
14244.0	2.308538361708543e+18
14245.0	2.3080430110507003e+18
14246.0	2.3075528814624763e+18
14247.0	2.3070690852732923e+18
14248.0	2.306575752914534e+18
14249.0	2.3060931864952827e+18
14250.0	2.3056042027909117e+18
14251.0	2.305116475700019e+18
14252.0	2.3046271765839864e+18
14253.0	2.30413679198208e+18
14254.0	2.3036444360572923e+18
14255.0	2.3031266223849467e+18
14256.0	2.3022171462828027e+18
14257.0	2.3018076916154365e+18
14258.0	2.301427085370982e+18
14259.0	2.3009308270657533e+18
14260.0	2.3004428885819387e+18
14261.0	2.2999490931720187e+18
14262.0	2.299481998701363e+18
14263.0	2.2983836681895936e+18
14264.0	2.2982512775004152e+18
14265.0	2.2980216829771768e+18
14266.0	2.2975525181980664e+18
14267.0	2.2970686515445755e+18
14268.0	2.296582350517043e+18
14269.0	2.2960937392668664e+18
14270.0	2.2956068074160128e+18
14271.0	2.2951167868796923e+18
14272.0	2.2946218220978168e+18
14273.0	2.2940905195438077e+18
14274.0	2.2926022647218176e+18
14275.0	2.292966516536115e+18
14276.0	2.292655779007692e+18
14277.0	2.2921876225392637e+18
14278.0	2.2917126897532923e+18
14279.0	2.291227548031385e+18
14280.0	2.2907399971012598e+18
14281.0	2.2902583366516733e+18
14282.0	2.289529458891161e+18
14283.0	2.2890131786563576e+18
14284.0	2.2885269329936384e+18
14285.0	2.2880406051225592e+18
14286.0	2.2875541078015995e+18
14287.0	2.2870672850026493e+18
14288.0	2.2865736489762813e+18
14289.0	2.2855697020485622e+18
14290.0	2.285602474662297e+18
14291.0	2.2851236646617083e+18
14292.0	2.2846393550897152e+18
14293.0	2.2841512723218427e+18
14294.0	2.2835904318013437e+18
14295.0	2.2831637838430205e+18
14296.0	2.2822776901468157e+18
14297.0	2.2821882642300928e+18
14298.0	2.281537457566515e+18
14299.0	2.2812239400534008e+18
14300.0	2.2807526244351995e+18
14301.0	2.2802714572357627e+18
14302.0	2.2797894528532475e+18
14303.0	2.2792808196734973e+18
14304.0	2.278810940184985e+18
14305.0	2.2783344085303293e+18
14306.0	2.277839968875315e+18
14307.0	2.277357219584409e+18
14308.0	2.2768786713083901e+18
14309.0	2.2763413910323195e+18
14310.0	2.2755869028515832e+18
14311.0	2.275118694373785e+18
14312.0	2.274628994282291e+18
14313.0	2.2741381533401083e+18
14314.0	2.273685916771942e+18
14315.0	2.2732051673251837e+18
14316.0	2.2726961298145277e+18
14317.0	2.2722290722537467e+18
14318.0	2.2717604594450427e+18
14319.0	2.2712804783947768e+18
14320.0	2.270798242486681e+18
14321.0	2.2703157498871808e+18
14322.0	2.2698119485456376e+18
14323.0	2.2693369687834624e+18
14324.0	2.2688689834426365e+18
14325.0	2.2683794997772283e+18
14326.0	2.267905201170022e+18
14327.0	2.2674181703335933e+18
14328.0	2.2669375316164605e+18
14329.0	2.2664592165437437e+18
14330.0	2.26597742355415e+18
14331.0	2.2654954963468283e+18
14332.0	2.265013928171929e+18
14333.0	2.2645322777886717e+18
14334.0	2.2640505032540155e+18
14335.0	2.2635611672281085e+18
14336.0	2.2630402816475133e+18
14337.0	2.2626034331418621e+18
14338.0	2.2621234101485565e+18
14339.0	2.261635738422476e+18
14340.0	2.2611626091872256e+18
14341.0	2.260635732462796e+18
14342.0	2.2598993888411645e+18
14343.0	2.2594168643649533e+18
14344.0	2.258933053076275e+18
14345.0	2.2584551842775032e+18
14346.0	2.2579718712721403e+18
14347.0	2.257482914411315e+18
14348.0	2.2570093993000955e+18
14349.0	2.2565298360025083e+18
14350.0	2.256010515736166e+18
14351.0	2.2555267665231867e+18
14352.0	2.2550831937093627e+18
14353.0	2.2546085478137848e+18
14354.0	2.2541243892367355e+18
14355.0	2.2536357712756733e+18
14356.0	2.2531578588561403e+18
14357.0	2.252689200748953e+18
14358.0	2.2522101172797432e+18
14359.0	2.251718481097523e+18
14360.0	2.251247930520371e+18
14361.0	2.250769224538521e+18
14362.0	2.250290998385049e+18
14363.0	2.2498086886572027e+18
14364.0	2.2492170300686336e+18
14365.0	2.2488039833993208e+18
14366.0	2.248352424630681e+18
14367.0	2.247895671635967e+18
14368.0	2.247417338108313e+18
14369.0	2.246939148864716e+18
14370.0	2.2464607465504765e+18
14371.0	2.245982475098521e+18
14372.0	2.2455004572942333e+18
14373.0	2.2450254758543355e+18
14374.0	2.2445473923071995e+18
14375.0	2.2440692416511995e+18
14376.0	2.2435911195164667e+18
14377.0	2.2431127776002045e+18
14378.0	2.24247929676759e+18
14379.0	2.241841616597811e+18
14380.0	2.241362249593651e+18
14381.0	2.240876279077273e+18
14382.0	2.240405007079833e+18
14383.0	2.23992588837847e+18
14384.0	2.239435809121894e+18
14385.0	2.2389714241716221e+18
14386.0	2.238482262628761e+18
14387.0	2.238015164802662e+18
14388.0	2.2375366685360123e+18
14389.0	2.237059152058777e+18
14390.0	2.2365808118202365e+18
14391.0	2.2361042566774781e+18
14392.0	2.2356262016516096e+18
14393.0	2.2351493327749115e+18
14394.0	2.2346451002589181e+18
14395.0	2.2341861779701757e+18
14396.0	2.23371693433815e+18
14397.0	2.2332399362768893e+18
14398.0	2.2327622117621755e+18
14399.0	2.2322846902517755e+18
14400.0	2.2317967047917565e+18
14401.0	2.2313223306870776e+18
14402.0	2.2308374641115133e+18
14403.0	2.2297549813579768e+18
14404.0	2.227674470678527e+18
14405.0	2.2284836827824113e+18
14406.0	2.228918949196595e+18
14407.0	2.2277284413046781e+18
14408.0	2.2279476758970365e+18
14409.0	2.227505797582028e+18
14410.0	2.2270348829392893e+18
14411.0	2.226567761625088e+18
14412.0	2.2260922366033915e+18
14413.0	2.2256188221554683e+18
14414.0	2.225141817383321e+18
14415.0	2.2246666883039227e+18
14416.0	2.224188990632755e+18
14417.0	2.2237049864060923e+18
14418.0	2.223229605668454e+18
14419.0	2.2225601595179003e+18
14420.0	2.2219526061948928e+18
14421.0	2.221476223857459e+18
14422.0	2.2209872804184061e+18
14423.0	2.2204444955377661e+18
14424.0	2.2169797638750193e+18
14425.0	2.219481151150489e+18
14426.0	2.2190888897740795e+18
14427.0	2.2186239847301115e+18
14428.0	2.2181315432415227e+18
14429.0	2.2176655527116795e+18
14430.0	2.217184898895052e+18
14431.0	2.2165144444338176e+18
14432.0	2.2162237841997824e+18
14433.0	2.2152026238484475e+18
14434.0	2.2152708249092093e+18
14435.0	2.2147988969226237e+18
14436.0	2.2143430599639037e+18
14437.0	2.21387095581655e+18
14438.0	2.2133694009442296e+18
14439.0	2.2129146779926523e+18
14440.0	2.212449434048921e+18
14441.0	2.2119728503848955e+18
14442.0	2.2114965016018936e+18
14443.0	2.2109996175065083e+18
14444.0	2.2105479949844477e+18
14445.0	2.210068277336473e+18
14446.0	2.2086853146443776e+18
14447.0	2.209087633961779e+18
14448.0	2.208655568640409e+18
14449.0	2.208184969409331e+18
14450.0	2.207707778410086e+18
14451.0	2.207237554988646e+18
14452.0	2.2067626490462203e+18
14453.0	2.2062845017456637e+18
14454.0	2.2058170348208123e+18
14455.0	2.205338261730099e+18
14456.0	2.2048682429906936e+18
14457.0	2.2043936642039805e+18
14458.0	2.203920367196569e+18
14459.0	2.2034448270753784e+18
14460.0	2.2029689933529083e+18
14461.0	2.2024817997774843e+18
14462.0	2.2020084759265275e+18
14463.0	2.201545241893273e+18
14464.0	2.2010811438333947e+18
14465.0	2.200601407730483e+18
14466.0	2.2001396920352765e+18
14467.0	2.1996541979918333e+18
14468.0	2.1991183924330493e+18
14469.0	2.198376794187366e+18
14470.0	2.1979056832511995e+18
14471.0	2.197447935367577e+18
14472.0	2.196977373046374e+18
14473.0	2.1965106107645947e+18
14474.0	2.196038758275481e+18
14475.0	2.195563560409497e+18
14476.0	2.1950595761963005e+18
14477.0	2.1946206036951037e+18
14478.0	2.1941499138670592e+18
14479.0	2.1936772611047421e+18
14480.0	2.1931934061953021e+18
14481.0	2.192733749064499e+18
14482.0	2.192258557909401e+18
14483.0	2.1917833969532923e+18
14484.0	2.1913059861725181e+18
14485.0	2.1908155982151675e+18
14486.0	2.1901934436810752e+18
14487.0	2.1898970523500536e+18
14488.0	2.1894122394615805e+18
14489.0	2.1889401571246075e+18
14490.0	2.188482561913651e+18
14491.0	2.1880162526167037e+18
14492.0	2.1875462053560315e+18
14493.0	2.1870676419805181e+18
14494.0	2.1865883370520573e+18
14495.0	2.1861266482003965e+18
14496.0	2.1855806437720064e+18
14497.0	2.1851873254309883e+18
14498.0	2.1847191404412923e+18
14499.0	2.1842483717603323e+18
14500.0	2.183776433707417e+18
14501.0	2.1832821819572221e+18
14502.0	2.1827023882158077e+18
14503.0	2.182348848653926e+18
14504.0	2.1818884617142267e+18
14505.0	2.1814016808583163e+18
14506.0	2.1809137658626043e+18
14507.0	2.1803336852307965e+18
14508.0	2.1800093833232376e+18
14509.0	2.1795427653255163e+18
14510.0	2.1790712769019901e+18
14511.0	2.1786018235547645e+18
14512.0	2.1781235906904061e+18
14513.0	2.177659695634841e+18
14514.0	2.1771709954654205e+18
14515.0	2.1767080349007867e+18
14516.0	2.1749379614375939e+18
14517.0	2.175743613416243e+18
14518.0	2.1753093033033725e+18
14519.0	2.1748428815990781e+18
14520.0	2.1743740389425152e+18
14521.0	2.1739041678426104e+18
14522.0	2.1734305403240445e+18
14523.0	2.1729138272370683e+18
14524.0	2.17242872578048e+18
14525.0	2.1716870688145405e+18
14526.0	2.1712216235442173e+18
14527.0	2.1707324469018621e+18
14528.0	2.1702112207437821e+18
14529.0	2.1698038766501883e+18
14530.0	2.169330119947059e+18
14531.0	2.1688681509158904e+18
14532.0	2.168354967755161e+18
14533.0	2.1679278517125115e+18
14534.0	2.1674624198639608e+18
14535.0	2.1669845611315192e+18
14536.0	2.1665195101257728e+18
14537.0	2.1660461208436733e+18
14538.0	2.1655833548947453e+18
14539.0	2.1651139384573947e+18
14540.0	2.1646439616610301e+18
14541.0	2.164156378854195e+18
14542.0	2.1637001576972285e+18
14543.0	2.1632007872184315e+18
14544.0	2.1627563185012733e+18
14545.0	2.1622661301927933e+18
14546.0	2.1585285271781356e+18
14547.0	2.1582763740102633e+18
14548.0	2.1608494335524864e+18
14549.0	2.1603372972900347e+18
14550.0	2.1599394071576573e+18
14551.0	2.1594799211544573e+18
14552.0	2.159011330156134e+18
14553.0	2.1585401923764221e+18
14554.0	2.1580749148782587e+18
14555.0	2.1576051545079805e+18
14556.0	2.1571341207470075e+18
14557.0	2.1566639560458237e+18
14558.0	2.1561810507268093e+18
14559.0	2.1547532911902702e+18
14560.0	2.1552398455537661e+18
14561.0	2.154783349250457e+18
14562.0	2.1543011754180608e+18
14563.0	2.1538470866452475e+18
14564.0	2.1533735966998525e+18
14565.0	2.1529146744111101e+18
14566.0	2.1524470397140987e+18
14567.0	2.1519767877713915e+18
14568.0	2.1515000396906493e+18
14569.0	2.151033951852953e+18
14570.0	2.1502995711655933e+18
14571.0	2.1500975197978621e+18
14572.0	2.1496096735887357e+18
14573.0	2.1491291388903421e+18
14574.0	2.1486800144957432e+18
14575.0	2.1482216156561405e+18
14576.0	2.1477501339435003e+18
14577.0	2.147290481845862e+18
14578.0	2.1468276890533885e+18
14579.0	2.1463611650080765e+18
14580.0	2.1458934279700477e+18
14581.0	2.1454218623713277e+18
14582.0	2.144952526464614e+18
14583.0	2.1444887773708283e+18
14584.0	2.1440094489542653e+18
14585.0	2.1435517866344443e+18
14586.0	2.1430838264594427e+18
14587.0	2.142617476897177e+18
14588.0	2.1421503136399357e+18
14589.0	2.141604042453811e+18
14590.0	2.1408915476447227e+18
14591.0	2.1404263372554235e+18
14592.0	2.13995561722839e+18
14593.0	2.1394280677375995e+18
14594.0	2.1390323217334264e+18
14595.0	2.1385663781797888e+18
14596.0	2.13799834526679e+18
14597.0	2.137514309163417e+18
14598.0	2.1371640445140987e+18
14599.0	2.1367153227726843e+18
14600.0	2.1362513908072445e+18
14601.0	2.135787884983091e+18
14602.0	2.1353230873133053e+18
14603.0	2.1348585882779645e+18
14604.0	2.1343692203753467e+18
14605.0	2.1339202754969595e+18
14606.0	2.1334259197280253e+18
14607.0	2.1330000686874614e+18
14608.0	2.1325403327037437e+18
14609.0	2.1320744327708667e+18
14610.0	2.1316100276879357e+18
14611.0	2.1311471577202688e+18
14612.0	2.1306873344950267e+18
14613.0	2.1302250802511867e+18
14614.0	2.1297602507046904e+18
14615.0	2.1292979058638845e+18
14616.0	2.128835200312934e+18
14617.0	2.1283703523115005e+18
14618.0	2.12789431894016e+18
14619.0	2.1273055242223608e+18
14620.0	2.126702824547942e+18
14621.0	2.126509406735564e+18
14622.0	2.1260506505412605e+18
14623.0	2.1255899314126843e+18
14624.0	2.1250931026821112e+18
14625.0	2.1246599686520827e+18
14626.0	2.1242002746114043e+18
14627.0	2.1237353477570552e+18
14628.0	2.1232746487611387e+18
14629.0	2.122810842624819e+18
14630.0	2.1223458788605952e+18
14631.0	2.1218812237971448e+18
14632.0	2.1211869708550144e+18
14633.0	2.1209018018037757e+18
14634.0	2.1204878424539133e+18
14635.0	2.1200119969873915e+18
14636.0	2.11951819989975e+18
14637.0	2.11910170551255e+18
14638.0	2.1186305392115704e+18
14639.0	2.118159560815411e+18
14640.0	2.1176854165585915e+18
14641.0	2.116300495965388e+18
14642.0	2.116755269248614e+18
14643.0	2.1163131241758715e+18
14644.0	2.1158420904148987e+18
14645.0	2.1153750731194365e+18
14646.0	2.114910354302566e+18
14647.0	2.1144431423913981e+18
14648.0	2.1139855723462653e+18
14649.0	2.113525641746841e+18
