# Flux units: erg / (cm m2 s)
# Wavelength units: Angstrom
wave	flux
14000.0	1.78112389227479e+18
14001.0	1.780687201474969e+18
14002.0	1.7802562870706176e+18
14003.0	1.7798230775431165e+18
14004.0	1.7793900022333437e+18
14005.0	1.7789568665255933e+18
14006.0	1.7785234036621312e+18
14007.0	1.7780906370531325e+18
14008.0	1.7776523339628541e+18
14009.0	1.7772254796447741e+18
14010.0	1.7767893441708027e+18
14011.0	1.77632594404311e+18
14012.0	1.775925426598707e+18
14013.0	1.7754933847654397e+18
14014.0	1.775061378164326e+18
14015.0	1.7746293833072637e+18
14016.0	1.7741977994919933e+18
14017.0	1.7737664052592637e+18
14018.0	1.7733346150842365e+18
14019.0	1.7729036285378555e+18
14020.0	1.7724723668451325e+18
14021.0	1.7720412544696317e+18
14022.0	1.7716101655822333e+18
14023.0	1.7711774375608317e+18
14024.0	1.770747674073497e+18
14025.0	1.7703182847180797e+18
14026.0	1.7698877595451387e+18
14027.0	1.7694575548170235e+18
14028.0	1.7690274205532155e+18
14029.0	1.7685970295980032e+18
14030.0	1.768080131961651e+18
14031.0	1.7677363332513784e+18
14032.0	1.7673065076883453e+18
14033.0	1.7668720180592637e+18
14034.0	1.7664462307721208e+18
14035.0	1.7660170276438016e+18
14036.0	1.765587886591181e+18
14037.0	1.7651582254448635e+18
14038.0	1.7647300071391227e+18
14039.0	1.7643012586733563e+18
14040.0	1.7638718122754048e+18
14041.0	1.763443899314995e+18
14042.0	1.7630152246689787e+18
14043.0	1.7625853521297405e+18
14044.0	1.7621588954316797e+18
14045.0	1.7617314958540797e+18
14046.0	1.7613036768460797e+18
14047.0	1.7608755877249021e+18
14048.0	1.760448149559705e+18
14049.0	1.7600208774889472e+18
14050.0	1.7595935550865403e+18
14051.0	1.7591658501636093e+18
14052.0	1.7587392659587064e+18
14053.0	1.7583122153471997e+18
14054.0	1.7578855254458365e+18
14055.0	1.7574584278581243e+18
14056.0	1.7570322882494456e+18
14057.0	1.7566037142667261e+18
14058.0	1.7561767659962363e+18
14059.0	1.7557505894776827e+18
14060.0	1.7553245438214141e+18
14061.0	1.7548982196633597e+18
14062.0	1.7544728299962365e+18
14063.0	1.7540462525022203e+18
14064.0	1.7536099727441915e+18
14065.0	1.7531957936127997e+18
14066.0	1.7527708418310136e+18
14067.0	1.7523429892685824e+18
14068.0	1.7519207889502203e+18
14069.0	1.7514956106760187e+18
14070.0	1.7510710883909632e+18
14071.0	1.750646344646656e+18
14072.0	1.7502219867783165e+18
14073.0	1.749797598710988e+18
14074.0	1.7493733448613885e+18
14075.0	1.7489480927674368e+18
14076.0	1.7485220571774976e+18
14077.0	1.7480803919331328e+18
14078.0	1.747676032506265e+18
14079.0	1.7472536090509312e+18
14080.0	1.746830506118348e+18
14081.0	1.7464071246839805e+18
14082.0	1.7459819531206653e+18
14083.0	1.7455606839377915e+18
14084.0	1.7451365827608576e+18
14085.0	1.7446853578588157e+18
14086.0	1.7442878905122808e+18
14087.0	1.7438668796985336e+18
14088.0	1.7434441324429312e+18
14089.0	1.7430190850310141e+18
14090.0	1.7425994583375864e+18
14091.0	1.7421777328144381e+18
14092.0	1.7417557724102656e+18
14093.0	1.7413338975698941e+18
14094.0	1.7409122005680125e+18
14095.0	1.7404906394615805e+18
14096.0	1.7400646860799997e+18
14097.0	1.7396456012906496e+18
14098.0	1.7392240468951037e+18
14099.0	1.7388054721331197e+18
14100.0	1.7383839982682107e+18
14101.0	1.737963777661337e+18
14102.0	1.7375429732073464e+18
14103.0	1.7371217728110584e+18
14104.0	1.7367020538429435e+18
14105.0	1.7362808702238715e+18
14106.0	1.735861518676787e+18
14107.0	1.7354388653735933e+18
14108.0	1.735020807349862e+18
14109.0	1.7346014054711293e+18
14110.0	1.7341799517388795e+18
14111.0	1.733758430897766e+18
14112.0	1.733342871001497e+18
14113.0	1.7329236738047997e+18
14114.0	1.7325031260422141e+18
14115.0	1.7320853683306493e+18
14116.0	1.731653969064755e+18
14117.0	1.7311077716983803e+18
14118.0	1.7308260201660413e+18
14119.0	1.7304054354935805e+18
14120.0	1.7299852719292416e+18
14121.0	1.729565831462912e+18
14122.0	1.7291461896699904e+18
14123.0	1.7287252593868795e+18
14124.0	1.7283068272312315e+18
14125.0	1.727868861362995e+18
14126.0	1.7274758399787003e+18
14127.0	1.727059615704678e+18
14128.0	1.7266421146845181e+18
14129.0	1.7262242043002877e+18
14130.0	1.7258067770998781e+18
14131.0	1.7253906383896576e+18
14132.0	1.7249737077948416e+18
14133.0	1.7245266537086968e+18
14134.0	1.7241401620168704e+18
14135.0	1.7237224160493568e+18
14136.0	1.723295348660633e+18
14137.0	1.7228907795185661e+18
14138.0	1.7224726141206523e+18
14139.0	1.72205864470446e+18
14140.0	1.7216393216786432e+18
14141.0	1.7212267867144187e+18
14142.0	1.7207966994268157e+18
14143.0	1.720386026733568e+18
14144.0	1.719980256342835e+18
14145.0	1.7195649413939195e+18
14146.0	1.7191496566439933e+18
14147.0	1.7187345178558456e+18
14148.0	1.7183188958838781e+18
14149.0	1.7179035574468603e+18
14150.0	1.7174901500674048e+18
14151.0	1.7170736724574205e+18
14152.0	1.7166589681991677e+18
14153.0	1.7162442236755965e+18
14154.0	1.7158285329170432e+18
14155.0	1.7153203225231357e+18
14156.0	1.714998674771148e+18
14157.0	1.7145879836229627e+18
14158.0	1.7141733515067395e+18
14159.0	1.713760714201497e+18
14160.0	1.7133473554759675e+18
14161.0	1.7129304752128e+18
14162.0	1.7125149052502013e+18
14163.0	1.7121077255733243e+18
14164.0	1.711689961150873e+18
14165.0	1.7112471818993661e+18
14166.0	1.7108690200952827e+18
14167.0	1.710455855985459e+18
14168.0	1.710043044197171e+18
14169.0	1.709631858121113e+18
14170.0	1.7092188533948408e+18
14171.0	1.708806747927347e+18
14172.0	1.7083955870171133e+18
14173.0	1.7079682948136957e+18
14174.0	1.7075714851340288e+18
14175.0	1.7071603980435456e+18
14176.0	1.7067474251939835e+18
14177.0	1.706337066234675e+18
14178.0	1.7059259086798848e+18
14179.0	1.7055118419558397e+18
14180.0	1.7051041975500797e+18
14181.0	1.7046933369520125e+18
14182.0	1.7042825333964797e+18
14183.0	1.7038719529779195e+18
14184.0	1.7034611628441597e+18
14185.0	1.7030510639316987e+18
14186.0	1.7026136634556408e+18
14187.0	1.7022293041479675e+18
14188.0	1.7018206061330427e+18
14189.0	1.7014101364441085e+18
14190.0	1.701000777406873e+18
14191.0	1.7005910241050621e+18
14192.0	1.7001796803231741e+18
14193.0	1.699765278054809e+18
14194.0	1.6993601670086653e+18
14195.0	1.698951314643353e+18
14196.0	1.6985422592737277e+18
14197.0	1.698133336444108e+18
14198.0	1.6977242559086587e+18
14199.0	1.6973151468519421e+18
14200.0	1.6968916295221248e+18
14201.0	1.6964986819575805e+18
14202.0	1.6960905778561021e+18
14203.0	1.6956786636488704e+18
14204.0	1.695274114639462e+18
14205.0	1.694866201798246e+18
14206.0	1.694451863283302e+18
14207.0	1.6940508223897597e+18
14208.0	1.6936432618700797e+18
14209.0	1.693228061006233e+18
14210.0	1.6928238508965885e+18
14211.0	1.6924211977125888e+18
14212.0	1.692014080111411e+18
14213.0	1.6916065934114813e+18
14214.0	1.6912002559508477e+18
14215.0	1.690792433706598e+18
14216.0	1.6903869485285376e+18
14217.0	1.6899804399403005e+18
14218.0	1.689573391125708e+18
14219.0	1.689167848905113e+18
14220.0	1.688761727870566e+18
14221.0	1.6883550666096637e+18
14222.0	1.6879455733547005e+18
14223.0	1.687543478851993e+18
14224.0	1.6871384013602813e+18
14225.0	1.6866897819598848e+18
14226.0	1.6863274729472e+18
14227.0	1.6859222075506685e+18
14228.0	1.685416673122713e+18
14229.0	1.6851001692651515e+18
14230.0	1.68470707741655e+18
14231.0	1.6842980304355325e+18
14232.0	1.6838975918440448e+18
14233.0	1.6834930277351421e+18
14234.0	1.683088584422195e+18
14235.0	1.6826840924553216e+18
14236.0	1.6822797615497216e+18
14237.0	1.681875798065152e+18
14238.0	1.681471873168179e+18
14239.0	1.681067431532953e+18
14240.0	1.6805884638265344e+18
14241.0	1.6802582328508413e+18
14242.0	1.679854774360473e+18
14243.0	1.6794427527790587e+18
14244.0	1.6790481543364603e+18
14245.0	1.678644059989606e+18
14246.0	1.6782399471878144e+18
14247.0	1.6778389885026304e+18
14248.0	1.6774356390641661e+18
14249.0	1.6770335747604477e+18
14250.0	1.676630841045811e+18
14251.0	1.6762285586382843e+18
14252.0	1.6758262711975933e+18
14253.0	1.675424055898931e+18
14254.0	1.67502188422103e+18
14255.0	1.674618477740032e+18
14256.0	1.6741907375849472e+18
14257.0	1.6738163389104123e+18
14258.0	1.6734150144819197e+18
14259.0	1.6730126649655293e+18
14260.0	1.6726114579775485e+18
14261.0	1.6722097510285312e+18
14262.0	1.6718114901196797e+18
14263.0	1.6713693752459261e+18
14264.0	1.671003838296883e+18
14265.0	1.6706068524564475e+18
14266.0	1.670208269425049e+18
14267.0	1.6698075942748157e+18
14268.0	1.6694073351995387e+18
14269.0	1.669006955328307e+18
14270.0	1.6686069328117757e+18
14271.0	1.668206328125849e+18
14272.0	1.6678067871154176e+18
14273.0	1.6674071454416893e+18
14274.0	1.6669482013425661e+18
14275.0	1.6666026863230976e+18
14276.0	1.6662053884264443e+18
14277.0	1.6658071476502525e+18
14278.0	1.6654099437060093e+18
14279.0	1.6650108338700288e+18
14280.0	1.6646114354659325e+18
14281.0	1.6642130202066941e+18
14282.0	1.663814301279846e+18
14283.0	1.6634156746276861e+18
14284.0	1.6630171670937597e+18
14285.0	1.6626187904221181e+18
14286.0	1.6622203130871805e+18
14287.0	1.6618223843672061e+18
14288.0	1.6614242945859581e+18
14289.0	1.6609779635978237e+18
14290.0	1.66062788182016e+18
14291.0	1.6602308959797248e+18
14292.0	1.6598333934010365e+18
14293.0	1.6594358388129787e+18
14294.0	1.6590305532837885e+18
14295.0	1.658640459523686e+18
14296.0	1.658203107701555e+18
14297.0	1.657844811798937e+18
14298.0	1.6574278006734843e+18
14299.0	1.6570503938441213e+18
14300.0	1.656654620996403e+18
14301.0	1.6562570731192315e+18
14302.0	1.6558614160343037e+18
14303.0	1.6554629705760763e+18
14304.0	1.6550685550051325e+18
14305.0	1.6546727351812093e+18
14306.0	1.654268610635366e+18
14307.0	1.653879270172262e+18
14308.0	1.6534856649408507e+18
14309.0	1.6530894273642493e+18
14310.0	1.6526584726945792e+18
14311.0	1.652270628759142e+18
14312.0	1.651899664380723e+18
14313.0	1.6515055474442235e+18
14314.0	1.6511132978118653e+18
14315.0	1.6507190953115648e+18
14316.0	1.6503214971027456e+18
14317.0	1.6499206088818685e+18
14318.0	1.649535200998195e+18
14319.0	1.6491407787163643e+18
14320.0	1.6487464789082107e+18
14321.0	1.6483523200286715e+18
14322.0	1.6479556948983805e+18
14323.0	1.6475635576733693e+18
14324.0	1.6471697410490365e+18
14325.0	1.6467767649632253e+18
14326.0	1.6463831580540925e+18
14327.0	1.6459895293345792e+18
14328.0	1.6455959492689915e+18
14329.0	1.6452030335811581e+18
14330.0	1.64480989307863e+18
14331.0	1.6444167777419261e+18
14332.0	1.644023956006502e+18
14333.0	1.6436311577591803e+18
14334.0	1.643238481985536e+18
14335.0	1.6428435597426688e+18
14336.0	1.6424475050377216e+18
14337.0	1.642061085487923e+18
14338.0	1.6416687771353085e+18
14339.0	1.641276421806489e+18
14340.0	1.6408843080695803e+18
14341.0	1.640492003072409e+18
14342.0	1.6401006560542715e+18
14343.0	1.6397074417319933e+18
14344.0	1.6393166953381885e+18
14345.0	1.6389261653704704e+18
14346.0	1.638534719366758e+18
14347.0	1.6381412567416824e+18
14348.0	1.6377525403910141e+18
14349.0	1.6373616581017597e+18
14350.0	1.6369674556014592e+18
14351.0	1.636576710885376e+18
14352.0	1.636189403820851e+18
14353.0	1.6357989694832637e+18
14354.0	1.6354081945681915e+18
14355.0	1.6350174448189437e+18
14356.0	1.6346275842621435e+18
14357.0	1.634238109581312e+18
14358.0	1.6338481802379267e+18
14359.0	1.6334574204223488e+18
14360.0	1.6330660583047163e+18
14361.0	1.63267652658135e+18
14362.0	1.632287098876723e+18
14363.0	1.631897708081971e+18
14364.0	1.6314956068683776e+18
14365.0	1.6311178946936832e+18
14366.0	1.6307283797475328e+18
14367.0	1.6303414199713792e+18
14368.0	1.6299526029574141e+18
14369.0	1.6295639470047232e+18
14370.0	1.6291753900376061e+18
14371.0	1.6287869488332797e+18
14372.0	1.6283983365013501e+18
14373.0	1.6280103566704637e+18
14374.0	1.6276222510104576e+18
14375.0	1.627234246013747e+18
14376.0	1.6268463534243835e+18
14377.0	1.626458541365657e+18
14378.0	1.626070754472755e+18
14379.0	1.6256833568112637e+18
14380.0	1.6252959138512893e+18
14381.0	1.6249084222373888e+18
14382.0	1.6245211906703357e+18
14383.0	1.6241317310889981e+18
14384.0	1.6237458987417597e+18
14385.0	1.623360403616563e+18
14386.0	1.6229727542968315e+18
14387.0	1.6225869672480768e+18
14388.0	1.6222003061063675e+18
14389.0	1.6218139603763197e+18
14390.0	1.6214275693477885e+18
14391.0	1.621041357835468e+18
14392.0	1.6206532840521725e+18
14393.0	1.6202693844402176e+18
14394.0	1.6198813576331256e+18
14395.0	1.619486509210009e+18
14396.0	1.6191116189630461e+18
14397.0	1.6187253353086976e+18
14398.0	1.618338169172787e+18
14399.0	1.617954314859315e+18
14400.0	1.617560845523353e+18
14401.0	1.6171838094704637e+18
14402.0	1.6167991867604987e+18
14403.0	1.6158817179926515e+18
14404.0	1.6146410546135035e+18
14405.0	1.6155771813232635e+18
14406.0	1.615260442584678e+18
14407.0	1.6140691780403208e+18
14408.0	1.6144874659119101e+18
14409.0	1.6141062909198328e+18
14410.0	1.6137220893179901e+18
14411.0	1.6133389044154365e+18
14412.0	1.6129554628214784e+18
14413.0	1.6125717829910523e+18
14414.0	1.6121881300041725e+18
14415.0	1.61180467331072e+18
14416.0	1.6114205975379963e+18
14417.0	1.6110340051828733e+18
14418.0	1.6106496827850747e+18
14419.0	1.6102716384215037e+18
14420.0	1.6098884702961661e+18
14421.0	1.6095058474303488e+18
14422.0	1.6091231239012347e+18
14423.0	1.608740123548057e+18
14424.0	1.6050429888561126e+18
14425.0	1.607975204972134e+18
14426.0	1.6075931055554557e+18
14427.0	1.6072110464040957e+18
14428.0	1.6068263582629885e+18
14429.0	1.6064468408598523e+18
14430.0	1.6060651038310395e+18
14431.0	1.605663665317478e+18
14432.0	1.6052990108499965e+18
14433.0	1.6043197297852408e+18
14434.0	1.6045381171281915e+18
14435.0	1.604153979279769e+18
14436.0	1.6037762083848187e+18
14437.0	1.6033936794714107e+18
14438.0	1.6029931670601725e+18
14439.0	1.602626828160204e+18
14440.0	1.6022499565240315e+18
14441.0	1.601868882195251e+18
14442.0	1.6014881618657275e+18
14443.0	1.6011056967057405e+18
14444.0	1.6007277060292603e+18
14445.0	1.6003476551106552e+18
14446.0	1.5993403846164477e+18
14447.0	1.599586746289356e+18
14448.0	1.599207671804723e+18
14449.0	1.5988278758998016e+18
14450.0	1.59844816388096e+18
14451.0	1.5980685810466813e+18
14452.0	1.597688778430873e+18
14453.0	1.5972976629383165e+18
14454.0	1.5969303459266557e+18
14455.0	1.5965510298501115e+18
14456.0	1.5961697088962557e+18
14457.0	1.5957891227844603e+18
14458.0	1.5954083202465787e+18
14459.0	1.595032089500057e+18
14460.0	1.594656902296371e+18
14461.0	1.5942763749048315e+18
14462.0	1.5938753642102781e+18
14463.0	1.5935213146210301e+18
14464.0	1.593143686332416e+18
14465.0	1.5927645883596795e+18
14466.0	1.592387493586534e+18
14467.0	1.5920018139119613e+18
14468.0	1.5916313310396413e+18
14469.0	1.591252635720089e+18
14470.0	1.5908752557342715e+18
14471.0	1.5904981542502397e+18
14472.0	1.5901216802340864e+18
14473.0	1.5897449663037437e+18
14474.0	1.5893678883078144e+18
14475.0	1.588990431146803e+18
14476.0	1.5885749551366141e+18
14477.0	1.5882370620063741e+18
14478.0	1.5878602893557757e+18
14479.0	1.5874831392178176e+18
14480.0	1.587107004101427e+18
14481.0	1.5867310719893501e+18
14482.0	1.5863546063618048e+18
14483.0	1.5859780182605821e+18
14484.0	1.585602344517632e+18
14485.0	1.5852242028462077e+18
14486.0	1.5848342282043387e+18
14487.0	1.5844749206355965e+18
14488.0	1.584093941936947e+18
14489.0	1.583722007835443e+18
14490.0	1.5833472316735485e+18
14491.0	1.5829730091597821e+18
14492.0	1.5825974679568381e+18
14493.0	1.5822218982326272e+18
14494.0	1.5818463805177853e+18
14495.0	1.581472919689625e+18
14496.0	1.5810905048612864e+18
14497.0	1.5807234176974843e+18
14498.0	1.5803486818009085e+18
14499.0	1.5799744022446077e+18
14500.0	1.5796000136364032e+18
14501.0	1.5792079737192448e+18
14502.0	1.5788198110167037e+18
14503.0	1.5784749956071424e+18
14504.0	1.5781033316188157e+18
14505.0	1.5777128033288192e+18
14506.0	1.5773161748430843e+18
14507.0	1.5769687690313723e+18
14508.0	1.5766088625160187e+18
14509.0	1.5762354335645696e+18
14510.0	1.5758621304422397e+18
14511.0	1.5754888675852285e+18
14512.0	1.5751147960664067e+18
14513.0	1.5747427092922363e+18
14514.0	1.5743621349244925e+18
14515.0	1.5739962573979648e+18
14516.0	1.573506951571046e+18
14517.0	1.573251632542515e+18
14518.0	1.572879086072627e+18
14519.0	1.5725067241521147e+18
14520.0	1.5721344142409725e+18
14521.0	1.5717616060465155e+18
14522.0	1.5713896769781757e+18
14523.0	1.570975668974387e+18
14524.0	1.5706031443148797e+18
14525.0	1.5702740910997496e+18
14526.0	1.5699026921914365e+18
14527.0	1.569525404480307e+18
14528.0	1.5691447814586368e+18
14529.0	1.568785284307353e+18
14530.0	1.5684136354185213e+18
14531.0	1.5680432783753213e+18
14532.0	1.5675971084484603e+18
14533.0	1.5673012103675901e+18
14534.0	1.566930405372723e+18
14535.0	1.566559427572531e+18
14536.0	1.5661888541032443e+18
14537.0	1.5658175306924024e+18
14538.0	1.5654475544920064e+18
14539.0	1.5650774306521085e+18
14540.0	1.5647071205851133e+18
14541.0	1.5643366645563392e+18
14542.0	1.5639668276068347e+18
14543.0	1.563570583319347e+18
14544.0	1.5632268986941437e+18
14545.0	1.5628563738787837e+18
14546.0	1.5587650769518564e+18
14547.0	1.5588435876118495e+18
14548.0	1.5617476347822075e+18
14549.0	1.5613725650190333e+18
14550.0	1.5610095731736573e+18
14551.0	1.5606404559667195e+18
14552.0	1.5602704596336635e+18
14553.0	1.559901006882406e+18
14554.0	1.5595333694259197e+18
14555.0	1.5591644065693696e+18
14556.0	1.558794680349491e+18
14557.0	1.558427156978073e+18
14558.0	1.5580585934192637e+18
14559.0	1.5575899252457467e+18
14560.0	1.5573091719577595e+18
14561.0	1.556953308751462e+18
14562.0	1.5565835707875325e+18
14563.0	1.5562174785126397e+18
14564.0	1.555847316085145e+18
14565.0	1.5554816851836925e+18
14566.0	1.5551139168649216e+18
14567.0	1.5547461972000765e+18
14568.0	1.5543693440188416e+18
14569.0	1.5540111638790141e+18
14570.0	1.5536159815892987e+18
14571.0	1.5532762899415035e+18
14572.0	1.5529044816691197e+18
14573.0	1.5525395419889664e+18
14574.0	1.5521686648520701e+18
14575.0	1.5518075889647613e+18
14576.0	1.5514413071073277e+18
14577.0	1.551074677961523e+18
14578.0	1.5507079062093821e+18
14579.0	1.5503413559164925e+18
14580.0	1.549975022049689e+18
14581.0	1.5496058226343933e+18
14582.0	1.5492423341834237e+18
14583.0	1.548876183188275e+18
14584.0	1.5485091597778941e+18
14585.0	1.548144075813683e+18
14586.0	1.5477779399180285e+18
14587.0	1.547411463444889e+18
14588.0	1.5470478491647997e+18
14589.0	1.5466960896655357e+18
14590.0	1.5463464021524475e+18
14591.0	1.5459963790950397e+18
14592.0	1.5456471177232381e+18
14593.0	1.5452909172948992e+18
14594.0	1.544948346676838e+18
14595.0	1.544598696073625e+18
14596.0	1.5442372896751616e+18
14597.0	1.5438895214755837e+18
14598.0	1.5435507760627712e+18
14599.0	1.543202506224435e+18
14600.0	1.5428531441893368e+18
14601.0	1.542504602560102e+18
14602.0	1.5421527356866557e+18
14603.0	1.5418067492274176e+18
14604.0	1.5414550065053693e+18
14605.0	1.5411063205920765e+18
14606.0	1.5407542540697597e+18
14607.0	1.5404127169282043e+18
14608.0	1.540063781034393e+18
14609.0	1.5397108689403901e+18
14610.0	1.5393611763941373e+18
14611.0	1.5390192617652221e+18
14612.0	1.5386716177170432e+18
14613.0	1.5383236532240381e+18
14614.0	1.537975489082163e+18
14615.0	1.5376249778077693e+18
14616.0	1.5372799593938944e+18
14617.0	1.5369321744171003e+18
14618.0	1.5365808041492475e+18
14619.0	1.5362313984933885e+18
14620.0	1.5358597512822781e+18
14621.0	1.5355417659965435e+18
14622.0	1.5351943199195133e+18
14623.0	1.534846942629069e+18
14624.0	1.5344962988146685e+18
14625.0	1.5341523608535037e+18
14626.0	1.533803990351872e+18
14627.0	1.5334556399828987e+18
14628.0	1.5331109520801787e+18
14629.0	1.5327639371775997e+18
14630.0	1.532416828322611e+18
14631.0	1.5320695349182464e+18
14632.0	1.5314588627107837e+18
14633.0	1.5313502772133885e+18
14634.0	1.531028936484454e+18
14635.0	1.530600439676927e+18
14636.0	1.5300247328653307e+18
14637.0	1.5299899570520056e+18
14638.0	1.529643084755763e+18
14639.0	1.5292944709844987e+18
14640.0	1.528948003019161e+18
14641.0	1.5275900367011827e+18
14642.0	1.5282552919031803e+18
14643.0	1.5279092601454587e+18
14644.0	1.5275628928434176e+18
14645.0	1.5272155272970237e+18
14646.0	1.5268672708804605e+18
14647.0	1.526521683718963e+18
