# Flux units: erg / (cm m2 s)
# Wavelength units: Angstrom
wave	flux
14000.0	2.5309996405227515e+18
14001.0	2.5306449919868923e+18
14002.0	2.5301289835429883e+18
14003.0	2.5295805866835963e+18
14004.0	2.5290299148337147e+18
14005.0	2.5284784225779707e+18
14006.0	2.5279233030881275e+18
14007.0	2.5273690610466806e+18
14008.0	2.5267741980098555e+18
14009.0	2.526265121911603e+18
14010.0	2.525708796139929e+18
14011.0	2.524882811853209e+18
14012.0	2.524612690287001e+18
14013.0	2.5240668116877307e+18
14014.0	2.5235128867356667e+18
14015.0	2.522964781799833e+18
14016.0	2.522415254156083e+18
14017.0	2.5218649765707776e+18
14018.0	2.5213145513459707e+18
14019.0	2.5207643526135803e+18
14020.0	2.5202137159958523e+18
14021.0	2.5196630105915387e+18
14022.0	2.519111474715033e+18
14023.0	2.5185496862818304e+18
14024.0	2.5180029570777083e+18
14025.0	2.5174640208904187e+18
14026.0	2.5169145351897083e+18
14027.0	2.5163656685682683e+18
14028.0	2.51581470647255e+18
14029.0	2.515255030290841e+18
14030.0	2.5136159231311877e+18
14031.0	2.5140448091701243e+18
14032.0	2.5136141883670523e+18
14033.0	2.5130450968117243e+18
14034.0	2.512524739713433e+18
14035.0	2.5119787235409915e+18
14036.0	2.511426268273049e+18
14037.0	2.510884599077273e+18
14038.0	2.5103373900447734e+18
14039.0	2.509790209533542e+18
14040.0	2.5092397054558203e+18
14041.0	2.5086945583431675e+18
14042.0	2.50814312480768e+18
14043.0	2.507583524123443e+18
14044.0	2.5070509414678523e+18
14045.0	2.5065073596694523e+18
14046.0	2.5059587178627067e+18
14047.0	2.505408762399948e+18
14048.0	2.5048697003835387e+18
14049.0	2.504324653934182e+18
14050.0	2.503778949817958e+18
14051.0	2.5032290581086203e+18
14052.0	2.502687412400946e+18
14053.0	2.502142542112358e+18
14054.0	2.5015973580898304e+18
14055.0	2.5010522965409787e+18
14056.0	2.500507317200486e+18
14057.0	2.499962522409369e+18
14058.0	2.4994178349924347e+18
14059.0	2.4988732683714555e+18
14060.0	2.4983287923474427e+18
14061.0	2.4977813735997435e+18
14062.0	2.4972397799014395e+18
14063.0	2.496685445585305e+18
14064.0	2.4959931622883323e+18
14065.0	2.4956037530386427e+18
14066.0	2.4950649963675643e+18
14067.0	2.4945084826910715e+18
14068.0	2.4939782387793915e+18
14069.0	2.493433601694105e+18
14070.0	2.4928912765091835e+18
14071.0	2.492347867516109e+18
14072.0	2.491806495277056e+18
14073.0	2.491263794282495e+18
14074.0	2.4907210060464123e+18
14075.0	2.490166725417369e+18
14076.0	2.4896183302356987e+18
14077.0	2.4888371394379776e+18
14078.0	2.488527787707597e+18
14079.0	2.4880046992785403e+18
14080.0	2.487468353493401e+18
14081.0	2.4869274157842427e+18
14082.0	2.4863845235294203e+18
14083.0	2.4858429868736507e+18
14084.0	2.485295569803673e+18
14085.0	2.4845106745966587e+18
14086.0	2.4841907246989307e+18
14087.0	2.483678133773926e+18
14088.0	2.483130768713318e+18
14089.0	2.482588121405849e+18
14090.0	2.4820586224025595e+18
14091.0	2.481520112356557e+18
14092.0	2.4809804178391035e+18
14093.0	2.4804402283937787e+18
14094.0	2.479899387992473e+18
14095.0	2.479355978999398e+18
14096.0	2.4787862549430267e+18
14097.0	2.478248251568946e+18
14098.0	2.4777242236157947e+18
14099.0	2.477200702334566e+18
14100.0	2.476659311640576e+18
14101.0	2.4761271584817147e+18
14102.0	2.4755888849944576e+18
14103.0	2.4750445180223483e+18
14104.0	2.4745126366543867e+18
14105.0	2.473974321224089e+18
14106.0	2.473436426901913e+18
14107.0	2.472897903434137e+18
14108.0	2.4723527479328763e+18
14109.0	2.4718199270408187e+18
14110.0	2.471281675363942e+18
14111.0	2.470741932192562e+18
14112.0	2.4702035563642875e+18
14113.0	2.4696639054675963e+18
14114.0	2.4691225516834816e+18
14115.0	2.4685843671154683e+18
14116.0	2.4679607496081403e+18
14117.0	2.4655549018669056e+18
14118.0	2.466943988242841e+18
14119.0	2.4664117478424576e+18
14120.0	2.4658882584379387e+18
14121.0	2.465363067823718e+18
14122.0	2.4648337164599296e+18
14123.0	2.464286017532722e+18
14124.0	2.4637439423283195e+18
14125.0	2.4629908349124603e+18
14126.0	2.462688564844953e+18
14127.0	2.4621662716559355e+18
14128.0	2.4616321387855867e+18
14129.0	2.4610910131716086e+18
14130.0	2.4605497365626875e+18
14131.0	2.460028357731942e+18
14132.0	2.45948281299927e+18
14133.0	2.458675812132454e+18
14134.0	2.458415208280883e+18
14135.0	2.457871322814873e+18
14136.0	2.457330257598873e+18
14137.0	2.456811771160166e+18
14138.0	2.4562732678250496e+18
14139.0	2.4557508102193147e+18
14140.0	2.4552102952959995e+18
14141.0	2.454643500541542e+18
14142.0	2.454057403600077e+18
14143.0	2.453607448733286e+18
14144.0	2.4530880311590907e+18
14145.0	2.452558661340365e+18
14146.0	2.452024157693542e+18
14147.0	2.4514941973168123e+18
14148.0	2.450959415168204e+18
14149.0	2.4504262453100544e+18
14150.0	2.4499010395963387e+18
14151.0	2.4493592445714427e+18
14152.0	2.4488380318351355e+18
14153.0	2.448306472589721e+18
14154.0	2.447758629378457e+18
14155.0	2.4472227583885307e+18
14156.0	2.4467086742913024e+18
14157.0	2.4461810610470907e+18
14158.0	2.445648401216307e+18
14159.0	2.4451192947998715e+18
14160.0	2.4445803854561275e+18
14161.0	2.4440274839142395e+18
14162.0	2.443469205274624e+18
14163.0	2.4429858251603963e+18
14164.0	2.44241824523223e+18
14165.0	2.441893479081574e+18
14166.0	2.441399770913177e+18
14167.0	2.440867188257587e+18
14168.0	2.4403460208197627e+18
14169.0	2.439819285023949e+18
14170.0	2.439284583405977e+18
14171.0	2.438756651394662e+18
14172.0	2.4382287026061307e+18
14173.0	2.4376790105456635e+18
14174.0	2.437165738465689e+18
14175.0	2.436643188585267e+18
14176.0	2.436115142488882e+18
14177.0	2.4355868967436283e+18
14178.0	2.435057743350989e+18
14179.0	2.4345264122757115e+18
14180.0	2.434002617525862e+18
14181.0	2.4334747123580923e+18
14182.0	2.4329463089070075e+18
14183.0	2.43241818563543e+18
14184.0	2.4318855593590784e+18
14185.0	2.431346712091033e+18
14186.0	2.430479574971187e+18
14187.0	2.4302584227430395e+18
14188.0	2.4297253233491963e+18
14189.0	2.428976479023923e+18
14190.0	2.428450414316749e+18
14191.0	2.427922032676044e+18
14192.0	2.427389990246809e+18
14193.0	2.4268143455109115e+18
14194.0	2.4263432144420864e+18
14195.0	2.4258210034614267e+18
14196.0	2.4252953615400955e+18
14197.0	2.424769316965581e+18
14198.0	2.4242406752780283e+18
14199.0	2.4237136492363776e+18
14200.0	2.422983328635289e+18
14201.0	2.4226317100646395e+18
14202.0	2.4221389045104635e+18
14203.0	2.421610423884185e+18
14204.0	2.421088400808345e+18
14205.0	2.420562435086745e+18
14206.0	2.4199181161725947e+18
14207.0	2.4192182344744955e+18
14208.0	2.4186948155342843e+18
14209.0	2.418100563188121e+18
14210.0	2.4175913931374587e+18
14211.0	2.417117175060889e+18
14212.0	2.4165960260780027e+18
14213.0	2.4160705301184507e+18
14214.0	2.4155469887045627e+18
14215.0	2.4150180198612987e+18
14216.0	2.4144993958494203e+18
14217.0	2.413975322597785e+18
14218.0	2.413443451296153e+18
14219.0	2.412927301923635e+18
14220.0	2.412403507173785e+18
14221.0	2.4118762848387067e+18
14222.0	2.4113306931298304e+18
14223.0	2.4108307824246784e+18
14224.0	2.410302331997389e+18
14225.0	2.409172787475251e+18
14226.0	2.409120680797798e+18
14227.0	2.4084172742066176e+18
14228.0	2.406631170113536e+18
14229.0	2.4070705536565233e+18
14230.0	2.406852461592575e+18
14231.0	2.406313577414656e+18
14232.0	2.405811218913689e+18
14233.0	2.405286692677222e+18
14234.0	2.404766550327296e+18
14235.0	2.4042429871030267e+18
14236.0	2.403721742490009e+18
14237.0	2.4031986708381696e+18
14238.0	2.4026759951286267e+18
14239.0	2.40214504154071e+18
14240.0	2.4009194021584896e+18
14241.0	2.401089326835302e+18
14242.0	2.400579777619558e+18
14243.0	2.399988649191014e+18
14244.0	2.3995461719293947e+18
14245.0	2.39901890094039e+18
14246.0	2.3984967671349243e+18
14247.0	2.397981654594355e+18
14248.0	2.397457334717645e+18
14249.0	2.3967646303125494e+18
14250.0	2.396085936560537e+18
14251.0	2.395565638182502e+18
14252.0	2.395043808044646e+18
14253.0	2.3945208018239483e+18
14254.0	2.3939952957980667e+18
14255.0	2.3934430653448187e+18
14256.0	2.392334418522931e+18
14257.0	2.392279244970393e+18
14258.0	2.391905160029798e+18
14259.0	2.3913803720687606e+18
14260.0	2.3908535809081334e+18
14261.0	2.390334106291405e+18
14262.0	2.389827655827456e+18
14263.0	2.388423256886477e+18
14264.0	2.3884359639498747e+18
14265.0	2.3882741913223163e+18
14266.0	2.387778104144691e+18
14267.0	2.387263684503142e+18
14268.0	2.3867461459771387e+18
14269.0	2.386226084157849e+18
14270.0	2.385707168222413e+18
14271.0	2.3851846737068027e+18
14272.0	2.3846557686169595e+18
14273.0	2.3840798739005435e+18
14274.0	2.3819944609185787e+18
14275.0	2.382478748680192e+18
14276.0	2.3822054058885115e+18
14277.0	2.381709159327334e+18
14278.0	2.381203292710502e+18
14279.0	2.380686490704281e+18
14280.0	2.3801670915850235e+18
14281.0	2.379652968900198e+18
14282.0	2.379135427018752e+18
14283.0	2.3786176284459003e+18
14284.0	2.3780997778636795e+18
14285.0	2.3775818400399355e+18
14286.0	2.377063825040998e+18
14287.0	2.3765457261559803e+18
14288.0	2.3760226058502144e+18
14289.0	2.3750514734792694e+18
14290.0	2.3749879381622784e+18
14291.0	2.3744757398241275e+18
14292.0	2.3739595636080635e+18
14293.0	2.373440265152102e+18
14294.0	2.3728544953663483e+18
14295.0	2.3723920448290806e+18
14296.0	2.371522736737485e+18
14297.0	2.371353563679949e+18
14298.0	2.370614394775142e+18
14299.0	2.370320033487257e+18
14300.0	2.3698197822046203e+18
14301.0	2.3693068574130176e+18
14302.0	2.368551798806937e+18
14303.0	2.3678712629166075e+18
14304.0	2.3673672132722683e+18
14305.0	2.366856583603814e+18
14306.0	2.366325918584013e+18
14307.0	2.3658113227816955e+18
14308.0	2.365301941338112e+18
14309.0	2.364780369569382e+18
14310.0	2.3642263372431355e+18
14311.0	2.36372027768832e+18
14312.0	2.3631979727552507e+18
14313.0	2.3626846637654016e+18
14314.0	2.3621947925463035e+18
14315.0	2.3616856258510843e+18
14316.0	2.361147515102822e+18
14317.0	2.3606402291335163e+18
14318.0	2.360146782689689e+18
14319.0	2.359636436556185e+18
14320.0	2.3591231493767163e+18
14321.0	2.3586095484633083e+18
14322.0	2.358076301429965e+18
14323.0	2.3575696949379067e+18
14324.0	2.357068921883853e+18
14325.0	2.3565486302167035e+18
14326.0	2.3560423542358006e+18
14327.0	2.355524428156108e+18
14328.0	2.355012332158975e+18
14329.0	2.3545022762713083e+18
14330.0	2.3539890830442486e+18
14331.0	2.3534730779557883e+18
14332.0	2.3529628475850747e+18
14333.0	2.3524498271633403e+18
14334.0	2.3516824993791995e+18
14335.0	2.351024164778802e+18
14336.0	2.3504495669411835e+18
14337.0	2.350003638606233e+18
14338.0	2.3494903916920827e+18
14339.0	2.348970162100633e+18
14340.0	2.3484636445278203e+18
14341.0	2.3479493591039995e+18
14342.0	2.347438575085158e+18
14343.0	2.3469244809215995e+18
14344.0	2.3464093499260923e+18
14345.0	2.345899780577689e+18
14346.0	2.345384659648512e+18
14347.0	2.3448620124602363e+18
14348.0	2.3443582631280635e+18
14349.0	2.343847683791257e+18
14350.0	2.3432796341010427e+18
14351.0	2.3427651540615163e+18
14352.0	2.3423076259594235e+18
14353.0	2.3418011218083835e+18
14354.0	2.3412834910076923e+18
14355.0	2.340759481509478e+18
14356.0	2.340251021135053e+18
14357.0	2.3397557946286075e+18
14358.0	2.3392455575470075e+18
14359.0	2.338723494205849e+18
14360.0	2.3382193673863163e+18
14361.0	2.337709559801446e+18
14362.0	2.3372005575229435e+18
14363.0	2.336686018763161e+18
14364.0	2.3360098097168384e+18
14365.0	2.3355995547762683e+18
14366.0	2.3351273097003003e+18
14367.0	2.334648514799206e+18
14368.0	2.334138990749286e+18
14369.0	2.333629438178099e+18
14370.0	2.3331197413228544e+18
14371.0	2.332206820858265e+18
14372.0	2.3316887253286907e+18
14373.0	2.331181019928985e+18
14374.0	2.3306705295114235e+18
14375.0	2.330159966951833e+18
14376.0	2.3296494715011067e+18
14377.0	2.3291387243921403e+18
14378.0	2.328627391758336e+18
14379.0	2.328118464977305e+18
14380.0	2.327607640693145e+18
14381.0	2.3270908957294587e+18
14382.0	2.3265874047664123e+18
14383.0	2.326076506662502e+18
14384.0	2.325556324047257e+18
14385.0	2.3250593359331323e+18
14386.0	2.3245397824634875e+18
14387.0	2.32404013851607e+18
14388.0	2.3235302051020795e+18
14389.0	2.323021140747878e+18
14390.0	2.3225113298075643e+18
14391.0	2.322003102636441e+18
14392.0	2.32149347289006e+18
14393.0	2.320984977283481e+18
14394.0	2.320451564155699e+18
14395.0	2.3199578291437563e+18
14396.0	2.3194577640882176e+18
14397.0	2.318949640935833e+18
14398.0	2.3184404423639035e+18
14399.0	2.317931515582873e+18
14400.0	2.317413208660377e+18
14401.0	2.3169072397025275e+18
14402.0	2.316391565125222e+18
14403.0	2.3152070701875185e+18
14404.0	2.3131567702409206e+18
14405.0	2.314068085125937e+18
14406.0	2.3143498534354944e+18
14407.0	2.313021691841741e+18
14408.0	2.3133078306160635e+18
14409.0	2.312839610394214e+18
14410.0	2.312331842918809e+18
14411.0	2.3117734871039995e+18
14412.0	2.310908138435379e+18
14413.0	2.3104018154782715e+18
14414.0	2.309892251163033e+18
14415.0	2.309384320948633e+18
14416.0	2.3088717619003387e+18
14417.0	2.3083502857617403e+18
14418.0	2.307845234517606e+18
14419.0	2.307348519872102e+18
14420.0	2.306838809595085e+18
14421.0	2.30633027707863e+18
14422.0	2.3058093378109432e+18
14423.0	2.3052359378665464e+18
14424.0	2.3013225599598574e+18
14425.0	2.3042138715455483e+18
14426.0	2.3037852287762427e+18
14427.0	2.3032890140917757e+18
14428.0	2.302771019225497e+18
14429.0	2.3022765426606075e+18
14430.0	2.301762109597286e+18
14431.0	2.3009717030748155e+18
14432.0	2.300739622168166e+18
14433.0	2.2996120909119483e+18
14434.0	2.299724109027737e+18
14435.0	2.2992139340218365e+18
14436.0	2.2987315538296827e+18
14437.0	2.298229037622886e+18
14438.0	2.2976861973774333e+18
14439.0	2.297208248048025e+18
14440.0	2.296713635587686e+18
14441.0	2.296206312708505e+18
14442.0	2.2956988807774203e+18
14443.0	2.2951730996051965e+18
14444.0	2.2946872112971773e+18
14445.0	2.2941764407001083e+18
14446.0	2.2927353164333056e+18
14447.0	2.293136026815692e+18
14448.0	2.292667848536883e+18
14449.0	2.2921651863683067e+18
14450.0	2.291656653851852e+18
14451.0	2.2911542936731643e+18
14452.0	2.290647287883366e+18
14453.0	2.2901364216561661e+18
14454.0	2.289638478918451e+18
14455.0	2.2891309698121723e+18
14456.0	2.2886229171240955e+18
14457.0	2.2881185822670843e+18
14458.0	2.2876130780381176e+18
14459.0	2.2871054498136061e+18
14460.0	2.2865971119128573e+18
14461.0	2.2857358266859515e+18
14462.0	2.285132491155046e+18
14463.0	2.2846424588746747e+18
14464.0	2.2841479235895293e+18
14465.0	2.2836381747249147e+18
14466.0	2.2831457282031613e+18
14467.0	2.2826256647061501e+18
14468.0	2.2821351559528443e+18
14469.0	2.2816117906997245e+18
14470.0	2.2811122994249723e+18
14471.0	2.2806232536449021e+18
14472.0	2.280121229010534e+18
14473.0	2.2796224155353085e+18
14474.0	2.2791192198512632e+18
14475.0	2.2786123348574203e+18
14476.0	2.2780718702657533e+18
14477.0	2.2776056314331133e+18
14478.0	2.2771036520972283e+18
14479.0	2.2765990320275448e+18
14480.0	2.2760847919022075e+18
14481.0	2.2755924946976765e+18
14482.0	2.275086005646131e+18
14483.0	2.2745794394193915e+18
14484.0	2.274071356532326e+18
14485.0	2.2735517208543224e+18
14486.0	2.2729120928497661e+18
14487.0	2.2725656030740477e+18
14488.0	2.2720351192481792e+18
14489.0	2.2715360323043323e+18
14490.0	2.2710543450111995e+18
14491.0	2.2705579625545723e+18
14492.0	2.2700560469721083e+18
14493.0	2.269544455969177e+18
14494.0	2.269036332816793e+18
14495.0	2.2685424937861117e+18
14496.0	2.2679713587658747e+18
14497.0	2.267539026686771e+18
14498.0	2.267038512001843e+18
14499.0	2.2665358833876987e+18
14500.0	2.266032189420339e+18
14501.0	2.265504951985766e+18
14502.0	2.264899108261069e+18
14503.0	2.2645064895299581e+18
14504.0	2.264017354830643e+18
14505.0	2.263495187470745e+18
14506.0	2.262974575358771e+18
14507.0	2.262381546071654e+18
14508.0	2.2620112913694715e+18
14509.0	2.261512159127142e+18
14510.0	2.261010599221657e+18
14511.0	2.2605078145794045e+18
14512.0	2.2599984364912637e+18
14513.0	2.259502597616435e+18
14514.0	2.2589837336903675e+18
14515.0	2.2584907486199805e+18
14516.0	2.2568590905442304e+18
14517.0	2.257186528113459e+18
14518.0	2.2565571157557243e+18
14519.0	2.2560565842935805e+18
14520.0	2.25555420062679e+18
14521.0	2.2550508774359037e+18
14522.0	2.254542302976409e+18
14523.0	2.2539811587883008e+18
14524.0	2.2534916130471928e+18
14525.0	2.2530360009031677e+18
14526.0	2.2525385799368701e+18
14527.0	2.2520202478485496e+18
14528.0	2.2514716865724408e+18
14529.0	2.2510256592519168e+18
14530.0	2.2505199906062333e+18
14531.0	2.2500247775215608e+18
14532.0	2.2494714380943357e+18
14533.0	2.2490199548231675e+18
14534.0	2.2485225858662395e+18
14535.0	2.248013446014566e+18
14536.0	2.2475158488875005e+18
14537.0	2.2470106365820923e+18
14538.0	2.2465151533842427e+18
14539.0	2.2460134978486264e+18
14540.0	2.2455113977167867e+18
14541.0	2.244993181391257e+18
14542.0	2.2445034360012795e+18
14543.0	2.243968967586611e+18
14544.0	2.2434956621905915e+18
14545.0	2.2429759342379005e+18
14546.0	2.2389331838631916e+18
14547.0	2.2386898471223273e+18
14548.0	2.2414644513603581e+18
14549.0	2.240923720010956e+18
14550.0	2.240486527572377e+18
14551.0	2.239993492170342e+18
14552.0	2.239492524500582e+18
14553.0	2.2389894261243901e+18
14554.0	2.2384913542021115e+18
14555.0	2.2379896852447227e+18
14556.0	2.23748732003287e+18
14557.0	2.2369854732369915e+18
14558.0	2.2364737815707645e+18
14559.0	2.235138021575883e+18
14560.0	2.2354669221183483e+18
14561.0	2.23497561309184e+18
14562.0	2.2344608360955896e+18
14563.0	2.2339715621453821e+18
14564.0	2.2334632225669112e+18
14565.0	2.232976463521382e+18
14566.0	2.232476821251686e+18
14567.0	2.2319731457392632e+18
14568.0	2.231461618489753e+18
14569.0	2.2309671150813184e+18
14570.0	2.2302310164070392e+18
14571.0	2.2299660236357627e+18
14572.0	2.2294454752772093e+18
14573.0	2.2289320488468477e+18
14574.0	2.2284419393912827e+18
14575.0	2.2279553850277885e+18
14576.0	2.227450753214054e+18
14577.0	2.2269652272939003e+18
14578.0	2.2264700947398653e+18
14579.0	2.2259712108003323e+18
14580.0	2.2254710954131448e+18
14581.0	2.2249661817421821e+18
14582.0	2.2240863862128637e+18
14583.0	2.2235346808864765e+18
14584.0	2.2230190599962621e+18
14585.0	2.2225298816761853e+18
14586.0	2.222028883807436e+18
14587.0	2.2215286157475837e+18
14588.0	2.221027805783654e+18
14589.0	2.2205319182548987e+18
14590.0	2.2200365675970552e+18
14591.0	2.2195395224403968e+18
14592.0	2.219038433974681e+18
14593.0	2.218485574375833e+18
14594.0	2.2180516350394365e+18
14595.0	2.217553487619686e+18
14596.0	2.216908905303244e+18
14597.0	2.2163842683371515e+18
14598.0	2.216050255776972e+18
14599.0	2.2155750528778237e+18
14600.0	2.2150791519272957e+18
14601.0	2.2145840613163005e+18
14602.0	2.21408733995991e+18
14603.0	2.2135911856734203e+18
14604.0	2.2130716456255485e+18
14605.0	2.212585509014732e+18
14606.0	2.2120677339299837e+18
14607.0	2.211605768254259e+18
14608.0	2.2111139877879805e+18
14609.0	2.2106158974107643e+18
14610.0	2.2101198756642816e+18
14611.0	2.2096256943783936e+18
14612.0	2.2091344843374587e+18
14613.0	2.208640831533875e+18
14614.0	2.208144620204851e+18
14615.0	2.2076499792232445e+18
14616.0	2.207155777804697e+18
14617.0	2.2066588047900667e+18
14618.0	2.2061418769547261e+18
14619.0	2.2054741370470392e+18
14620.0	2.204769908372275e+18
14621.0	2.2046682921304061e+18
14622.0	2.2041819827142653e+18
14623.0	2.2036877359972347e+18
14624.0	2.203162172928819e+18
14625.0	2.2026945231323133e+18
14626.0	2.2022019860135936e+18
14627.0	2.201704971055923e+18
14628.0	2.2012123752169467e+18
14629.0	2.2007162192527355e+18
14630.0	2.2002187412439037e+18
14631.0	2.1997226289004544e+18
14632.0	2.1989659747811323e+18
14633.0	2.1986696488812536e+18
14634.0	2.198231209895526e+18
14635.0	2.1977161694969853e+18
14636.0	2.197177223243366e+18
14637.0	2.1967500367364093e+18
14638.0	2.1962439268499448e+18
14639.0	2.1957413770887163e+18
14640.0	2.195238575669248e+18
14641.0	2.1936969374236662e+18
14642.0	2.194243463623475e+18
14643.0	2.1937669873336317e+18
14644.0	2.1932635735457787e+18
14645.0	2.1927648322125821e+18
14646.0	2.192259304495513e+18
14647.0	2.1917595431075832e+18
14648.0	2.1912748778586104e+18
14649.0	2.1907787336384512e+18
14650.0	2.1902774438461437e+18
