# Flux units: erg / (cm m2 s)
# Wavelength units: Angstrom
wave	flux
14000.0	2.459355088053861e+18
14001.0	2.458862530802483e+18
14002.0	2.458420516592025e+18
14003.0	2.4578542704525307e+18
14004.0	2.457271059192217e+18
14005.0	2.4567067474657275e+18
14006.0	2.4561087319900155e+18
14007.0	2.455523943671398e+18
14008.0	2.454650840573542e+18
14009.0	2.4544035578314747e+18
14010.0	2.4537827857399803e+18
14011.0	2.4515577779322885e+18
14012.0	2.45267310879703e+18
14013.0	2.45211023320023e+18
14014.0	2.4515125968895995e+18
14015.0	2.450826053078221e+18
14016.0	2.4502546965987323e+18
14017.0	2.449680657442406e+18
14018.0	2.449109420081152e+18
14019.0	2.4485382951272443e+18
14020.0	2.447958546684313e+18
14021.0	2.4473856399900667e+18
14022.0	2.446773462866329e+18
14023.0	2.4460248332894203e+18
14024.0	2.4455391815401467e+18
14025.0	2.445085168264806e+18
14026.0	2.444519620057497e+18
14027.0	2.4439496661532667e+18
14028.0	2.4433575948451835e+18
14029.0	2.4427884244369403e+18
14030.0	2.4306291925057633e+18
14031.0	2.4414296528125937e+18
14032.0	2.4410297645137915e+18
14033.0	2.440153968672768e+18
14034.0	2.439781848344166e+18
14035.0	2.4392301010747387e+18
14036.0	2.438630545450598e+18
14037.0	2.4380923424276475e+18
14038.0	2.437534620791603e+18
14039.0	2.436955852138086e+18
14040.0	2.4363657773187067e+18
14041.0	2.4358183115948027e+18
14042.0	2.4352270992801787e+18
14043.0	2.434575888285695e+18
14044.0	2.4340929812889595e+18
14045.0	2.433537202454527e+18
14046.0	2.4329602172190715e+18
14047.0	2.4323362843000827e+18
14048.0	2.4318257636835323e+18
14049.0	2.4312737848885243e+18
14050.0	2.4307031666065403e+18
14051.0	2.4300936654487547e+18
14052.0	2.4294684977266683e+18
14053.0	2.428871678466457e+18
14054.0	2.4283059943636987e+18
14055.0	2.4277313461944315e+18
14056.0	2.4271701265088507e+18
14057.0	2.426594314000793e+18
14058.0	2.4260342401990656e+18
14059.0	2.4254455847321595e+18
14060.0	2.4248983471783926e+18
14061.0	2.4243126478569467e+18
14062.0	2.423763918808678e+18
14063.0	2.4231422491361275e+18
14064.0	2.421097129993831e+18
14065.0	2.4220382579916795e+18
14066.0	2.421487040882278e+18
14067.0	2.420617705947136e+18
14068.0	2.4203588368596987e+18
14069.0	2.4197582762803195e+18
14070.0	2.419219848442675e+18
14071.0	2.4186565366382587e+18
14072.0	2.4180943774285824e+18
14073.0	2.4175317434236923e+18
14074.0	2.4169546608803835e+18
14075.0	2.4162029610729467e+18
14076.0	2.4153845131116544e+18
14077.0	2.4122775052484613e+18
14078.0	2.41435411522519e+18
14079.0	2.413973950221517e+18
14080.0	2.413450821527142e+18
14081.0	2.4128868201791483e+18
14082.0	2.4122789547999227e+18
14083.0	2.4117463419453435e+18
14084.0	2.411187130492518e+18
14085.0	2.408039498278502e+18
14086.0	2.4098132795064315e+18
14087.0	2.4094990623834107e+18
14088.0	2.408857865709158e+18
14089.0	2.408095799259955e+18
14090.0	2.4077591778426875e+18
14091.0	2.407244862219878e+18
14092.0	2.406678471796326e+18
14093.0	2.4061209263210486e+18
14094.0	2.405556054235545e+18
14095.0	2.4049841843732475e+18
14096.0	2.4038466991947776e+18
14097.0	2.403563207865138e+18
14098.0	2.403017171560038e+18
14099.0	2.4027119403139067e+18
14100.0	2.4019960749621243e+18
14101.0	2.4015019255529467e+18
14102.0	2.400933389323469e+18
14103.0	2.400341853208576e+18
14104.0	2.3998074267369467e+18
14105.0	2.399249859451289e+18
14106.0	2.3986944698482683e+18
14107.0	2.3981159142653947e+18
14108.0	2.3974954055761915e+18
14109.0	2.3969904650616827e+18
14110.0	2.39638722683863e+18
14111.0	2.3957717529919483e+18
14112.0	2.3952790850109435e+18
14113.0	2.3945712962109435e+18
14114.0	2.394136774705152e+18
14115.0	2.3935901058990075e+18
14116.0	2.392361444940184e+18
14117.0	2.3741512516894756e+18
14118.0	2.3919049066938363e+18
14119.0	2.3910001953210363e+18
14120.0	2.390505274159922e+18
14121.0	2.3901404066217984e+18
14122.0	2.3895013607866363e+18
14123.0	2.3886116230791163e+18
14124.0	2.388030713652838e+18
14125.0	2.3865322163404785e+18
14126.0	2.3873367073357824e+18
14127.0	2.386815808333414e+18
14128.0	2.386248590793113e+18
14129.0	2.3856544323993595e+18
14130.0	2.385059539163545e+18
14131.0	2.3845571554967547e+18
14132.0	2.3839992006574075e+18
14133.0	2.381738588241916e+18
14134.0	2.382903608187289e+18
14135.0	2.382138179583999e+18
14136.0	2.380772475614003e+18
14137.0	2.381163357903257e+18
14138.0	2.3804104618803195e+18
14139.0	2.3801149144432635e+18
14140.0	2.3794707666567163e+18
14141.0	2.3787710275649526e+18
14142.0	2.376728869601281e+18
14143.0	2.377792001513881e+18
14144.0	2.3773411792650235e+18
14145.0	2.376788737418854e+18
14146.0	2.3761978338050043e+18
14147.0	2.375651453566976e+18
14148.0	2.375022593179647e+18
14149.0	2.3744313556991995e+18
14150.0	2.3740161028259835e+18
14151.0	2.3732513687994363e+18
14152.0	2.3729039176892406e+18
14153.0	2.3723557942984704e+18
14154.0	2.371709754041958e+18
14155.0	2.370262534612583e+18
14156.0	2.370579112289893e+18
14157.0	2.370129880521113e+18
14158.0	2.3695286622748667e+18
14159.0	2.3689129602580475e+18
14160.0	2.3683435532910587e+18
14161.0	2.3675933231677435e+18
14162.0	2.366898476312166e+18
14163.0	2.366668259354214e+18
14164.0	2.3654293844262907e+18
14165.0	2.3647286202466304e+18
14166.0	2.364997117778329e+18
14167.0	2.3644254962188283e+18
14168.0	2.3638188018892795e+18
14169.0	2.3633553765957627e+18
14170.0	2.362757775517286e+18
14171.0	2.3622405792464896e+18
14172.0	2.361722557536665e+18
14173.0	2.3607690798301184e+18
14174.0	2.360577031038566e+18
14175.0	2.360054944209305e+18
14176.0	2.359494647270605e+18
14177.0	2.358954640696934e+18
14178.0	2.35840088351703e+18
14179.0	2.357779869833625e+18
14180.0	2.357310859404902e+18
14181.0	2.3567562818191355e+18
14182.0	2.356205286168985e+18
14183.0	2.355654986773298e+18
14184.0	2.3550327567417344e+18
14185.0	2.3544727181721595e+18
14186.0	2.3500514452832266e+18
14187.0	2.353276183904255e+18
14188.0	2.3528214877962235e+18
14189.0	2.3522433231224827e+18
14190.0	2.3517079302832123e+18
14191.0	2.351141247936102e+18
14192.0	2.3506028603637755e+18
14193.0	2.3494180902797307e+18
14194.0	2.349502712879513e+18
14195.0	2.3488810851500027e+18
14196.0	2.3483326983569403e+18
14197.0	2.3477793438302203e+18
14198.0	2.3472199411171323e+18
14199.0	2.3466541781614587e+18
14200.0	2.343901374237902e+18
14201.0	2.3455046905626614e+18
14202.0	2.3450311519633403e+18
14203.0	2.3443973255200763e+18
14204.0	2.34390718251008e+18
14205.0	2.3433848322785275e+18
14206.0	2.342440835376742e+18
14207.0	2.342298849797734e+18
14208.0	2.341751523324723e+18
14209.0	2.340761149164748e+18
14210.0	2.3403676311748593e+18
14211.0	2.3400846498725883e+18
14212.0	2.339558435848191e+18
14213.0	2.3389530887290875e+18
14214.0	2.338466747436237e+18
14215.0	2.3378748422225915e+18
14216.0	2.3373684202799104e+18
14217.0	2.3368309890088955e+18
14218.0	2.3362413000654843e+18
14219.0	2.3357334084386816e+18
14220.0	2.3351756985466875e+18
14221.0	2.3345750406594555e+18
14222.0	2.3336021684912123e+18
14223.0	2.333539233798553e+18
14224.0	2.333002091095654e+18
14225.0	2.3265020892676147e+18
14226.0	2.331884203383193e+18
14227.0	2.331363292636774e+18
14228.0	2.318816584191185e+18
14229.0	2.328271496675318e+18
14230.0	2.329733226718822e+18
14231.0	2.328719632891904e+18
14232.0	2.3286493497786363e+18
14233.0	2.328077390997094e+18
14234.0	2.3275607097868283e+18
14235.0	2.3269365369536507e+18
14236.0	2.326360346958233e+18
14237.0	2.325799769840025e+18
14238.0	2.325263018046259e+18
14239.0	2.324664829765222e+18
14240.0	2.32010725374034e+18
14241.0	2.323572362890445e+18
14242.0	2.3230686320132086e+18
14243.0	2.322051150905344e+18
14244.0	2.3220135447756795e+18
14245.0	2.3214050603171835e+18
14246.0	2.3208315244773376e+18
14247.0	2.3203658829135867e+18
14248.0	2.3198024637349883e+18
14249.0	2.3192813348847606e+18
14250.0	2.3187483680309243e+18
14251.0	2.3182057995763707e+18
14252.0	2.317668130068889e+18
14253.0	2.317121936057958e+18
14254.0	2.316575228664217e+18
14255.0	2.3159381994504187e+18
14256.0	2.309081344560338e+18
14257.0	2.3146757038800886e+18
14258.0	2.314343880746598e+18
14259.0	2.3137174798991355e+18
14260.0	2.3130722382381056e+18
14261.0	2.3126389767012347e+18
14262.0	2.3121749709160443e+18
14263.0	2.3024156090040392e+18
14264.0	2.3093725366321137e+18
14265.0	2.31050868466647e+18
14266.0	2.3100274906234875e+18
14267.0	2.309493646321254e+18
14268.0	2.3089408823525376e+18
14269.0	2.3083831758159867e+18
14270.0	2.3078743866081275e+18
14271.0	2.307312703871385e+18
14272.0	2.306780817470259e+18
14273.0	2.3062011596242944e+18
14274.0	2.2920840332968015e+18
14275.0	2.3037803315068933e+18
14276.0	2.3045085918658557e+18
14277.0	2.3040147931004928e+18
14278.0	2.3035556963287037e+18
14279.0	2.303015733375795e+18
14280.0	2.3024558156021755e+18
14281.0	2.3019413322072056e+18
14282.0	2.301403370776166e+18
14283.0	2.300864213129625e+18
14284.0	2.3002281653829627e+18
14285.0	2.2996753410162683e+18
14286.0	2.2991235752919037e+18
14287.0	2.2985977018449912e+18
14288.0	2.2980578580103165e+18
14289.0	2.2948991343787973e+18
14290.0	2.2969639550058493e+18
14291.0	2.2964424537014267e+18
14292.0	2.2959016200110075e+18
14293.0	2.2953641585410043e+18
14294.0	2.2943818676436992e+18
14295.0	2.2942315253334013e+18
14296.0	2.291614138708789e+18
14297.0	2.293208536265523e+18
14298.0	2.2902214016106483e+18
14299.0	2.292010366219059e+18
14300.0	2.2915682412789757e+18
14301.0	2.2910372658806781e+18
14302.0	2.2905081191989245e+18
14303.0	2.2898437045354493e+18
14304.0	2.2893722345668605e+18
14305.0	2.288854608799334e+18
14306.0	2.288012062044979e+18
14307.0	2.2875962655899643e+18
14308.0	2.287120968738406e+18
14309.0	2.2864599766269947e+18
14310.0	2.2847497374269427e+18
14311.0	2.2843184035921915e+18
14312.0	2.2842727712423936e+18
14313.0	2.2841672509423613e+18
14314.0	2.2838355855147005e+18
14315.0	2.2834330950696955e+18
14316.0	2.2827895630069757e+18
14317.0	2.2820493035831296e+18
14318.0	2.2819230198005757e+18
14319.0	2.2814085716377595e+18
14320.0	2.2808811362320384e+18
14321.0	2.2803359656312835e+18
14322.0	2.279680239887974e+18
14323.0	2.2792369657085947e+18
14324.0	2.2787492436508667e+18
14325.0	2.27819456036864e+18
14326.0	2.2777017548144632e+18
14327.0	2.2771448183521277e+18
14328.0	2.2766087678459901e+18
14329.0	2.276105023546982e+18
14330.0	2.2755693874380795e+18
14331.0	2.2749732040343547e+18
14332.0	2.27450419192791e+18
14333.0	2.2739733037711357e+18
14334.0	2.2734417160044536e+18
14335.0	2.2728633382600701e+18
14336.0	2.271660111560704e+18
14337.0	2.2718305596866555e+18
14338.0	2.2712988712566776e+18
14339.0	2.2706576007626752e+18
14340.0	2.2701348143235067e+18
14341.0	2.2695522003320827e+18
14342.0	2.2690642383601661e+18
14343.0	2.2685060385734648e+18
14344.0	2.267972508005171e+18
14345.0	2.2674718943346683e+18
14346.0	2.266909889475379e+18
14347.0	2.266176049014374e+18
14348.0	2.2658469320458232e+18
14349.0	2.2653486034321403e+18
14350.0	2.2642759957479414e+18
14351.0	2.2636958899503089e+18
14352.0	2.2637312898760701e+18
14353.0	2.2632292551753723e+18
14354.0	2.262630721283686e+18
14355.0	2.261972792691916e+18
14356.0	2.2614943064915955e+18
14357.0	2.2611134670438392e+18
14358.0	2.2605812820082683e+18
14359.0	2.2599939066429437e+18
14360.0	2.259474356528742e+18
14361.0	2.2589730919022587e+18
14362.0	2.2584587041374205e+18
14363.0	2.25792842834903e+18
14364.0	2.2555335898169347e+18
14365.0	2.2565332149338092e+18
14366.0	2.2560563779338237e+18
14367.0	2.255810284696371e+18
14368.0	2.2552799988416504e+18
14369.0	2.254756910412595e+18
14370.0	2.2542253645889533e+18
14371.0	2.2537026972680187e+18
14372.0	2.2531481733693432e+18
14373.0	2.2526373759287293e+18
14374.0	2.252112039352729e+18
14375.0	2.2515777018003456e+18
14376.0	2.2509998542159867e+18
14377.0	2.250450474211737e+18
14378.0	2.2499150327185405e+18
14379.0	2.249394569923788e+18
14380.0	2.248863252270284e+18
14381.0	2.2482937832275968e+18
14382.0	2.2478021923438587e+18
14383.0	2.247218611984793e+18
14384.0	2.2466710153986043e+18
14385.0	2.2462231375511552e+18
14386.0	2.2456284489973757e+18
14387.0	2.245160055970201e+18
14388.0	2.244622351230566e+18
14389.0	2.2441085456351227e+18
14390.0	2.2435749999673344e+18
14391.0	2.2430295844192253e+18
14392.0	2.2425116281405437e+18
14393.0	2.241996356216422e+18
14394.0	2.2413290776821757e+18
14395.0	2.2406800544366587e+18
14396.0	2.240396006103449e+18
14397.0	2.2398840543903747e+18
14398.0	2.239342388550041e+18
14399.0	2.2387994241531896e+18
14400.0	2.2381585579900923e+18
14401.0	2.237738369259929e+18
14402.0	2.2372205220331515e+18
14403.0	2.2251135427411802e+18
14404.0	2.2059830705389501e+18
14405.0	2.2314708358922127e+18
14406.0	2.2350189385744376e+18
14407.0	2.2172422820069453e+18
14408.0	2.2336024969478136e+18
14409.0	2.2334040610701304e+18
14410.0	2.2328020022853627e+18
14411.0	2.2323981126205437e+18
14412.0	2.2318711083892733e+18
14413.0	2.2313542023643136e+18
14414.0	2.230822347839897e+18
14415.0	2.230298808103731e+18
14416.0	2.2296659547389942e+18
14417.0	2.2288847857516544e+18
14418.0	2.2284133392711677e+18
14419.0	2.2281804346032123e+18
14420.0	2.2276416259227645e+18
14421.0	2.2271282515017723e+18
14422.0	2.2265648927211512e+18
14423.0	2.225837825222246e+18
14424.0	2.1645369230229204e+18
14425.0	2.2248979118948347e+18
14426.0	2.224489326287257e+18
14427.0	2.2239795841335286e+18
14428.0	2.2233712791912445e+18
14429.0	2.2229227990417408e+18
14430.0	2.2224062570823677e+18
14431.0	2.2190276126703624e+18
14432.0	2.2212841213788152e+18
14433.0	2.2077881899286456e+18
14434.0	2.2202297605947387e+18
14435.0	2.219346329442713e+18
14436.0	2.2192431143321595e+18
14437.0	2.2187286678470653e+18
14438.0	2.2175528651849728e+18
14439.0	2.217539473611161e+18
14440.0	2.217157587265126e+18
14441.0	2.2166209914994683e+18
14442.0	2.2160848604626936e+18
14443.0	2.2154359680794621e+18
14444.0	2.2150418393989115e+18
14445.0	2.2145279583059958e+18
14446.0	2.199487112019974e+18
14447.0	2.21341021152215e+18
14448.0	2.2129575723007992e+18
14449.0	2.2124291453616123e+18
14450.0	2.21188528841687e+18
14451.0	2.211359636429209e+18
14452.0	2.2108215223255032e+18
14453.0	2.2100391269236733e+18
14454.0	2.209775875627417e+18
14455.0	2.2092275307773947e+18
14456.0	2.2086335418335227e+18
14457.0	2.2080673208598523e+18
14458.0	2.2075235209576443e+18
14459.0	2.2070011958919158e+18
14460.0	2.206396172573081e+18
14461.0	2.2054317544439803e+18
14462.0	2.2041674502897661e+18
14463.0	2.204615943861043e+18
14464.0	2.2043565446135803e+18
14465.0	2.2038692419862523e+18
14466.0	2.2034258335891448e+18
14467.0	2.2026971957428221e+18
14468.0	2.202389124114022e+18
14469.0	2.2016426990632955e+18
14470.0	2.2012861614129147e+18
14471.0	2.2008426691297277e+18
14472.0	2.20033472046039e+18
14473.0	2.1998396617261053e+18
14474.0	2.1993306376372221e+18
14475.0	2.1987849989521405e+18
14476.0	2.197412683081319e+18
14477.0	2.1977495007920123e+18
14478.0	2.1972320293748733e+18
14479.0	2.1966893988446203e+18
14480.0	2.196135681930035e+18
14481.0	2.1955992170266621e+18
14482.0	2.1950547812679677e+18
14483.0	2.19450744808407e+18
14484.0	2.1939933069443067e+18
14485.0	2.1933613293502461e+18
14486.0	2.1920026768441344e+18
14487.0	2.1924125408755704e+18
14488.0	2.1912486148046848e+18
14489.0	2.1910963078823928e+18
14490.0	2.1908215121838075e+18
14491.0	2.1903568973856765e+18
14492.0	2.189835963151155e+18
14493.0	2.189244984039833e+18
14494.0	2.188709087884083e+18
14495.0	2.1882637064863744e+18
14496.0	2.1873009325244416e+18
14497.0	2.1872118102753277e+18
14498.0	2.186693317125734e+18
14499.0	2.1861783337697275e+18
14500.0	2.1856542772953085e+18
14501.0	2.184677730916761e+18
14502.0	2.1832940132499459e+18
14503.0	2.18385664222167e+18
14504.0	2.1835351890853883e+18
14505.0	2.18251486423941e+18
14506.0	2.1815157541830653e+18
14507.0	2.181115647780455e+18
14508.0	2.181377830368051e+18
14509.0	2.180854027229593e+18
14510.0	2.1803271622492155e+18
14511.0	2.1798113299660795e+18
14512.0	2.1792275415695357e+18
14513.0	2.1787640776884221e+18
14514.0	2.1780972756271101e+18
14515.0	2.1777089552187387e+18
14516.0	2.1709173435662387e+18
14517.0	2.1766633252978683e+18
14518.0	2.1761458706579456e+18
14519.0	2.1756173480886267e+18
14520.0	2.1750974523637757e+18
14521.0	2.1745690120028155e+18
14522.0	2.1739852286394365e+18
14523.0	2.1721844931362806e+18
14524.0	2.1719427015770104e+18
14525.0	2.1724552086159355e+18
14526.0	2.1719362389934077e+18
14527.0	2.1713485415055355e+18
14528.0	2.170436121001984e+18
14529.0	2.170347052439961e+18
14530.0	2.1697933422362621e+18
14531.0	2.169324838479462e+18
14532.0	2.167460116352204e+18
14533.0	2.1682785022377981e+18
14534.0	2.1677655891902464e+18
14535.0	2.1672001819115515e+18
14536.0	2.166701495943168e+18
14537.0	2.1661411788718077e+18
14538.0	2.1656653115949048e+18
14539.0	2.1651404548472827e+18
14540.0	2.164620582610534e+18
14541.0	2.1640066556231677e+18
14542.0	2.163552088699699e+18
14543.0	2.1623828392181755e+18
14544.0	2.1625045847638016e+18
14545.0	2.161943818063052e+18
14546.0	2.1096881018896174e+18
14547.0	2.1137285537857265e+18
14548.0	2.1603571464142843e+18
14549.0	2.1594946045739003e+18
14550.0	2.159286959682355e+18
14551.0	2.1587641178783744e+18
14552.0	2.1582274600370173e+18
14553.0	2.157686211949363e+18
14554.0	2.157185338232012e+18
14555.0	2.156657233415372e+18
14556.0	2.1561067763138555e+18
14557.0	2.1556005707972608e+18
14558.0	2.1550509475233787e+18
14559.0	2.149547314354576e+18
14560.0	2.1536765177233403e+18
14561.0	2.153454721250099e+18
14562.0	2.1528161871200253e+18
14563.0	2.1523973590220795e+18
14564.0	2.1516192049004544e+18
14565.0	2.151394128481484e+18
14566.0	2.1508683691196416e+18
14567.0	2.1502877583278075e+18
14568.0	2.1492988437856256e+18
14569.0	2.1492280439341053e+18
14570.0	2.1470650027737083e+18
14571.0	2.1481561895469053e+18
14572.0	2.1472383953010683e+18
14573.0	2.1468182720020477e+18
14574.0	2.1458631752941568e+18
14575.0	2.1458633917202427e+18
14576.0	2.145371727016755e+18
14577.0	2.144954241096089e+18
14578.0	2.1444512836485117e+18
14579.0	2.1439318576857083e+18
14580.0	2.1433993371058173e+18
14581.0	2.142822650504806e+18
14582.0	2.1423002985955325e+18
14583.0	2.1418216060354557e+18
14584.0	2.141152517239603e+18
14585.0	2.14076444681175e+18
14586.0	2.1402267269726205e+18
14587.0	2.139690626134835e+18
14588.0	2.1391706834337787e+18
14589.0	2.1386632498249725e+18
14590.0	2.1381524087635965e+18
14591.0	2.137591900431974e+18
14592.0	2.1370794068148221e+18
14593.0	2.1362155278303227e+18
14594.0	2.1360767265669115e+18
14595.0	2.1355384144920573e+18
14596.0	2.133603991420926e+18
14597.0	2.1328644097966054e+18
14598.0	2.133854146422374e+18
14599.0	2.1334808214896637e+18
14600.0	2.1329205044183035e+18
14601.0	2.1324074588307453e+18
14602.0	2.1318098694963195e+18
14603.0	2.1313397047951355e+18
14604.0	2.1306290437357565e+18
14605.0	2.1300386132393976e+18
14606.0	2.1295468663275515e+18
14607.0	2.1292814490927101e+18
14608.0	2.128756224924057e+18
14609.0	2.1281115687878653e+18
14610.0	2.127412489040691e+18
14611.0	2.1270924267356155e+18
14612.0	2.1266875975467005e+18
14613.0	2.1262078547329021e+18
14614.0	2.1256925828087803e+18
14615.0	2.1251411660505083e+18
14616.0	2.1246761519546363e+18
14617.0	2.124153803400806e+18
14618.0	2.1233095688585216e+18
14619.0	2.1220053684846556e+18
14620.0	2.1184009530769416e+18
14621.0	2.1220716871417853e+18
14622.0	2.1215442685132795e+18
14623.0	2.1210226682232827e+18
14624.0	2.120284594870681e+18
14625.0	2.1199425846116347e+18
14626.0	2.119397658958233e+18
14627.0	2.1188506999062525e+18
14628.0	2.118385553270374e+18
14629.0	2.117857825941094e+18
14630.0	2.1172986144882688e+18
14631.0	2.11679995536343e+18
14632.0	2.110632806789942e+18
14633.0	2.1148486309248998e+18
14634.0	2.115153749763686e+18
14635.0	2.1136058804600778e+18
14636.0	2.111061929387621e+18
14637.0	2.1136453002067965e+18
14638.0	2.1130104922963963e+18
14639.0	2.112476109445529e+18
14640.0	2.1120288288669693e+18
14641.0	2.0906052585258872e+18
14642.0	2.1109608651161597e+18
14643.0	2.110443702399795e+18
14644.0	2.109855726410137e+18
14645.0	2.109295822058291e+18
14646.0	2.108494961652531e+18
14647.0	2.1079161762217976e+18
14648.0	2.1076696182554614e+18
14649.0	2.107230097139302e+18
