# Flux units: erg / (cm m2 s)
# Wavelength units: Angstrom
wave	flux
14000.0	1.9929398580871163e+18
14001.0	1.9925055899172861e+18
14002.0	1.9922265781043192e+18
14003.0	1.9918484448215037e+18
14004.0	1.991469689103974e+18
14005.0	1.9910906850836475e+18
14006.0	1.990704359486259e+18
14007.0	1.9903231425511421e+18
14008.0	1.9898609889705981e+18
14009.0	1.9895676745809917e+18
14010.0	1.98917898675159e+18
14011.0	1.988203545991577e+18
14012.0	1.9884327059849216e+18
14013.0	1.9880616275214333e+18
14014.0	1.9876782832353275e+18
14015.0	1.9873042402377728e+18
14016.0	1.9869284305993728e+18
14017.0	1.9865508123770877e+18
14018.0	1.9861730213494781e+18
14019.0	1.985795354473267e+18
14020.0	1.985416976243097e+18
14021.0	1.9850387372638203e+18
14022.0	1.9846615988699133e+18
14023.0	1.984273463010918e+18
14024.0	1.983894730781491e+18
14025.0	1.9835304168914944e+18
14026.0	1.9831518188797947e+18
14027.0	1.982776386728755e+18
14028.0	1.9823927085760507e+18
14029.0	1.9820172680364027e+18
14030.0	1.9813314775220221e+18
14031.0	1.9812304518381565e+18
14032.0	1.9808903139164155e+18
14033.0	1.9804735427051515e+18
14034.0	1.9801391744679933e+18
14035.0	1.9797636953407483e+18
14036.0	1.9793876843757563e+18
14037.0	1.9790116549558272e+18
14038.0	1.9786356574126075e+18
14039.0	1.9782552994709501e+18
14040.0	1.9778795082874877e+18
14041.0	1.9775062420750333e+18
14042.0	1.9771216545972221e+18
14043.0	1.9767179444486144e+18
14044.0	1.9763695588474875e+18
14045.0	1.9760019364904955e+18
14046.0	1.9756253785882616e+18
14047.0	1.9752478425743355e+18
14048.0	1.974879190096281e+18
14049.0	1.9745049893928955e+18
14050.0	1.9741299817054205e+18
14051.0	1.9737467783479293e+18
14052.0	1.973375465003417e+18
14053.0	1.9730054284050427e+18
14054.0	1.9726309676548093e+18
14055.0	1.9722564146298877e+18
14056.0	1.971881906903449e+18
14057.0	1.971507548494233e+18
14058.0	1.9711332320280573e+18
14059.0	1.9707590111920125e+18
14060.0	1.9703848104886272e+18
14061.0	1.970004125391257e+18
14062.0	1.969636385593753e+18
14063.0	1.9692472481349627e+18
14064.0	1.9688313694715901e+18
14065.0	1.9685068091949048e+18
14066.0	1.9681417671737344e+18
14067.0	1.9677683382222843e+18
14068.0	1.9673948438396925e+18
14069.0	1.9670204434874368e+18
14070.0	1.9666479960031227e+18
14071.0	1.9662721930756093e+18
14072.0	1.9659019148853245e+18
14073.0	1.9655289003311101e+18
14074.0	1.9651559931510781e+18
14075.0	1.9647649380564987e+18
14076.0	1.964407850113433e+18
14077.0	1.9639668643463163e+18
14078.0	1.9636584756281336e+18
14079.0	1.9632822364930045e+18
14080.0	1.9629199593570301e+18
14081.0	1.9625477282988027e+18
14082.0	1.9621740929875965e+18
14083.0	1.961801293181747e+18
14084.0	1.9614276914249725e+18
14085.0	1.9608037450842107e+18
14086.0	1.960674483345817e+18
14087.0	1.9603145063661565e+18
14088.0	1.9599319355097088e+18
14089.0	1.9595721481125883e+18
14090.0	1.9591999791300603e+18
14091.0	1.958829326807859e+18
14092.0	1.95845805876183e+18
14093.0	1.958086748772761e+18
14094.0	1.9577154069069821e+18
14095.0	1.9573436942647293e+18
14096.0	1.9569601033535483e+18
14097.0	1.956584174596915e+18
14098.0	1.9562256555573243e+18
14099.0	1.9558600531771387e+18
14100.0	1.9554779755708416e+18
14101.0	1.95511943472087e+18
14102.0	1.95474871025664e+18
14103.0	1.9543638375661565e+18
14104.0	1.9540051138445312e+18
14105.0	1.953637818643251e+18
14106.0	1.9532676646043645e+18
14107.0	1.9528971649548288e+18
14108.0	1.9525152416989181e+18
14109.0	1.952152823634329e+18
14110.0	1.9517852717416443e+18
14111.0	1.9514084940578808e+18
14112.0	1.9510390966714363e+18
14113.0	1.95067800232919e+18
14114.0	1.950294371152691e+18
14115.0	1.9499359058001915e+18
14116.0	1.9495466240573437e+18
14117.0	1.948636798989107e+18
14118.0	1.9488239857434621e+18
14119.0	1.948447006733107e+18
14120.0	1.94808541914071e+18
14121.0	1.9477109751676925e+18
14122.0	1.9473482534354941e+18
14123.0	1.94697929728983e+18
14124.0	1.946602603492147e+18
14125.0	1.945787542850764e+18
14126.0	1.9458736619782141e+18
14127.0	1.9455112204255227e+18
14128.0	1.9451425310375933e+18
14129.0	1.9447634867519488e+18
14130.0	1.9443849038397435e+18
14131.0	1.9440383956090877e+18
14132.0	1.943656482419507e+18
14133.0	1.9427636879032312e+18
14134.0	1.9429258933829632e+18
14135.0	1.9425535264292861e+18
14136.0	1.94219539997655e+18
14137.0	1.9418307639640064e+18
14138.0	1.9414607357542397e+18
14139.0	1.941097334544793e+18
14140.0	1.9407274439081981e+18
14141.0	1.9403536223698941e+18
14142.0	1.939963062203187e+18
14143.0	1.9396259508912125e+18
14144.0	1.939262553037209e+18
14145.0	1.938894506216652e+18
14146.0	1.9385278300946427e+18
14147.0	1.9381618099617787e+18
14148.0	1.937795637156249e+18
14149.0	1.9374297831178237e+18
14150.0	1.937063244568985e+18
14151.0	1.9366945098825725e+18
14152.0	1.9363306959536125e+18
14153.0	1.935964336920985e+18
14154.0	1.9355714933751805e+18
14155.0	1.9352222437474296e+18
14156.0	1.9348646558433275e+18
14157.0	1.9344999946649597e+18
14158.0	1.934130335553945e+18
14159.0	1.933768190957977e+18
14160.0	1.9333912253693947e+18
14161.0	1.932979378271027e+18
14162.0	1.932565667223961e+18
14163.0	1.9323009126891515e+18
14164.0	1.931914907536588e+18
14165.0	1.9315415255613437e+18
14166.0	1.9312073905274877e+18
14167.0	1.9308303158870016e+18
14168.0	1.9304796099969021e+18
14169.0	1.930116002427699e+18
14170.0	1.9297483733598205e+18
14171.0	1.9293835058216955e+18
14172.0	1.9290214316900347e+18
14173.0	1.9286299538096128e+18
14174.0	1.9282858195550203e+18
14175.0	1.9279282702385147e+18
14176.0	1.9275641744523256e+18
14177.0	1.9271999931023355e+18
14178.0	1.926835144019148e+18
14179.0	1.9264663892000765e+18
14180.0	1.9261077829189627e+18
14181.0	1.9257438817484797e+18
14182.0	1.9253792524468221e+18
14183.0	1.9250160995401725e+18
14184.0	1.9246471131955197e+18
14185.0	1.9242865540464635e+18
14186.0	1.9238067239911421e+18
14187.0	1.923531069299097e+18
14188.0	1.9231938539683835e+18
14189.0	1.922834202466713e+18
14190.0	1.9224710881476603e+18
14191.0	1.9221076231847933e+18
14192.0	1.921737098369433e+18
14193.0	1.9213666842836987e+18
14194.0	1.9210186107387904e+18
14195.0	1.9206576640360445e+18
14196.0	1.9202948366073853e+18
14197.0	1.9199322188939261e+18
14198.0	1.9195647659868155e+18
14199.0	1.919205002077798e+18
14200.0	1.918783721150873e+18
14201.0	1.9184761343836152e+18
14202.0	1.9181182746886144e+18
14203.0	1.91775187706839e+18
14204.0	1.917393057716633e+18
14205.0	1.9170299886960637e+18
14206.0	1.9165465666387965e+18
14207.0	1.9163067816345597e+18
14208.0	1.9159472391847933e+18
14209.0	1.9154529807237115e+18
14210.0	1.915126548109721e+18
14211.0	1.9148578106638333e+18
14212.0	1.9145019709456381e+18
14213.0	1.9141418060611581e+18
14214.0	1.9137797738725368e+18
14215.0	1.9134077709844477e+18
14216.0	1.9130589525311483e+18
14217.0	1.9126980628709373e+18
14218.0	1.9123244795691005e+18
14219.0	1.9119415547133947e+18
14220.0	1.911534814599577e+18
14221.0	1.9111734534995965e+18
14222.0	1.9108022475292672e+18
14223.0	1.9104517379325947e+18
14224.0	1.9100902728138747e+18
14225.0	1.9095400573042688e+18
14226.0	1.9093639502233597e+18
14227.0	1.9090080937279483e+18
14228.0	1.9081694610980861e+18
14229.0	1.9081942125248507e+18
14230.0	1.9079283037175805e+18
14231.0	1.907566399035801e+18
14232.0	1.9072092121071608e+18
14233.0	1.906846643047628e+18
14234.0	1.9064894175313915e+18
14235.0	1.9061270766419965e+18
14236.0	1.9057696196001787e+18
14237.0	1.9053759573262333e+18
14238.0	1.904965217524121e+18
14239.0	1.9045925536137213e+18
14240.0	1.9026530185248768e+18
14241.0	1.9038673651630077e+18
14242.0	1.9035201271234555e+18
14243.0	1.9030149534056445e+18
14244.0	1.9028083671564288e+18
14245.0	1.9024402230280187e+18
14246.0	1.9020803819438075e+18
14247.0	1.901727835593113e+18
14248.0	1.901357965089177e+18
14249.0	1.9010102002450427e+18
14250.0	1.900654221275955e+18
14251.0	1.9002978513977341e+18
14252.0	1.8999389716479997e+18
14253.0	1.8995792178053117e+18
14254.0	1.8992185177276408e+18
14255.0	1.8988266170613755e+18
14256.0	1.89830565766103e+18
14257.0	1.8980673758953472e+18
14258.0	1.8977015453450237e+18
14259.0	1.8973233533419515e+18
14260.0	1.8969757948575736e+18
14261.0	1.896605134146764e+18
14262.0	1.89629099755438e+18
14263.0	1.8956440060297216e+18
14264.0	1.895478988688588e+18
14265.0	1.8952130899476475e+18
14266.0	1.8948633521029117e+18
14267.0	1.894506327913267e+18
14268.0	1.8941487836299267e+18
14269.0	1.893781508561305e+18
14270.0	1.89343321859031e+18
14271.0	1.8930749159768061e+18
14272.0	1.8927161738002427e+18
14273.0	1.8923487544475645e+18
14274.0	1.8915299122216955e+18
14275.0	1.8915803613102077e+18
14276.0	1.8912716588580861e+18
14277.0	1.8909209479348221e+18
14278.0	1.8905743625289725e+18
14279.0	1.8902165212889088e+18
14280.0	1.8898003775455232e+18
14281.0	1.889418499588096e+18
14282.0	1.889061867985305e+18
14283.0	1.8887049209708536e+18
14284.0	1.88834796053463e+18
14285.0	1.8879908675583997e+18
14286.0	1.887633506146713e+18
14287.0	1.8872760793038845e+18
14288.0	1.8869111597563904e+18
14289.0	1.8855385184075756e+18
14290.0	1.8861984233553915e+18
14291.0	1.885848932135731e+18
14292.0	1.885494303732531e+18
14293.0	1.8851346186764283e+18
14294.0	1.884644363259085e+18
14295.0	1.8844023619846141e+18
14296.0	1.8832481499217925e+18
14297.0	1.883692058279936e+18
14298.0	1.8831820476907515e+18
14299.0	1.882982838383411e+18
14300.0	1.8826380867272704e+18
14301.0	1.8822867802128381e+18
14302.0	1.8819334704988152e+18
14303.0	1.881542262731571e+18
14304.0	1.881206825785753e+18
14305.0	1.8808259108405245e+18
14306.0	1.880403747432038e+18
14307.0	1.8800497347526653e+18
14308.0	1.8796986564083707e+18
14309.0	1.8793394092376061e+18
14310.0	1.8789487970615293e+18
14311.0	1.8786007402938365e+18
14312.0	1.8782460934356987e+18
14313.0	1.8778218211311613e+18
14314.0	1.877566148103372e+18
14315.0	1.8772120733483005e+18
14316.0	1.876808482317926e+18
14317.0	1.8764987950432253e+18
14318.0	1.8761513875537917e+18
14319.0	1.8757980560293883e+18
14320.0	1.8754432464322555e+18
14321.0	1.875085926963609e+18
14322.0	1.8746962476007421e+18
14323.0	1.8743586984034296e+18
14324.0	1.8740265632137208e+18
14325.0	1.873662168793088e+18
14326.0	1.8733188398448637e+18
14327.0	1.8729575626309627e+18
14328.0	1.8726042764050427e+18
14329.0	1.8722570249437181e+18
14330.0	1.8719032437899261e+18
14331.0	1.8715491925229563e+18
14332.0	1.8711957032927227e+18
14333.0	1.8707866261127165e+18
14334.0	1.870400159586713e+18
14335.0	1.8700343189700603e+18
14336.0	1.8696722213502976e+18
14337.0	1.8693354422271997e+18
14338.0	1.8689821341908987e+18
14339.0	1.8686193201840128e+18
14340.0	1.868277866928537e+18
14341.0	1.8679238408273917e+18
14342.0	1.867568779572019e+18
14343.0	1.867216000018022e+18
14344.0	1.8668600193712125e+18
14345.0	1.8665115851161597e+18
14346.0	1.8661556346683387e+18
14347.0	1.86579380380631e+18
14348.0	1.8654514462588925e+18
14349.0	1.8650995810631677e+18
14350.0	1.8647304722448384e+18
14351.0	1.864371545518899e+18
14352.0	1.864031521682227e+18
14353.0	1.86368742433751e+18
14354.0	1.8633338998751224e+18
14355.0	1.8629783202037755e+18
14356.0	1.8626271143526397e+18
14357.0	1.8622797873938427e+18
14358.0	1.861927678928486e+18
14359.0	1.8615587915694075e+18
14360.0	1.8612216886460413e+18
14361.0	1.8608705398374392e+18
14362.0	1.8605191880245243e+18
14363.0	1.860166468868505e+18
14364.0	1.8597654296526843e+18
14365.0	1.8593974633627645e+18
14366.0	1.8590138506412027e+18
14367.0	1.8586712984780792e+18
14368.0	1.8583189752643581e+18
14369.0	1.8579676486172672e+18
14370.0	1.857615870663065e+18
14371.0	1.8572641782726656e+18
14372.0	1.8569067262640125e+18
14373.0	1.8565604747247613e+18
14374.0	1.8562088729313275e+18
14375.0	1.8558557947428867e+18
14376.0	1.855506199504486e+18
14377.0	1.85515411284951e+18
14378.0	1.8548006739509243e+18
14379.0	1.8544520350138365e+18
14380.0	1.854099854406451e+18
14381.0	1.853736844106137e+18
14382.0	1.85339686724567e+18
14383.0	1.8530449517182976e+18
14384.0	1.8526765760643072e+18
14385.0	1.8523457159430136e+18
14386.0	1.8519752347484155e+18
14387.0	1.851643676694937e+18
14388.0	1.8512914776326141e+18
14389.0	1.8509418723278843e+18
14390.0	1.850589711853158e+18
14391.0	1.85024127256494e+18
14392.0	1.8498898653872125e+18
14393.0	1.849540419466035e+18
14394.0	1.8491486077190141e+18
14395.0	1.8488283843526653e+18
14396.0	1.8484890785808381e+18
14397.0	1.8481387199791107e+18
14398.0	1.8477879503355904e+18
14399.0	1.847437460871577e+18
14400.0	1.8470675366805504e+18
14401.0	1.8467274390241277e+18
14402.0	1.8463032254398461e+18
14403.0	1.8453460651343862e+18
14404.0	1.84216615858995e+18
14405.0	1.843518791430959e+18
14406.0	1.8448761453805565e+18
14407.0	1.8437603397206016e+18
14408.0	1.8441715727728635e+18
14409.0	1.8438272824901632e+18
14410.0	1.843495538209587e+18
14411.0	1.8431498671620096e+18
14412.0	1.8427981328285693e+18
14413.0	1.8424526496858107e+18
14414.0	1.8421006402060283e+18
14415.0	1.841752284803891e+18
14416.0	1.841403607279206e+18
14417.0	1.8410509233553403e+18
14418.0	1.840697471034982e+18
14419.0	1.8403531790745597e+18
14420.0	1.83999954723799e+18
14421.0	1.8396537805602816e+18
14422.0	1.8392954678804475e+18
14423.0	1.838908429251379e+18
14424.0	1.8354009425313774e+18
14425.0	1.8382058900422656e+18
14426.0	1.8379042105327608e+18
14427.0	1.8375609772146688e+18
14428.0	1.8371883854462976e+18
14429.0	1.8368614461603837e+18
14430.0	1.8365151375785984e+18
14431.0	1.836079866131251e+18
14432.0	1.835808620491571e+18
14433.0	1.834859228037119e+18
14434.0	1.8350984661041147e+18
14435.0	1.83475553477591e+18
14436.0	1.8344259245572093e+18
14437.0	1.8340783996272635e+18
14438.0	1.8337106329862141e+18
14439.0	1.8333756305702912e+18
14440.0	1.8330324207403005e+18
14441.0	1.8326625837907965e+18
14442.0	1.832308287576473e+18
14443.0	1.8318401814396928e+18
14444.0	1.8315329620934653e+18
14445.0	1.831184100019404e+18
14446.0	1.8295178288693253e+18
14447.0	1.830458025731686e+18
14448.0	1.8301461104427005e+18
14449.0	1.8298003957743613e+18
14450.0	1.8294463998722045e+18
14451.0	1.8291006331944952e+18
14452.0	1.8287552003833853e+18
14453.0	1.828400922624e+18
14454.0	1.8280605665984512e+18
14455.0	1.8277036548161533e+18
14456.0	1.8273631494733821e+18
14457.0	1.8270144971145216e+18
14458.0	1.826667817756262e+18
14459.0	1.8263177728884733e+18
14460.0	1.8259682766356477e+18
14461.0	1.825599156073267e+18
14462.0	1.8252505540460541e+18
14463.0	1.824920034502246e+18
14464.0	1.824580787450675e+18
14465.0	1.8242115024715776e+18
14466.0	1.823886088234598e+18
14467.0	1.8235165717299192e+18
14468.0	1.823189936111616e+18
14469.0	1.8228232616673275e+18
14470.0	1.8224694821912576e+18
14471.0	1.8221446887112696e+18
14472.0	1.8218020157521915e+18
14473.0	1.8214600205926397e+18
14474.0	1.8211159752572923e+18
14475.0	1.8207665343692797e+18
14476.0	1.8203856764665853e+18
14477.0	1.8200757543108605e+18
14478.0	1.8197264929390587e+18
14479.0	1.8193800266514432e+18
14480.0	1.819016721072128e+18
14481.0	1.8186900032454653e+18
14482.0	1.8183385709019139e+18
14483.0	1.8179856890068987e+18
14484.0	1.8176339479625725e+18
14485.0	1.8172572491317245e+18
14486.0	1.8166345141059584e+18
14487.0	1.8166072460967933e+18
14488.0	1.816261335135027e+18
14489.0	1.8159112583905277e+18
14490.0	1.8155701289353216e+18
14491.0	1.8152253588242432e+18
14492.0	1.8148449337737208e+18
14493.0	1.814442601034547e+18
14494.0	1.814080127605145e+18
14495.0	1.8137524299890688e+18
14496.0	1.813266811794227e+18
14497.0	1.813061847901798e+18
14498.0	1.8127186900811768e+18
14499.0	1.8123726801338363e+18
14500.0	1.8120256434208765e+18
14501.0	1.811652714430464e+18
14502.0	1.8111001249447933e+18
14503.0	1.8109676252037117e+18
14504.0	1.810634003552665e+18
14505.0	1.8102760062844925e+18
14506.0	1.8099104810795003e+18
14507.0	1.8093378495315963e+18
14508.0	1.809255178122035e+18
14509.0	1.8089124699308032e+18
14510.0	1.8085633511653376e+18
14511.0	1.8082200859705336e+18
14512.0	1.807858750036377e+18
14513.0	1.8075266651783168e+18
14514.0	1.8071470387232765e+18
14515.0	1.8068217587040253e+18
14516.0	1.8038650746961938e+18
14517.0	1.8061032391966717e+18
14518.0	1.8057968369008637e+18
14519.0	1.8054550363570176e+18
14520.0	1.8051106017902587e+18
14521.0	1.8047651303915515e+18
14522.0	1.804419103666995e+18
14523.0	1.8040320197394432e+18
14524.0	1.8036882428395517e+18
14525.0	1.8033775220883453e+18
14526.0	1.8030356141703163e+18
14527.0	1.802665278937497e+18
14528.0	1.8022070545809405e+18
14529.0	1.801989798022348e+18
14530.0	1.8016378254524416e+18
14531.0	1.8013093292408827e+18
14532.0	1.800917648356147e+18
14533.0	1.8006201899941885e+18
14534.0	1.8002780690055163e+18
14535.0	1.7999204743905275e+18
14536.0	1.7995830359228408e+18
14537.0	1.7992272549249024e+18
14538.0	1.7988977101373437e+18
14539.0	1.798552995391078e+18
14540.0	1.7982078092050427e+18
14541.0	1.7978364421734397e+18
14542.0	1.7975136804143096e+18
14543.0	1.7971338157228024e+18
14544.0	1.7968213065203707e+18
14545.0	1.796458229111193e+18
14546.0	1.7920561359355878e+18
14547.0	1.7919522547695585e+18
14548.0	1.7953914447986685e+18
14549.0	1.7948633903136768e+18
14550.0	1.794640968050278e+18
14551.0	1.794310265634816e+18
14552.0	1.7939650358280187e+18
14553.0	1.7936131756654587e+18
14554.0	1.7932768730152955e+18
14555.0	1.7929315643555837e+18
14556.0	1.792585420190515e+18
14557.0	1.7922393246793723e+18
14558.0	1.7918793997090813e+18
14559.0	1.7896104540504028e+18
14560.0	1.7911873294827515e+18
14561.0	1.7908523220336635e+18
14562.0	1.7904894224629755e+18
14563.0	1.7901711368650747e+18
14564.0	1.789822865349017e+18
14565.0	1.7894838364012541e+18
14566.0	1.7891393565360125e+18
14567.0	1.788793853260595e+18
14568.0	1.7884414193172475e+18
14569.0	1.788098035004211e+18
14570.0	1.7872212425965565e+18
14571.0	1.7874074596278272e+18
14572.0	1.7870289102700541e+18
14573.0	1.7866711495606264e+18
14574.0	1.7863695673589755e+18
14575.0	1.7860327697809403e+18
14576.0	1.7856864897204221e+18
14577.0	1.785339691243929e+18
14578.0	1.785001212588851e+18
14579.0	1.7846590177804288e+18
14580.0	1.7843146352230397e+18
14581.0	1.7839666354978808e+18
14582.0	1.7836249708494843e+18
14583.0	1.7832805715148797e+18
14584.0	1.7829239332012032e+18
14585.0	1.7825910329704448e+18
14586.0	1.7822435214622723e+18
14587.0	1.7819017813164032e+18
14588.0	1.7815580295823355e+18
14589.0	1.78121654445015e+18
14590.0	1.7808750089863165e+18
14591.0	1.780532441723699e+18
14592.0	1.7801796772691965e+18
14593.0	1.7797218723430397e+18
14594.0	1.7795053304938493e+18
14595.0	1.779143159054336e+18
14596.0	1.7787571371245565e+18
14597.0	1.7784069731385341e+18
14598.0	1.77811577938903e+18
14599.0	1.7777814648389627e+18
14600.0	1.7774395149778941e+18
14601.0	1.7770979610591232e+18
14602.0	1.7767549290676221e+18
14603.0	1.7764134942670848e+18
14604.0	1.776027255911219e+18
14605.0	1.7757224927494144e+18
14606.0	1.775308551854489e+18
14607.0	1.7750403798007803e+18
14608.0	1.7747031594369021e+18
14609.0	1.7743610652917755e+18
14610.0	1.7740158489067515e+18
14611.0	1.773675794871091e+18
14612.0	1.7733396029505528e+18
14613.0	1.772979043801497e+18
14614.0	1.772573506614067e+18
14615.0	1.772234974271897e+18
14616.0	1.7718934924951547e+18
14617.0	1.7715508312801275e+18
14618.0	1.7712037559795707e+18
14619.0	1.770818859800985e+18
14620.0	1.7704020114145275e+18
14621.0	1.7701808524754936e+18
14622.0	1.7698363222786048e+18
14623.0	1.76949686215639e+18
14624.0	1.7690924121325565e+18
14625.0	1.7688072565030907e+18
14626.0	1.768467475936051e+18
14627.0	1.76812448588759e+18
14628.0	1.7677860743413755e+18
14629.0	1.767443627874713e+18
14630.0	1.767100097599897e+18
14631.0	1.766756926357504e+18
14632.0	1.766154198161817e+18
14633.0	1.7660300283084797e+18
14634.0	1.765727709587046e+18
14635.0	1.765376398039449e+18
14636.0	1.7650100155187195e+18
14637.0	1.7647026250448893e+18
14638.0	1.764356470813491e+18
14639.0	1.7640030503698424e+18
14640.0	1.7636572098723837e+18
14641.0	1.7623159704387574e+18
14642.0	1.762969228253593e+18
14643.0	1.7626423527211003e+18
14644.0	1.7622878048485376e+18
14645.0	1.7619340840927227e+18
14646.0	1.7616066364571643e+18
14647.0	1.761260361429811e+18
14648.0	1.760925996548096e+18
