# Flux units: erg / (cm m2 s)
# Wavelength units: Angstrom
wave	flux
14000.0	1.6749946581549053e+18
14001.0	1.674566032162816e+18
14002.0	1.674361885320806e+18
14003.0	1.6740372898119675e+18
14004.0	1.6737105619189757e+18
14005.0	1.673383693097369e+18
14006.0	1.673049551352627e+18
14007.0	1.672722479526707e+18
14008.0	1.672313835198873e+18
14009.0	1.6720761456689147e+18
14010.0	1.6717389538263037e+18
14011.0	1.670822132658995e+18
14012.0	1.671097559180902e+18
14013.0	1.6707714570780667e+18
14014.0	1.6704402362466304e+18
14015.0	1.6701169778819072e+18
14016.0	1.6697930970824704e+18
14017.0	1.669467171140403e+18
14018.0	1.6691410740707325e+18
14019.0	1.6688154182418432e+18
14020.0	1.6684889470402557e+18
14021.0	1.6679365353930747e+18
14022.0	1.6674221241401344e+18
14023.0	1.667079077049139e+18
14024.0	1.6667562683138043e+18
14025.0	1.6664497150230528e+18
14026.0	1.66612362634199e+18
14027.0	1.6658001515511803e+18
14028.0	1.665469625296486e+18
14029.0	1.6651468266274813e+18
14030.0	1.6636309967732744e+18
14031.0	1.664463431899545e+18
14032.0	1.664172842129817e+18
14033.0	1.663802033779507e+18
14034.0	1.6635239531020285e+18
14035.0	1.6632007719124992e+18
14036.0	1.6628762703560696e+18
14037.0	1.662551795643187e+18
14038.0	1.662227391394611e+18
14039.0	1.6618994421202941e+18
14040.0	1.6615702983081981e+18
14041.0	1.6612507024097277e+18
14042.0	1.6609191225458688e+18
14043.0	1.6605675543068672e+18
14044.0	1.6602704180674557e+18
14045.0	1.65995464401879e+18
14046.0	1.6596311138631677e+18
14047.0	1.6593002570973181e+18
14048.0	1.6589835284250621e+18
14049.0	1.6586635516837885e+18
14050.0	1.6583397145051133e+18
14051.0	1.657997799876198e+18
14052.0	1.6576792810749947e+18
14053.0	1.6573587422969856e+18
14054.0	1.6570357758558205e+18
14055.0	1.6567125845999613e+18
14056.0	1.6563894117990397e+18
14057.0	1.6560663983816704e+18
14058.0	1.6557434050969597e+18
14059.0	1.6554205292527613e+18
14060.0	1.655097695351603e+18
14061.0	1.6547684156440576e+18
14062.0	1.6544522439753723e+18
14063.0	1.6541155906813947e+18
14064.0	1.6535640682266621e+18
14065.0	1.6534764508938237e+18
14066.0	1.6531622153158653e+18
14067.0	1.6528250486390781e+18
14068.0	1.6525156734205947e+18
14069.0	1.652181555163955e+18
14070.0	1.6518620649619456e+18
14071.0	1.6515378905612285e+18
14072.0	1.651218658728345e+18
14073.0	1.650896752607232e+18
14074.0	1.6505749790261243e+18
14075.0	1.6502372268244987e+18
14076.0	1.6499131698642944e+18
14077.0	1.6493200113926144e+18
14078.0	1.6492680338997243e+18
14079.0	1.6489579506827261e+18
14080.0	1.6486455303995387e+18
14081.0	1.6483242181918715e+18
14082.0	1.647998152998912e+18
14083.0	1.647680446214963e+18
14084.0	1.6473605634260992e+18
14085.0	1.6466853039702016e+18
14086.0	1.6466964725628925e+18
14087.0	1.646397786108723e+18
14088.0	1.6460580592287741e+18
14089.0	1.6457322641489915e+18
14090.0	1.6454187432804347e+18
14091.0	1.6451044238163965e+18
14092.0	1.644783905171046e+18
14093.0	1.6444634200801275e+18
14094.0	1.6441430054535168e+18
14095.0	1.6438226411585533e+18
14096.0	1.6434444894207997e+18
14097.0	1.6431628335185915e+18
14098.0	1.6428366458519547e+18
14099.0	1.64254203290583e+18
14100.0	1.6422104983404541e+18
14101.0	1.6418879395856381e+18
14102.0	1.6414518980640765e+18
14103.0	1.641117576803123e+18
14104.0	1.6408103406796797e+18
14105.0	1.6404927429476352e+18
14106.0	1.6401736671428605e+18
14107.0	1.639852765976985e+18
14108.0	1.639525128758886e+18
14109.0	1.639211097862963e+18
14110.0	1.6388898410201088e+18
14111.0	1.6385542161694715e+18
14112.0	1.638241285858918e+18
14113.0	1.6379211765776381e+18
14114.0	1.637598537292185e+18
14115.0	1.6372896351911933e+18
14116.0	1.636920638780211e+18
14117.0	1.634506714487194e+18
14118.0	1.6363343287681024e+18
14119.0	1.63598058955735e+18
14120.0	1.6356696960008192e+18
14121.0	1.6353666206269437e+18
14122.0	1.6350076670574584e+18
14123.0	1.6347105140408315e+18
14124.0	1.6343837744037888e+18
14125.0	1.6336823374577656e+18
14126.0	1.633781195525324e+18
14127.0	1.6334705267834877e+18
14128.0	1.6331513788366843e+18
14129.0	1.632824209702912e+18
14130.0	1.6324991343656952e+18
14131.0	1.6321993808805885e+18
14132.0	1.6318770620399613e+18
14133.0	1.631067942210764e+18
14134.0	1.631246389713305e+18
14135.0	1.6309111591272443e+18
14136.0	1.6305328446504957e+18
14137.0	1.6302807787241472e+18
14138.0	1.6299415568383997e+18
14139.0	1.6296493950435328e+18
14140.0	1.6293231620784125e+18
14141.0	1.6290089214672893e+18
14142.0	1.6285309318725632e+18
14143.0	1.628374316561203e+18
14144.0	1.6280650151624704e+18
14145.0	1.6277469191471101e+18
14146.0	1.6274270246141947e+18
14147.0	1.6271125507997688e+18
14148.0	1.6267916429230075e+18
14149.0	1.626475337036595e+18
14150.0	1.6261658645102592e+18
14151.0	1.6258369991999485e+18
14152.0	1.6255333718556667e+18
14153.0	1.6252170525474816e+18
14154.0	1.6248791678058493e+18
14155.0	1.62428096610304e+18
14156.0	1.6242261834596347e+18
14157.0	1.6239528842887163e+18
14158.0	1.6236328186281984e+18
14159.0	1.6233211013103608e+18
14160.0	1.6229997572259835e+18
14161.0	1.6226364348694523e+18
14162.0	1.6222782631182328e+18
14163.0	1.6220518931759101e+18
14164.0	1.6216614185730043e+18
14165.0	1.6213162927849467e+18
14166.0	1.6211012592074747e+18
14167.0	1.620775479227187e+18
14168.0	1.6204650621435904e+18
14169.0	1.6201576599257085e+18
14170.0	1.619835980297011e+18
14171.0	1.6195248971579392e+18
14172.0	1.6192128157745155e+18
14173.0	1.6188417926758395e+18
14174.0	1.6185778602246141e+18
14175.0	1.6182686276124672e+18
14176.0	1.6179527310901243e+18
14177.0	1.6176389887623165e+18
14178.0	1.6173236744093693e+18
14179.0	1.6169991694974976e+18
14180.0	1.6166964145684483e+18
14181.0	1.6163821672464381e+18
14182.0	1.6160672236699643e+18
14183.0	1.615753872251289e+18
14184.0	1.6154351621898237e+18
14185.0	1.615125679597158e+18
14186.0	1.6144266501816323e+18
14187.0	1.6144759433199613e+18
14188.0	1.6141807263940605e+18
14189.0	1.6138663331102715e+18
14190.0	1.6135538037751805e+18
14191.0	1.6132387746349053e+18
14192.0	1.6129222992986112e+18
14193.0	1.6125531015610365e+18
14194.0	1.6122989485490176e+18
14195.0	1.6119810823815165e+18
14196.0	1.6116664642830333e+18
14197.0	1.611353305802342e+18
14198.0	1.6110355201654781e+18
14199.0	1.610724601443123e+18
14200.0	1.610174174540595e+18
14201.0	1.610089209685606e+18
14202.0	1.6097864648228861e+18
14203.0	1.6094623793414141e+18
14204.0	1.6091604548845565e+18
14205.0	1.6088479993692157e+18
14206.0	1.6084231499284475e+18
14207.0	1.608225237499904e+18
14208.0	1.6079131141734397e+18
14209.0	1.6074794868932603e+18
14210.0	1.6072027668479995e+18
14211.0	1.6069718670573563e+18
14212.0	1.606663282045747e+18
14213.0	1.6063484760424448e+18
14214.0	1.6060391981318144e+18
14215.0	1.605715327398707e+18
14216.0	1.6054164580728824e+18
14217.0	1.6051045981487101e+18
14218.0	1.6047827054493693e+18
14219.0	1.6044811098259453e+18
14220.0	1.6041672668348416e+18
14221.0	1.6038534204882941e+18
14222.0	1.6035133698080765e+18
14223.0	1.6032344838242307e+18
14224.0	1.6029238268264448e+18
14225.0	1.6018583964352515e+18
14226.0	1.602299216107929e+18
14227.0	1.6019902519312384e+18
14228.0	1.5996989674094595e+18
14229.0	1.6009628085125102e+18
14230.0	1.6010573649018875e+18
14231.0	1.6007132860121085e+18
14232.0	1.6004258352594941e+18
14233.0	1.6001101635518461e+18
14234.0	1.5998045950836733e+18
14235.0	1.5994916194746363e+18
14236.0	1.5991832961875965e+18
14237.0	1.5988716761776125e+18
14238.0	1.5985621516419067e+18
14239.0	1.5982435321774075e+18
14240.0	1.5963925623341056e+18
14241.0	1.5976257766293504e+18
14242.0	1.5973189934907392e+18
14243.0	1.5968693087371264e+18
14244.0	1.596701357060915e+18
14245.0	1.5963742651023357e+18
14246.0	1.5960586487595003e+18
14247.0	1.5957676932464637e+18
14248.0	1.595445783769907e+18
14249.0	1.5951505030905856e+18
14250.0	1.5948406866313213e+18
14251.0	1.5945334253420544e+18
14252.0	1.5942238672519165e+18
14253.0	1.593913753835929e+18
14254.0	1.59360286195712e+18
14255.0	1.593263745767833e+18
14256.0	1.592249675467981e+18
14257.0	1.5926454902587387e+18
14258.0	1.5923683725934592e+18
14259.0	1.592042448329113e+18
14260.0	1.5917237147795453e+18
14261.0	1.5914246122504192e+18
14262.0	1.5911486186586107e+18
14263.0	1.5897662901452808e+18
14264.0	1.5902466268725243e+18
14265.0	1.5897229948616704e+18
14266.0	1.5894186628743165e+18
14267.0	1.5891118747025403e+18
14268.0	1.5888034742403072e+18
14269.0	1.5884870576242685e+18
14270.0	1.5881867353915392e+18
14271.0	1.5878754391818235e+18
14272.0	1.5875600140992507e+18
14273.0	1.587250454331392e+18
14274.0	1.5854030228029448e+18
14275.0	1.5864901444567035e+18
14276.0	1.5863108530601981e+18
14277.0	1.5860028233744381e+18
14278.0	1.5857119114821632e+18
14279.0	1.5854031788310525e+18
14280.0	1.5850899851182075e+18
14281.0	1.5847889112662013e+18
14282.0	1.5844816231333885e+18
14283.0	1.5841741101858813e+18
14284.0	1.5838666458923003e+18
14285.0	1.5835590205374464e+18
14286.0	1.5832485363449856e+18
14287.0	1.5829446271434747e+18
14288.0	1.5826373155225595e+18
14289.0	1.5813408796442606e+18
14290.0	1.5820211269664765e+18
14291.0	1.5817153504608256e+18
14292.0	1.5814093222969341e+18
14293.0	1.5811003295989757e+18
14294.0	1.5806684706373635e+18
14295.0	1.580477277483827e+18
14296.0	1.5793838123646979e+18
14297.0	1.5798747086716925e+18
14298.0	1.5792551613169664e+18
14299.0	1.5792472575705088e+18
14300.0	1.5789483781783547e+18
14301.0	1.5786460158361597e+18
14302.0	1.578341029537382e+18
14303.0	1.578006444874137e+18
14304.0	1.5777144156192765e+18
14305.0	1.577422787339878e+18
14306.0	1.577085996472729e+18
14307.0	1.5767969485291515e+18
14308.0	1.5765047028482043e+18
14309.0	1.5761938915000315e+18
14310.0	1.575762149978931e+18
14311.0	1.575245062760038e+18
14312.0	1.575216001266483e+18
14313.0	1.574852620189696e+18
14314.0	1.5746615042113533e+18
14315.0	1.5743665573986301e+18
14316.0	1.5740140446023675e+18
14317.0	1.5737244396552187e+18
14318.0	1.573451766274457e+18
14319.0	1.5731471675293693e+18
14320.0	1.5728390589906941e+18
14321.0	1.572524608664371e+18
14322.0	1.5721858364080125e+18
14323.0	1.571899890571673e+18
14324.0	1.5716116378681341e+18
14325.0	1.5712994642100221e+18
14326.0	1.5710028329648123e+18
14327.0	1.570692402459443e+18
14328.0	1.570387239999897e+18
14329.0	1.5700889159335933e+18
14330.0	1.5697843893305344e+18
14331.0	1.5694796244910077e+18
14332.0	1.5691754720198653e+18
14333.0	1.568871166876057e+18
14334.0	1.5685669103861757e+18
14335.0	1.568247046052249e+18
14336.0	1.567878150304563e+18
14337.0	1.5676519699447803e+18
14338.0	1.5673475238723581e+18
14339.0	1.567036662192537e+18
14340.0	1.566742148231987e+18
14341.0	1.5664331119132672e+18
14342.0	1.5661330128175104e+18
14343.0	1.5658259142672381e+18
14344.0	1.5655220553973757e+18
14345.0	1.565224135661977e+18
14346.0	1.5649169481924603e+18
14347.0	1.5645738960683005e+18
14348.0	1.5643128207769597e+18
14349.0	1.5640104299134976e+18
14350.0	1.5636485403312125e+18
14351.0	1.5633361116594168e+18
14352.0	1.563092177649664e+18
14353.0	1.5627956118355965e+18
14354.0	1.5624864362659837e+18
14355.0	1.5621700733370365e+18
14356.0	1.5618728230125563e+18
14357.0	1.5615860651589632e+18
14358.0	1.5612830854152187e+18
14359.0	1.5609679522562043e+18
14360.0	1.560672302478131e+18
14361.0	1.5603731714277373e+18
14362.0	1.5600729028820987e+18
14363.0	1.559770215061913e+18
14364.0	1.5592848820797437e+18
14365.0	1.5591301659492347e+18
14366.0	1.558828008289075e+18
14367.0	1.5585613965164544e+18
14368.0	1.5582587137294333e+18
14369.0	1.5579571063619581e+18
14370.0	1.5576551248625664e+18
14371.0	1.5573532960358397e+18
14372.0	1.5570458669744125e+18
14373.0	1.5567475445858301e+18
14374.0	1.5564470143156221e+18
14375.0	1.5561435346108413e+18
14376.0	1.5558376255651837e+18
14377.0	1.5555321292390397e+18
14378.0	1.5552285471932413e+18
14379.0	1.5549294933180413e+18
14380.0	1.554626882673049e+18
14381.0	1.5543163347271683e+18
14382.0	1.5540236343836667e+18
14383.0	1.5537165626769403e+18
14384.0	1.553406001309286e+18
14385.0	1.5531212751765501e+18
14386.0	1.552804734409113e+18
14387.0	1.5525187231416315e+18
14388.0	1.5522159212363776e+18
14389.0	1.5519165687267328e+18
14390.0	1.5516139094278141e+18
14391.0	1.551314707913113e+18
14392.0	1.5510115738189821e+18
14393.0	1.550713603751936e+18
14394.0	1.5503793613438973e+18
14395.0	1.5500975427026941e+18
14396.0	1.5498113737293821e+18
14397.0	1.549511234368307e+18
14398.0	1.5492096941096957e+18
14399.0	1.5489100681314301e+18
14400.0	1.5485894052020221e+18
14401.0	1.5483035331854339e+18
14402.0	1.548008230695731e+18
14403.0	1.5457683867959268e+18
14404.0	1.5411351270719465e+18
14405.0	1.545443244349846e+18
14406.0	1.546808124558541e+18
14407.0	1.5437501548199944e+18
14408.0	1.5461778649513981e+18
14409.0	1.5458894931296253e+18
14410.0	1.5455943785447421e+18
14411.0	1.5453084008316925e+18
14412.0	1.5450062851145725e+18
14413.0	1.544710442398515e+18
14414.0	1.5444084726431741e+18
14415.0	1.544110024425472e+18
14416.0	1.5438052109320187e+18
14417.0	1.5434913914290176e+18
14418.0	1.5431771793391613e+18
14419.0	1.5429117419716603e+18
14420.0	1.5426089300000763e+18
14421.0	1.542314197935718e+18
14422.0	1.5420115889684477e+18
14423.0	1.5417062486704125e+18
14424.0	1.530317872771885e+18
14425.0	1.541112338579456e+18
14426.0	1.540819512406835e+18
14427.0	1.5405198495186941e+18
14428.0	1.5402025235775488e+18
14429.0	1.539918550741811e+18
14430.0	1.5396247397466112e+18
14431.0	1.5389925960581115e+18
14432.0	1.5390197650817021e+18
14433.0	1.536647013754469e+18
14434.0	1.5384140169871357e+18
14435.0	1.5380814120353792e+18
14436.0	1.5378333239869437e+18
14437.0	1.5375352683560957e+18
14438.0	1.5371574756507648e+18
14439.0	1.5369231935733757e+18
14440.0	1.536634803296665e+18
14441.0	1.536322928272998e+18
14442.0	1.5360191750995965e+18
14443.0	1.535681508461773e+18
14444.0	1.535433710659174e+18
14445.0	1.5351405271318525e+18
14446.0	1.5320895870468104e+18
14447.0	1.534532052739686e+18
14448.0	1.534247415526195e+18
14449.0	1.5339497508044797e+18
14450.0	1.5336471787470843e+18
14451.0	1.533352882890342e+18
14452.0	1.5330549581217787e+18
14453.0	1.5327254586327037e+18
14454.0	1.5324603802976253e+18
14455.0	1.5321554040651776e+18
14456.0	1.5318561203421181e+18
14457.0	1.5311893166030848e+18
14458.0	1.530682950025216e+18
14459.0	1.5303840739885053e+18
14460.0	1.5300860988882944e+18
14461.0	1.5297502928437248e+18
14462.0	1.5291930376142848e+18
14463.0	1.5291849560293368e+18
14464.0	1.5288999832715264e+18
14465.0	1.5285801189375997e+18
14466.0	1.528305756091187e+18
14467.0	1.527972902836633e+18
14468.0	1.5277090190393341e+18
14469.0	1.5273732884922365e+18
14470.0	1.5270917919735805e+18
14471.0	1.5268120335745021e+18
14472.0	1.5265209622986747e+18
14473.0	1.5262286125989885e+18
14474.0	1.5259338285252603e+18
14475.0	1.525633018075545e+18
14476.0	1.5252073297739776e+18
14477.0	1.525043745207091e+18
14478.0	1.524746013376512e+18
14479.0	1.5244487764738048e+18
14480.0	1.5241390371897344e+18
14481.0	1.5238601814048765e+18
14482.0	1.5235603792658424e+18
14483.0	1.5232575891046397e+18
14484.0	1.522961732966809e+18
14485.0	1.5226388571226107e+18
14486.0	1.522087007512166e+18
14487.0	1.522080581838438e+18
14488.0	1.5217567597592573e+18
14489.0	1.5214594456813563e+18
14490.0	1.521186076046131e+18
14491.0	1.5208983837016064e+18
14492.0	1.5206032221405181e+18
14493.0	1.5202985646751741e+18
14494.0	1.5199914929684477e+18
14495.0	1.519717061335449e+18
14496.0	1.5192902187614205e+18
14497.0	1.5191247383691264e+18
14498.0	1.5188300549586941e+18
14499.0	1.5185350611697664e+18
14500.0	1.5182393241501693e+18
14501.0	1.5178847896993792e+18
14502.0	1.5173713985011712e+18
14503.0	1.5173280931512315e+18
14504.0	1.5170523092746237e+18
14505.0	1.516709307482112e+18
14506.0	1.516354026445209e+18
14507.0	1.5159320073207805e+18
14508.0	1.515877504856883e+18
14509.0	1.5155824154378237e+18
14510.0	1.5152839890305021e+18
14511.0	1.514991969841971e+18
14512.0	1.514681968833331e+18
14513.0	1.5144021433253883e+18
14514.0	1.514070311803289e+18
14515.0	1.5138107296841725e+18
14516.0	1.5109946706231314e+18
14517.0	1.5132216581423101e+18
14518.0	1.512920419873587e+18
14519.0	1.5126230286204925e+18
14520.0	1.5123272530132987e+18
14521.0	1.5120316418228221e+18
14522.0	1.5117359970779136e+18
14523.0	1.5112931742056443e+18
14524.0	1.5110197743714296e+18
14525.0	1.510849364833075e+18
14526.0	1.5105578791600125e+18
14527.0	1.510239721068953e+18
14528.0	1.5098327527849981e+18
14529.0	1.5096655057518592e+18
14530.0	1.5093647506669563e+18
14531.0	1.5090852774805501e+18
14532.0	1.508607898576486e+18
14533.0	1.508497363566592e+18
14534.0	1.508205099430707e+18
14535.0	1.5079004889415677e+18
14536.0	1.5076130012790781e+18
14537.0	1.507310281582182e+18
14538.0	1.5070281257189376e+18
14539.0	1.5067341284966397e+18
14540.0	1.5064400071229435e+18
14541.0	1.5061253386928125e+18
14542.0	1.5058501134974973e+18
14543.0	1.5054695961722875e+18
14544.0	1.5052633857327101e+18
14545.0	1.504961852184985e+18
14546.0	1.489822818920031e+18
14547.0	1.4909325042515873e+18
14548.0	1.50407443644416e+18
14549.0	1.5036758064365565e+18
14550.0	1.503492211684147e+18
14551.0	1.5032064436862973e+18
14552.0	1.502910780486451e+18
14553.0	1.5026096529473536e+18
14554.0	1.5023250895536123e+18
14555.0	1.5020308104740864e+18
14556.0	1.501734261437235e+18
14557.0	1.5014436750229504e+18
14558.0	1.5011494546636797e+18
14559.0	1.4989889787396065e+18
14560.0	1.5005453238927352e+18
14561.0	1.5002616211701757e+18
14562.0	1.4999467665129472e+18
14563.0	1.4996801765507072e+18
14564.0	1.4993578493214715e+18
14565.0	1.4990945393049597e+18
14566.0	1.4988009782902781e+18
14567.0	1.4985060784537597e+18
14568.0	1.4981721346801664e+18
14569.0	1.497919721465446e+18
14570.0	1.4970877410017275e+18
14571.0	1.4973297305321472e+18
14572.0	1.4969855912443904e+18
14573.0	1.4966952883650557e+18
14574.0	1.4963777543864315e+18
14575.0	1.4961522350489597e+18
14576.0	1.4958544730193915e+18
14577.0	1.495034800321331e+18
14578.0	1.494584704525926e+18
14579.0	1.4942949603278848e+18
14580.0	1.4940014429339643e+18
14581.0	1.4937009294409728e+18
14582.0	1.4934090478256123e+18
14583.0	1.4931197431906301e+18
14584.0	1.492805346551398e+18
14585.0	1.4925325506969595e+18
14586.0	1.4922356409499645e+18
14587.0	1.4919427225026557e+18
14588.0	1.4916514297675773e+18
14589.0	1.4913660526788605e+18
14590.0	1.4910807141777405e+18
14591.0	1.490791280358195e+18
14592.0	1.4905036970655741e+18
14593.0	1.4901090466136064e+18
14594.0	1.489937707617484e+18
14595.0	1.4896442959200253e+18
14596.0	1.4891809847115768e+18
14597.0	1.4888668716072952e+18
14598.0	1.4887754559127555e+18
14599.0	1.4885094648971264e+18
14600.0	1.4882184053653504e+18
14601.0	1.4879367024869376e+18
14602.0	1.4876333754548221e+18
14603.0	1.4873652000456701e+18
14604.0	1.4870243407036413e+18
14605.0	1.4867484947513344e+18
14606.0	1.4864326468829181e+18
14607.0	1.4862106356613115e+18
14608.0	1.4859321019990013e+18
14609.0	1.4856297161687037e+18
14610.0	1.485270749177446e+18
14611.0	1.4850594770518013e+18
14612.0	1.4847829600108541e+18
14613.0	1.484498121470771e+18
14614.0	1.484208571888435e+18
14615.0	1.4839228340895741e+18
14616.0	1.4836402386632704e+18
14617.0	1.4833537978990592e+18
14618.0	1.4830504876441595e+18
14619.0	1.4826598553354232e+18
14620.0	1.4820587209752573e+18
14621.0	1.4822092008587264e+18
14622.0	1.4819201176829947e+18
14623.0	1.4816366481637373e+18
14624.0	1.4812932722393085e+18
14625.0	1.481060953096192e+18
14626.0	1.480772277606809e+18
14627.0	1.48048210558976e+18
14628.0	1.4802042765705213e+18
14629.0	1.479917646223769e+18
14630.0	1.4796264726069248e+18
14631.0	1.479343548347187e+18
14632.0	1.478146655046861e+18
14633.0	1.4786431062900728e+18
14634.0	1.4784758206693373e+18
14635.0	1.4777494041264115e+18
14636.0	1.476871705749094e+18
14637.0	1.4776227445342203e+18
14638.0	1.4773256502378499e+18
14639.0	1.4770293193048064e+18
14640.0	1.4767568774496256e+18
14641.0	1.4729264259661798e+18
14642.0	1.4761800918630397e+18
14643.0	1.4758957566394363e+18
14644.0	1.475596410840678e+18
14645.0	1.475296846938112e+18
14646.0	1.4750083677421565e+18
14647.0	1.4747032891686907e+18
