# Flux units: erg / (cm m2 s)
# Wavelength units: Angstrom
wave	flux
14000.0	1.7990983119536123e+18
14001.0	1.7988523059576827e+18
14002.0	1.7987019770691581e+18
14003.0	1.7983840605700093e+18
14004.0	1.7980634563608576e+18
14005.0	1.79774176666583e+18
14006.0	1.7974111347146747e+18
14007.0	1.7970863714336763e+18
14008.0	1.796667390663065e+18
14009.0	1.7964419703111675e+18
14010.0	1.796109853576396e+18
14011.0	1.7950851196780544e+18
14012.0	1.795474941647257e+18
14013.0	1.7951663130148861e+18
14014.0	1.7948397629603837e+18
14015.0	1.7945228681936893e+18
14016.0	1.794203738701824e+18
14017.0	1.7938828106924027e+18
14018.0	1.79355204452352e+18
14019.0	1.7932403423051779e+18
14020.0	1.7929183271321597e+18
14021.0	1.7925962414948347e+18
14022.0	1.7922725636997117e+18
14023.0	1.791940124842393e+18
14024.0	1.7916181734227968e+18
14025.0	1.7913122039791613e+18
14026.0	1.7909907508428797e+18
14027.0	1.79067105092567e+18
14028.0	1.7903413836644347e+18
14029.0	1.79001258714071e+18
14030.0	1.7884235113168904e+18
14031.0	1.789249101339033e+18
14032.0	1.7890597754896381e+18
14033.0	1.7886976157941755e+18
14034.0	1.7884257628192765e+18
14035.0	1.7881092321181693e+18
14036.0	1.7877810613846013e+18
14037.0	1.7874694178865147e+18
14038.0	1.7871512681840637e+18
14039.0	1.786827008219545e+18
14040.0	1.7865087360434176e+18
14041.0	1.78619099906048e+18
14042.0	1.7858613703868413e+18
14043.0	1.7855094213050363e+18
14044.0	1.7852147144065021e+18
14045.0	1.7849051210842112e+18
14046.0	1.784590311725465e+18
14047.0	1.7842647683039227e+18
14048.0	1.7839557688950781e+18
14049.0	1.7836383204802555e+18
14050.0	1.7833194611015675e+18
14051.0	1.7829918440161277e+18
14052.0	1.782676777965977e+18
14053.0	1.7823631262351355e+18
14054.0	1.7820446325997563e+18
14055.0	1.7817260617891832e+18
14056.0	1.7814075211775997e+18
14057.0	1.7810891013619707e+18
14058.0	1.780770678190899e+18
14059.0	1.7804437657485307e+18
14060.0	1.7801339979431933e+18
14061.0	1.7798079428165627e+18
14062.0	1.7794966466068477e+18
14063.0	1.7791589782913021e+18
14064.0	1.7785914201735165e+18
14065.0	1.778532446581555e+18
14066.0	1.7782234203291648e+18
14067.0	1.7779043629793277e+18
14068.0	1.7775905099218941e+18
14069.0	1.7772706355216381e+18
14070.0	1.7769544353316861e+18
14071.0	1.7766346716610552e+18
14072.0	1.776320608888422e+18
14073.0	1.7760032326156285e+18
14074.0	1.775685728835993e+18
14075.0	1.7753480689090555e+18
14076.0	1.775042809141657e+18
14077.0	1.7744444228894723e+18
14078.0	1.7743880648654848e+18
14079.0	1.7740877174669307e+18
14080.0	1.7737831354990587e+18
14081.0	1.7734668832997376e+18
14082.0	1.7731493426102272e+18
14083.0	1.7728307298566144e+18
14084.0	1.7725077080506363e+18
14085.0	1.7718370354855933e+18
14086.0	1.7718445818773504e+18
14087.0	1.7715587232825344e+18
14088.0	1.7712358658932733e+18
14089.0	1.770931617792e+18
14090.0	1.77061674132439e+18
14091.0	1.7703035593555968e+18
14092.0	1.7699880386428925e+18
14093.0	1.7696720448126979e+18
14094.0	1.7693556214857725e+18
14095.0	1.7690371429498875e+18
14096.0	1.7686811220377597e+18
14097.0	1.7683761340612605e+18
14098.0	1.7680716963774461e+18
14099.0	1.7677755516715003e+18
14100.0	1.7674485435990013e+18
14101.0	1.7671476744290304e+18
14102.0	1.7668303233220603e+18
14103.0	1.7664995437314048e+18
14104.0	1.7661991560675323e+18
14105.0	1.765887462237798e+18
14106.0	1.7655724314198008e+18
14107.0	1.7652499666173947e+18
14108.0	1.7649279380226048e+18
14109.0	1.7646222907015163e+18
14110.0	1.7643103687016448e+18
14111.0	1.7639894994124797e+18
14112.0	1.7636728361713661e+18
14113.0	1.7633664489750525e+18
14114.0	1.763034761737011e+18
14115.0	1.7627250358747128e+18
14116.0	1.7623261139435517e+18
14117.0	1.759763218038784e+18
14118.0	1.7617501655400443e+18
14119.0	1.7614340106485757e+18
14120.0	1.7611358879088635e+18
14121.0	1.7608303966158848e+18
14122.0	1.760513404541337e+18
14123.0	1.7602047356436477e+18
14124.0	1.7598789204312061e+18
14125.0	1.7590914482438134e+18
14126.0	1.7592712530231293e+18
14127.0	1.7589702462799872e+18
14128.0	1.758657357912473e+18
14129.0	1.7583328546783224e+18
14130.0	1.7580085477376e+18
14131.0	1.757717847238246e+18
14132.0	1.757384963784704e+18
14133.0	1.756502750658559e+18
14134.0	1.756757130162995e+18
14135.0	1.7564480753893376e+18
14136.0	1.756142639461171e+18
14137.0	1.7558322274107387e+18
14138.0	1.7555105796587515e+18
14139.0	1.7552138427170813e+18
14140.0	1.754897630783078e+18
14141.0	1.754547288958566e+18
14142.0	1.754156913341235e+18
14143.0	1.7539571654852605e+18
14144.0	1.7536535817617403e+18
14145.0	1.753340956796518e+18
14146.0	1.7530257296850941e+18
14147.0	1.7527173460000763e+18
14148.0	1.7524048988733437e+18
14149.0	1.7520945556094976e+18
14150.0	1.7517847894818816e+18
14151.0	1.7514678611607547e+18
14152.0	1.7511594187554808e+18
14153.0	1.7508498606653437e+18
14154.0	1.7505096036253693e+18
14155.0	1.7501845048000507e+18
14156.0	1.7499101335650304e+18
14157.0	1.7496032883507197e+18
14158.0	1.7492881518362621e+18
14159.0	1.7489804040077307e+18
14160.0	1.7486541458767864e+18
14161.0	1.7482962761154557e+18
14162.0	1.7479315092406264e+18
14163.0	1.747718530872115e+18
14164.0	1.7473605386371072e+18
14165.0	1.7470858318577661e+18
14166.0	1.7468006074417147e+18
14167.0	1.746476711542784e+18
14168.0	1.746178793485107e+18
14169.0	1.7458726076153853e+18
14170.0	1.7455586689941496e+18
14171.0	1.745248449881702e+18
14172.0	1.744941245634969e+18
14173.0	1.7446087379910653e+18
14174.0	1.7443131016347648e+18
14175.0	1.7440109641072637e+18
14176.0	1.7437011996573693e+18
14177.0	1.743391279179366e+18
14178.0	1.7430808084086784e+18
14179.0	1.7427666399395835e+18
14180.0	1.742461507679027e+18
14181.0	1.7421516509544448e+18
14182.0	1.7418408396062717e+18
14183.0	1.741531303326515e+18
14184.0	1.7412145377443837e+18
14185.0	1.7408994414952448e+18
14186.0	1.740201641849651e+18
14187.0	1.74023504864215e+18
14188.0	1.7399764664451072e+18
14189.0	1.739671025483776e+18
14190.0	1.739362462282547e+18
14191.0	1.7390517230764027e+18
14192.0	1.73873462027223e+18
14193.0	1.7383749503156221e+18
14194.0	1.7381257432268797e+18
14195.0	1.7378218893901821e+18
14196.0	1.737513498994278e+18
14197.0	1.7372048149970941e+18
14198.0	1.7368902757515261e+18
14199.0	1.736579961008947e+18
14200.0	1.7360287522881533e+18
14201.0	1.7359339727618048e+18
14202.0	1.7356577929428987e+18
14203.0	1.735348424435302e+18
14204.0	1.7350427167162365e+18
14205.0	1.7347326787977208e+18
14206.0	1.7342934026289152e+18
14207.0	1.7341159701479421e+18
14208.0	1.73381151400919e+18
14209.0	1.7333603058843648e+18
14210.0	1.7330869547040765e+18
14211.0	1.7328809388802048e+18
14212.0	1.732582389999206e+18
14213.0	1.7322757930876923e+18
14214.0	1.7319675989852157e+18
14215.0	1.731646897468211e+18
14216.0	1.7313545444130816e+18
14217.0	1.7310473602990077e+18
14218.0	1.73072651953111e+18
14219.0	1.730432693436416e+18
14220.0	1.7301223736606715e+18
14221.0	1.7298167632494584e+18
14222.0	1.7294949611470843e+18
14223.0	1.729201916870656e+18
14224.0	1.72888808226816e+18
14225.0	1.7277627068841992e+18
14226.0	1.728240869284249e+18
14227.0	1.7279586798665725e+18
14228.0	1.7254204917678088e+18
14229.0	1.72687849894707e+18
14230.0	1.727049165176832e+18
14231.0	1.7267425498103803e+18
14232.0	1.7264445445111805e+18
14233.0	1.7261369678102523e+18
14234.0	1.7258329394905085e+18
14235.0	1.7255241212755963e+18
14236.0	1.725220571106508e+18
14237.0	1.7248827165638656e+18
14238.0	1.7245734151651328e+18
14239.0	1.7242431959334907e+18
14240.0	1.722051707325645e+18
14241.0	1.723612672924057e+18
14242.0	1.7233360401203197e+18
14243.0	1.7228805940707328e+18
14244.0	1.722739670489497e+18
14245.0	1.7224276981579776e+18
14246.0	1.7221233342939133e+18
14247.0	1.7218212806524923e+18
14248.0	1.7215017283747837e+18
14249.0	1.7212110412972027e+18
14250.0	1.7209087376752637e+18
14251.0	1.720605833428992e+18
14252.0	1.7202999898144768e+18
14253.0	1.71999245673431e+18
14254.0	1.7196820497170427e+18
14255.0	1.7192911456174077e+18
14256.0	1.7182197425373187e+18
14257.0	1.7185533155344381e+18
14258.0	1.718419190081126e+18
14259.0	1.7180994314436603e+18
14260.0	1.71778449122263e+18
14261.0	1.717484754514739e+18
14262.0	1.7172038686867453e+18
14263.0	1.7157258513219587e+18
14264.0	1.7161646191411195e+18
14265.0	1.7162939748319227e+18
14266.0	1.7160131041034237e+18
14267.0	1.7157133791395835e+18
14268.0	1.7154106141442048e+18
14269.0	1.7150962930024448e+18
14270.0	1.7148012824363005e+18
14271.0	1.7144940781895675e+18
14272.0	1.7141805271220221e+18
14273.0	1.7138205232988157e+18
14274.0	1.7116087409704963e+18
14275.0	1.7129273915604987e+18
14276.0	1.7129099331895293e+18
14277.0	1.7126289013997565e+18
14278.0	1.712338405582438e+18
14279.0	1.7120355214688253e+18
14280.0	1.711728038720307e+18
14281.0	1.7114325600698365e+18
14282.0	1.711129962846617e+18
14283.0	1.7108268102975485e+18
14284.0	1.7105234362892288e+18
14285.0	1.7102195287654397e+18
14286.0	1.709914914920857e+18
14287.0	1.709610930221875e+18
14288.0	1.7092926379130875e+18
14289.0	1.7077772794986476e+18
14290.0	1.708687971948953e+18
14291.0	1.7083981052772347e+18
14292.0	1.7080950349365243e+18
14293.0	1.7077903153954808e+18
14294.0	1.707342843556659e+18
14295.0	1.70715545379799e+18
14296.0	1.7059091096535043e+18
14297.0	1.706536904687616e+18
14298.0	1.705900774732595e+18
14299.0	1.70591608897536e+18
14300.0	1.7056348843802621e+18
14301.0	1.7053383638646781e+18
14302.0	1.7050362900905981e+18
14303.0	1.7046962561875965e+18
14304.0	1.7044142999732221e+18
14305.0	1.7041285772738557e+18
14306.0	1.703813628664217e+18
14307.0	1.7035090886393853e+18
14308.0	1.7032117728837627e+18
14309.0	1.7028965256396797e+18
14310.0	1.702544173904691e+18
14311.0	1.7021841734369277e+18
14312.0	1.7019360719667197e+18
14313.0	1.701541364472217e+18
14314.0	1.7013965552877565e+18
14315.0	1.701103915342233e+18
14316.0	1.7007533352812541e+18
14317.0	1.7004885757132795e+18
14318.0	1.7002098105253885e+18
14319.0	1.699912843735859e+18
14320.0	1.6996124661383165e+18
14321.0	1.6993086794104827e+18
14322.0	1.6989693988044797e+18
14323.0	1.6986561597931515e+18
14324.0	1.6983744535592957e+18
14325.0	1.6980634811498493e+18
14326.0	1.6977740322308093e+18
14327.0	1.697465576403763e+18
14328.0	1.6971654840188925e+18
14329.0	1.696872459875123e+18
14330.0	1.6965720587894781e+18
14331.0	1.6962713037045752e+18
14332.0	1.6959711173672957e+18
14333.0	1.6956707129262077e+18
14334.0	1.6953700450828285e+18
14335.0	1.6950531788374016e+18
14336.0	1.694685397096857e+18
14337.0	1.694464862270259e+18
14338.0	1.6941660030107643e+18
14339.0	1.6938562536603643e+18
14340.0	1.693567834862387e+18
14341.0	1.6932657912872957e+18
14342.0	1.692966502531072e+18
14343.0	1.6926681784647675e+18
14344.0	1.6923604390248443e+18
14345.0	1.692066488778752e+18
14346.0	1.6917632120782848e+18
14347.0	1.6914431497732093e+18
14348.0	1.6911647855607805e+18
14349.0	1.6908689126457344e+18
14350.0	1.6904999715995643e+18
14351.0	1.6901625582977021e+18
14352.0	1.6899274524590072e+18
14353.0	1.6896386897281021e+18
14354.0	1.6893326129102843e+18
14355.0	1.689017592158617e+18
14356.0	1.6887208451506176e+18
14357.0	1.6884429272121344e+18
14358.0	1.6881467489517565e+18
14359.0	1.6878305051410432e+18
14360.0	1.6875431013646333e+18
14361.0	1.6872463191244797e+18
14362.0	1.686950207972966e+18
14363.0	1.686647840597606e+18
14364.0	1.68614928884695e+18
14365.0	1.685978865886822e+18
14366.0	1.6857118044848125e+18
14367.0	1.685457488733798e+18
14368.0	1.6851595354439675e+18
14369.0	1.6848620150063104e+18
14370.0	1.684564011384832e+18
14371.0	1.684266101715763e+18
14372.0	1.683961561690931e+18
14373.0	1.6836668044607485e+18
14374.0	1.683370179926425e+18
14375.0	1.6830689718566907e+18
14376.0	1.6827755232493565e+18
14377.0	1.682476761297715e+18
14378.0	1.6821765430837243e+18
14379.0	1.6818815543279613e+18
14380.0	1.6815827537887224e+18
14381.0	1.6812722846957565e+18
14382.0	1.6809863925465085e+18
14383.0	1.680658812370944e+18
14384.0	1.6803389413261307e+18
14385.0	1.6800624628727803e+18
14386.0	1.679743932327526e+18
14387.0	1.6794667643305981e+18
14388.0	1.6791654623084541e+18
14389.0	1.6788712184610813e+18
14390.0	1.6785722182729725e+18
14391.0	1.6782772479721467e+18
14392.0	1.6779791873081341e+18
14393.0	1.6776828110766075e+18
14394.0	1.6773399518904315e+18
14395.0	1.6770758248235003e+18
14396.0	1.6767909258854397e+18
14397.0	1.6764937980346363e+18
14398.0	1.676196158478745e+18
14399.0	1.675898413226393e+18
14400.0	1.6755781244289021e+18
14401.0	1.6752924671606781e+18
14402.0	1.6749900041551872e+18
14403.0	1.674305495420108e+18
14404.0	1.670959819915262e+18
14405.0	1.6719758447607762e+18
14406.0	1.6737841098784763e+18
14407.0	1.6730180504518653e+18
14408.0	1.6731980263587837e+18
14409.0	1.672904926717542e+18
14410.0	1.67261896745943e+18
14411.0	1.672337383699251e+18
14412.0	1.6720399756689403e+18
14413.0	1.6717487684976637e+18
14414.0	1.671450031711846e+18
14415.0	1.6711550060462075e+18
14416.0	1.6708585073410043e+18
14417.0	1.6705537374683133e+18
14418.0	1.6702490766475261e+18
14419.0	1.6699634646777853e+18
14420.0	1.6696350859067387e+18
14421.0	1.669342793249587e+18
14422.0	1.669035013544345e+18
14423.0	1.668687369496166e+18
14424.0	1.666421722238156e+18
14425.0	1.6681042421219328e+18
14426.0	1.6678591219630077e+18
14427.0	1.66756868989911e+18
14428.0	1.6672482182299643e+18
14429.0	1.666976558193049e+18
14430.0	1.666672548328243e+18
14431.0	1.6660167605092352e+18
14432.0	1.6660801381203965e+18
14433.0	1.6654056554495995e+18
14434.0	1.6654750560813053e+18
14435.0	1.6651656942845947e+18
14436.0	1.6649111017095165e+18
14437.0	1.664619847562035e+18
14438.0	1.6642813185753085e+18
14439.0	1.6640175840952315e+18
14440.0	1.6637355305730043e+18
14441.0	1.6634295560962048e+18
14442.0	1.663126096524083e+18
14443.0	1.6627833078022141e+18
14444.0	1.6625459538165757e+18
14445.0	1.662249795688857e+18
14446.0	1.6607058170216453e+18
14447.0	1.661621582902067e+18
14448.0	1.6613746608701437e+18
14449.0	1.661083483897856e+18
14450.0	1.6607826080169981e+18
14451.0	1.6604908639748093e+18
14452.0	1.6601996031164413e+18
14453.0	1.6599014149455872e+18
14454.0	1.659609330325913e+18
14455.0	1.6593054395793403e+18
14456.0	1.6590153497706493e+18
14457.0	1.658720548919705e+18
14458.0	1.6584257698791421e+18
14459.0	1.658124546709913e+18
14460.0	1.6578131229933563e+18
14461.0	1.657438224357785e+18
14462.0	1.6570932780859387e+18
14463.0	1.6568812375638008e+18
14464.0	1.6566164645740541e+18
14465.0	1.656302977259929e+18
14466.0	1.6560406050897915e+18
14467.0	1.6557275019739133e+18
14468.0	1.6554535669465085e+18
14469.0	1.6551176904376315e+18
14470.0	1.6548328686747648e+18
14471.0	1.6545699965435904e+18
14472.0	1.6542833108320253e+18
14473.0	1.653994625276313e+18
14474.0	1.6537056192757757e+18
14475.0	1.653410402349875e+18
14476.0	1.6530959352463357e+18
14477.0	1.652824407749427e+18
14478.0	1.6525303199301632e+18
14479.0	1.6522364854468603e+18
14480.0	1.6519246808875003e+18
14481.0	1.6516546146861053e+18
14482.0	1.651355804080537e+18
14483.0	1.6510563207086072e+18
14484.0	1.6507552535674875e+18
14485.0	1.6504265711288315e+18
14486.0	1.6498317617790976e+18
14487.0	1.6498896498851837e+18
14488.0	1.6495941796233216e+18
14489.0	1.6492777546186747e+18
14490.0	1.649008018928435e+18
14491.0	1.6487250325929984e+18
14492.0	1.648434560263782e+18
14493.0	1.6481289481748475e+18
14494.0	1.6478220794724347e+18
14495.0	1.6475482434306048e+18
14496.0	1.6471065463095293e+18
14497.0	1.6469675940511741e+18
14498.0	1.6466798631190525e+18
14499.0	1.6463878791626747e+18
14500.0	1.6460946151047165e+18
14501.0	1.645777985418035e+18
14502.0	1.6452379721334784e+18
14503.0	1.6451965894524925e+18
14504.0	1.644915561018163e+18
14505.0	1.6446217433120765e+18
14506.0	1.6443120979804163e+18
14507.0	1.6437558443507712e+18
14508.0	1.643752441931366e+18
14509.0	1.643465128751923e+18
14510.0	1.6431458264547325e+18
14511.0	1.642840940819251e+18
14512.0	1.6425328155033597e+18
14513.0	1.642253568809369e+18
14514.0	1.641925168227942e+18
14515.0	1.6416440122867707e+18
14516.0	1.6382004450820116e+18
14517.0	1.6410088805761021e+18
14518.0	1.6407907918675965e+18
14519.0	1.640501185242726e+18
14520.0	1.640215046468403e+18
14521.0	1.639925136175923e+18
14522.0	1.639631241294643e+18
14523.0	1.639298765527449e+18
14524.0	1.6390229900394493e+18
14525.0	1.638752747677286e+18
14526.0	1.63846491775959e+18
14527.0	1.6381397551808507e+18
14528.0	1.6377213616127997e+18
14529.0	1.6375799884021757e+18
14530.0	1.6372822582493181e+18
14531.0	1.6370097593516024e+18
14532.0	1.6366928612294653e+18
14533.0	1.636429274388889e+18
14534.0	1.636140897533952e+18
14535.0	1.6358363742863357e+18
14536.0	1.6355534768701437e+18
14537.0	1.6352512504233981e+18
14538.0	1.6349766208192512e+18
14539.0	1.63468610151383e+18
14540.0	1.6343949648068603e+18
14541.0	1.6340761540820992e+18
14542.0	1.6338089936945147e+18
14543.0	1.6334916325212157e+18
14544.0	1.6332244872331261e+18
14545.0	1.6329108455686144e+18
14546.0	1.6297936119922665e+18
14547.0	1.6295867203977193e+18
14548.0	1.632023763694387e+18
14549.0	1.6316244223328253e+18
14550.0	1.631469014981017e+18
14551.0	1.631195714132377e+18
14552.0	1.6309048341168125e+18
14553.0	1.6306051125084157e+18
14554.0	1.6303261829038077e+18
14555.0	1.6300352693338107e+18
14556.0	1.6297433575194621e+18
14557.0	1.629449479415398e+18
14558.0	1.6291306636574715e+18
14559.0	1.6265136847192026e+18
14560.0	1.6285453653114877e+18
14561.0	1.628278563956326e+18
14562.0	1.6279652041490424e+18
14563.0	1.6277016324079616e+18
14564.0	1.6273940926169085e+18
14565.0	1.6271320207589376e+18
14566.0	1.626833468522496e+18
14567.0	1.6265193638068221e+18
14568.0	1.626219031507763e+18
14569.0	1.6259277303840765e+18
14570.0	1.624997608239923e+18
14571.0	1.6253482503766016e+18
14572.0	1.6250206400020475e+18
14573.0	1.624713241139609e+18
14574.0	1.6244473004556288e+18
14575.0	1.6241831230570496e+18
14576.0	1.623892633950617e+18
14577.0	1.623610788465868e+18
14578.0	1.6233277819977725e+18
14579.0	1.6230435105275901e+18
14580.0	1.6227540985184253e+18
14581.0	1.622457972267417e+18
14582.0	1.6221666543665147e+18
14583.0	1.6218837921824765e+18
14584.0	1.6215707461091325e+18
14585.0	1.6213024213827581e+18
14586.0	1.6210119406649341e+18
14587.0	1.6207254646685693e+18
14588.0	1.62043659288576e+18
14589.0	1.6201484827885563e+18
14590.0	1.619860137810329e+18
14591.0	1.619566739534643e+18
14592.0	1.6192673786363904e+18
14593.0	1.6188535199498237e+18
14594.0	1.6186990118567933e+18
14595.0	1.6184055095623677e+18
14596.0	1.617915856447078e+18
14597.0	1.617582991448473e+18
14598.0	1.6175216254255101e+18
14599.0	1.6172627680821248e+18
14600.0	1.6169727822921728e+18
14601.0	1.6166846168301565e+18
14602.0	1.6163896247189496e+18
14603.0	1.616105385125478e+18
14604.0	1.6157607106445307e+18
14605.0	1.615494035118489e+18
14606.0	1.615137453847347e+18
14607.0	1.6149480424341504e+18
14608.0	1.614657961014067e+18
14609.0	1.6143616871235581e+18
14610.0	1.6140521172893696e+18
14611.0	1.613775301613977e+18
14612.0	1.6135164207824893e+18
14613.0	1.6132328858320893e+18
14614.0	1.612934887243776e+18
14615.0	1.6126521961873405e+18
14616.0	1.6123721425092603e+18
14617.0	1.6120665539084288e+18
14618.0	1.61177065750528e+18
14619.0	1.6112818315067384e+18
14620.0	1.6107138824798205e+18
14621.0	1.610923783906918e+18
14622.0	1.6106410995613693e+18
14623.0	1.6103578565345277e+18
14624.0	1.6100043136172024e+18
14625.0	1.6097779738738688e+18
14626.0	1.6094883940925437e+18
14627.0	1.6092008896528381e+18
14628.0	1.6089230690222075e+18
14629.0	1.608634873361203e+18
14630.0	1.6083384602198016e+18
14631.0	1.6080437247999997e+18
14632.0	1.6075610661060605e+18
14633.0	1.6074172098674685e+18
14634.0	1.6071585488175104e+18
14635.0	1.6068304703586301e+18
14636.0	1.6064383650103293e+18
14637.0	1.6063025266032635e+18
14638.0	1.6059995888025597e+18
14639.0	1.605701509683609e+18
14640.0	1.6054213989629947e+18
14641.0	1.6045071044444152e+18
14642.0	1.6048427225841661e+18
14643.0	1.604569730436301e+18
14644.0	1.6042674201034755e+18
14645.0	1.6039641333366781e+18
14646.0	1.6036864771227648e+18
14647.0	1.6033878493888507e+18
14648.0	1.6031166222041085e+18
