# Flux units: erg / (cm m2 s)
# Wavelength units: Angstrom
wave	flux
14000.0	2.0438952712339448e+18
14001.0	2.043778946406809e+18
14002.0	2.0434861403668475e+18
14003.0	2.0430972814098424e+18
14004.0	2.0427044529635325e+18
14005.0	2.042310097790566e+18
14006.0	2.0419089948213245e+18
14007.0	2.0415109704712187e+18
14008.0	2.0410443222745088e+18
14009.0	2.0407189902458877e+18
14010.0	2.0403161776783352e+18
14011.0	2.0394117498404861e+18
14012.0	2.0395338393190397e+18
14013.0	2.0391505956962301e+18
14014.0	2.0387518448926715e+18
14015.0	2.0383613451239421e+18
14016.0	2.0379686777389053e+18
14017.0	2.0375747638067197e+18
14018.0	2.037176903873331e+18
14019.0	2.036786229621555e+18
14020.0	2.0363913057009661e+18
14021.0	2.0359961804537853e+18
14022.0	2.0355986980077565e+18
14023.0	2.035192662537011e+18
14024.0	2.0347997367828475e+18
14025.0	2.0344197378736128e+18
14026.0	2.0340258994388987e+18
14027.0	2.0336325878087675e+18
14028.0	2.0332296661893117e+18
14029.0	2.032820802079948e+18
14030.0	2.0308178071715845e+18
14031.0	2.0318581992456187e+18
14032.0	2.031653092746854e+18
14033.0	2.0312282399506427e+18
14034.0	2.03087784443904e+18
14035.0	2.03048928411648e+18
14036.0	2.0300914392825856e+18
14037.0	2.0297063468105725e+18
14038.0	2.0293143538696184e+18
14039.0	2.028918242122137e+18
14040.0	2.0285268078624765e+18
14041.0	2.0281366201499643e+18
14042.0	2.0277366664200184e+18
14043.0	2.0273210394148861e+18
14044.0	2.026950677338521e+18
14045.0	2.0265653113978877e+18
14046.0	2.0261736842002427e+18
14047.0	2.0257754652344315e+18
14048.0	2.0253942919200765e+18
14049.0	2.0250044749840376e+18
14050.0	2.024613325937049e+18
14051.0	2.0242154005725181e+18
14052.0	2.023826404042342e+18
14053.0	2.0234401270988797e+18
14054.0	2.0230493857382392e+18
14055.0	2.0226585621692416e+18
14056.0	2.022267787254169e+18
14057.0	2.021877154945433e+18
14058.0	2.0214865444470781e+18
14059.0	2.0210928670736381e+18
14060.0	2.0207054828339192e+18
14061.0	2.0203093643755515e+18
14062.0	2.0199237148999677e+18
14063.0	2.0195155655000061e+18
14064.0	2.0188416985530368e+18
14065.0	2.018745293314457e+18
14066.0	2.018364489098854e+18
14067.0	2.017967077117132e+18
14068.0	2.0175852713017336e+18
14069.0	2.0171932062187515e+18
14070.0	2.0168049445306363e+18
14071.0	2.0164144246292475e+18
14072.0	2.0160275722272763e+18
14073.0	2.01563820827607e+18
14074.0	2.015248582600294e+18
14075.0	2.0148415505629176e+18
14076.0	2.014455000150835e+18
14077.0	2.0137082143899643e+18
14078.0	2.01365233116119e+18
14079.0	2.0132918038888445e+18
14080.0	2.012914690660761e+18
14081.0	2.0125270061088765e+18
14082.0	2.012137585115136e+18
14083.0	2.0117473974026237e+18
14084.0	2.011349549213286e+18
14085.0	2.0106160929505275e+18
14086.0	2.0105386258333693e+18
14087.0	2.0101909952069627e+18
14088.0	2.009795068008857e+18
14089.0	2.0094144198213627e+18
14090.0	2.0090315218092027e+18
14091.0	2.0086470752600061e+18
14092.0	2.0082601289056253e+18
14093.0	2.0078724208656381e+18
14094.0	2.0074838924197883e+18
14095.0	2.007091964909977e+18
14096.0	2.0066565022023675e+18
14097.0	2.0062808418811901e+18
14098.0	2.0059083205771261e+18
14099.0	2.0055455267028987e+18
14100.0	2.005152320769228e+18
14101.0	2.0047768080875515e+18
14102.0	2.0043903835045883e+18
14103.0	2.003991778662809e+18
14104.0	2.0036151872061437e+18
14105.0	2.0032316348825597e+18
14106.0	2.0028453612945403e+18
14107.0	2.0024587840389117e+18
14108.0	2.0020597429895168e+18
14109.0	2.0016821616771072e+18
14110.0	2.0012974903132155e+18
14111.0	2.0009061298733053e+18
14112.0	2.0005187523444733e+18
14113.0	2.0001349835948027e+18
14114.0	1.9997368720031744e+18
14115.0	1.9993489240489981e+18
14116.0	1.998833333357772e+18
14117.0	1.9956104368750592e+18
14118.0	1.998141085292953e+18
14119.0	1.9977662436999163e+18
14120.0	1.9974007788929021e+18
14121.0	1.9970325022244861e+18
14122.0	1.9966487452188664e+18
14123.0	1.9962616210259963e+18
14124.0	1.99586542035927e+18
14125.0	1.9951206948405245e+18
14126.0	1.9951194969473021e+18
14127.0	1.9947499334664187e+18
14128.0	1.9943668995588093e+18
14129.0	1.9939735308861437e+18
14130.0	1.9935799457873917e+18
14131.0	1.9932151101259768e+18
14132.0	1.992812768998195e+18
14133.0	1.9919869055074296e+18
14134.0	1.9920485131223037e+18
14135.0	1.9916601826476027e+18
14136.0	1.9912771638394877e+18
14137.0	1.9908997234556925e+18
14138.0	1.9905065493987325e+18
14139.0	1.9901420761251835e+18
14140.0	1.9897524068286461e+18
14141.0	1.9893167411167227e+18
14142.0	1.9888449557364733e+18
14143.0	1.9885980219604987e+18
14144.0	1.9882297234817021e+18
14145.0	1.9878490719387645e+18
14146.0	1.9874628839145464e+18
14147.0	1.987084306035507e+18
14148.0	1.9867005322526717e+18
14149.0	1.9863193673269243e+18
14150.0	1.9859414504701947e+18
14151.0	1.9855520244432896e+18
14152.0	1.985177692877619e+18
14153.0	1.984795625337651e+18
14154.0	1.9843893214314493e+18
14155.0	1.983990909527654e+18
14156.0	1.983644124472934e+18
14157.0	1.9832676521345021e+18
14158.0	1.9828832424951805e+18
14159.0	1.982504344171315e+18
14160.0	1.982109492392755e+18
14161.0	1.9816928168116221e+18
14162.0	1.9812677878546427e+18
14163.0	1.9809633115832312e+18
14164.0	1.980522555663974e+18
14165.0	1.9801821711171584e+18
14166.0	1.9798308662804475e+18
14167.0	1.9794410023682045e+18
14168.0	1.979073126675251e+18
14169.0	1.9786949866815483e+18
14170.0	1.9783117195706365e+18
14171.0	1.9779320427839483e+18
14172.0	1.9775539044679677e+18
14173.0	1.9771537007575037e+18
14174.0	1.9767865901055992e+18
14175.0	1.976413879218995e+18
14176.0	1.9760342611525635e+18
14177.0	1.9756544115605501e+18
14178.0	1.9752739361783805e+18
14179.0	1.974890571759616e+18
14180.0	1.9745149332488187e+18
14181.0	1.9741351406993403e+18
14182.0	1.9737545076113405e+18
14183.0	1.973374465081344e+18
14184.0	1.9729876110016507e+18
14185.0	1.9725937574674427e+18
14186.0	1.9717282242494461e+18
14187.0	1.97178466280407e+18
14188.0	1.9714692125556728e+18
14189.0	1.9710941830578173e+18
14190.0	1.9707165262479355e+18
14191.0	1.9703356868001787e+18
14192.0	1.9699492722835453e+18
14193.0	1.96950145147863e+18
14194.0	1.969201370837811e+18
14195.0	1.9688293864046587e+18
14196.0	1.9684519309213693e+18
14197.0	1.968073780861337e+18
14198.0	1.9676910288109565e+18
14199.0	1.9673115567063035e+18
14200.0	1.9666241908113405e+18
14201.0	1.9665072720707581e+18
14202.0	1.9661790728159232e+18
14203.0	1.9658013270867963e+18
14204.0	1.9654264687165437e+18
14205.0	1.9650472365260797e+18
14206.0	1.96456735613911e+18
14207.0	1.9642915034759163e+18
14208.0	1.9639175510753275e+18
14209.0	1.9634284297977853e+18
14210.0	1.9630766518435837e+18
14211.0	1.9627825657020416e+18
14212.0	1.9624115140820987e+18
14213.0	1.96203491926999e+18
14214.0	1.961658294258892e+18
14215.0	1.961272728669388e+18
14216.0	1.9609066380722173e+18
14217.0	1.960530276463411e+18
14218.0	1.9601422563672061e+18
14219.0	1.9597773183647744e+18
14220.0	1.95934163084247e+18
14221.0	1.958938806530867e+18
14222.0	1.9585431142137853e+18
14223.0	1.9581852259975165e+18
14224.0	1.9577986588082168e+18
14225.0	1.956428367947367e+18
14226.0	1.9569975802986493e+18
14227.0	1.956663584515686e+18
14228.0	1.9538375279116293e+18
14229.0	1.9553450496884716e+18
14230.0	1.9555463242711035e+18
14231.0	1.955166499844915e+18
14232.0	1.9548063131500541e+18
14233.0	1.9544298039017472e+18
14234.0	1.9540570208731133e+18
14235.0	1.9536799579766784e+18
14236.0	1.9533067806834688e+18
14237.0	1.9529285651922944e+18
14238.0	1.9525029809094648e+18
14239.0	1.9520772926078968e+18
14240.0	1.9503562019045379e+18
14241.0	1.951306542271692e+18
14242.0	1.9509587170295805e+18
14243.0	1.9504714597007355e+18
14244.0	1.9502247423508477e+18
14245.0	1.949844219992473e+18
14246.0	1.9494700360663037e+18
14247.0	1.9490999508140027e+18
14248.0	1.948716742423347e+18
14249.0	1.9483515796062203e+18
14250.0	1.9479799072292861e+18
14251.0	1.9476072634515453e+18
14252.0	1.947232099735961e+18
14253.0	1.9468549495980032e+18
14254.0	1.946473784672256e+18
14255.0	1.9460470008184832e+18
14256.0	1.9447228322021379e+18
14257.0	1.945099427014246e+18
14258.0	1.9449059471261693e+18
14259.0	1.944502946653798e+18
14260.0	1.9441124586291197e+18
14261.0	1.943746953556787e+18
14262.0	1.9433810273763325e+18
14263.0	1.9415733863710723e+18
14264.0	1.9420603081555965e+18
14265.0	1.9422707816857592e+18
14266.0	1.941931762804326e+18
14267.0	1.941566011106918e+18
14268.0	1.9411953889837053e+18
14269.0	1.9408141217169403e+18
14270.0	1.9404479858212861e+18
14271.0	1.9400699800453115e+18
14272.0	1.9396815270969341e+18
14273.0	1.9392196855726077e+18
14274.0	1.9364966209421315e+18
14275.0	1.938134094000947e+18
14276.0	1.938162819950182e+18
14277.0	1.9378246315409403e+18
14278.0	1.9374686223728637e+18
14279.0	1.9370990874132477e+18
14280.0	1.9367253933817853e+18
14281.0	1.9362846458511355e+18
14282.0	1.93590231826432e+18
14283.0	1.9355307129962496e+18
14284.0	1.935158864458547e+18
14285.0	1.9347865344147453e+18
14286.0	1.9344137178316797e+18
14287.0	1.934041228404326e+18
14288.0	1.9336565654290427e+18
14289.0	1.9324191887065073e+18
14290.0	1.932914609828659e+18
14291.0	1.932554537218867e+18
14292.0	1.9321828480647163e+18
14293.0	1.9318098184110075e+18
14294.0	1.9313263644770304e+18
14295.0	1.9310428530147325e+18
14296.0	1.929998714588365e+18
14297.0	1.9302853298356221e+18
14298.0	1.929588256643481e+18
14299.0	1.9295518433738747e+18
14300.0	1.9292068887134205e+18
14301.0	1.928841591678566e+18
14302.0	1.928473113683558e+18
14303.0	1.928068854919987e+18
14304.0	1.927716014968012e+18
14305.0	1.9273563802435581e+18
14306.0	1.9269129231925243e+18
14307.0	1.9265067249827837e+18
14308.0	1.926141560487936e+18
14309.0	1.9257571558817795e+18
14310.0	1.925338185177497e+18
14311.0	1.9249312974241787e+18
14312.0	1.9245953504509947e+18
14313.0	1.9242000054222843e+18
14314.0	1.9239152155361277e+18
14315.0	1.9235571226378237e+18
14316.0	1.9231514327777277e+18
14317.0	1.9228016697671677e+18
14318.0	1.922460372539801e+18
14319.0	1.92209717601239e+18
14320.0	1.921729557010841e+18
14321.0	1.9213586479972347e+18
14322.0	1.9209619272368128e+18
14323.0	1.9206048074170365e+18
14324.0	1.920257062705561e+18
14325.0	1.9198795367579643e+18
14326.0	1.9195211435474936e+18
14327.0	1.919146075462041e+18
14328.0	1.9187789144784896e+18
14329.0	1.918416234689331e+18
14330.0	1.9180480435847163e+18
14331.0	1.9176795689451517e+18
14332.0	1.917311538901811e+18
14333.0	1.9169432823660541e+18
14334.0	1.916497214780211e+18
14335.0	1.9161006450147325e+18
14336.0	1.9156407462920187e+18
14337.0	1.9153739902353405e+18
14338.0	1.915007899638169e+18
14339.0	1.9146312628830205e+18
14340.0	1.9142726784122875e+18
14341.0	1.9139024723640315e+18
14342.0	1.9135362794258427e+18
14343.0	1.913169579815731e+18
14344.0	1.91279836210135e+18
14345.0	1.9124339962019837e+18
14346.0	1.9120609296384e+18
14347.0	1.9116738876538875e+18
14348.0	1.911324673258291e+18
14349.0	1.9109609868361725e+18
14350.0	1.9105046381723645e+18
14351.0	1.9101325899857917e+18
14352.0	1.9098526772363261e+18
14353.0	1.9094946246033405e+18
14354.0	1.9091183485583355e+18
14355.0	1.9087310767259645e+18
14356.0	1.908369373370777e+18
14357.0	1.908029383088537e+18
14358.0	1.9076641917501437e+18
14359.0	1.9072823876124672e+18
14360.0	1.906924296391884e+18
14361.0	1.9065598868717565e+18
14362.0	1.9061966467235837e+18
14363.0	1.905824588470681e+18
14364.0	1.9052066047524861e+18
14365.0	1.9049923932585981e+18
14366.0	1.9046071699243005e+18
14367.0	1.9042735281405947e+18
14368.0	1.9039084877971453e+18
14369.0	1.9035432461271037e+18
14370.0	1.9031776219365368e+18
14371.0	1.9028121252528128e+18
14372.0	1.9024410216235003e+18
14373.0	1.9020780901761021e+18
14374.0	1.9017141420294144e+18
14375.0	1.9013470565433341e+18
14376.0	1.9009828248616955e+18
14377.0	1.9006165245493245e+18
14378.0	1.9002491538505725e+18
14379.0	1.8998857559965696e+18
14380.0	1.899519341599129e+18
14381.0	1.8991434279419904e+18
14382.0	1.8987879506116605e+18
14383.0	1.8984223868190723e+18
14384.0	1.8980408309841915e+18
14385.0	1.8976938748018683e+18
14386.0	1.8973108459274237e+18
14387.0	1.8969633444855803e+18
14388.0	1.8965973897838587e+18
14389.0	1.896232985296896e+18
14390.0	1.8958670675050493e+18
14391.0	1.8955040320389112e+18
14392.0	1.8951386980941821e+18
14393.0	1.894774741558886e+18
14394.0	1.894372368554393e+18
14395.0	1.8940344150261755e+18
14396.0	1.8936806103842813e+18
14397.0	1.8933163367596032e+18
14398.0	1.892951323259699e+18
14399.0	1.8925862107742203e+18
14400.0	1.8922045978968061e+18
14401.0	1.891846781822566e+18
14402.0	1.8914716365619197e+18
14403.0	1.890550132873625e+18
14404.0	1.887900399776562e+18
14405.0	1.888733448948938e+18
14406.0	1.8899005375250427e+18
14407.0	1.8889951550636027e+18
14408.0	1.8891678546919416e+18
14409.0	1.888824953562726e+18
14410.0	1.8884618375659515e+18
14411.0	1.8881161463857147e+18
14412.0	1.8877529800572925e+18
14413.0	1.8873929846226944e+18
14414.0	1.8870272916455421e+18
14415.0	1.886664299800166e+18
14416.0	1.8862981186060288e+18
14417.0	1.8859212553584635e+18
14418.0	1.8855518814601213e+18
14419.0	1.8852057221955581e+18
14420.0	1.8848396550864896e+18
14421.0	1.8844775557890043e+18
14422.0	1.8840995584016381e+18
14423.0	1.8836677699043328e+18
14424.0	1.881019548434431e+18
14425.0	1.8829483830149115e+18
14426.0	1.8826550854025213e+18
14427.0	1.8823021414318077e+18
14428.0	1.8819190504816637e+18
14429.0	1.8815755302731773e+18
14430.0	1.881197212440985e+18
14431.0	1.8803886898806781e+18
14432.0	1.8804712287502333e+18
14433.0	1.8796829613228027e+18
14434.0	1.8797374755307512e+18
14435.0	1.87935902180311e+18
14436.0	1.879038456181555e+18
14437.0	1.8786818463891456e+18
14438.0	1.8782683886780416e+18
14439.0	1.8779461822447613e+18
14440.0	1.877597944283136e+18
14441.0	1.8772298085433344e+18
14442.0	1.8768629411610621e+18
14443.0	1.876452692931379e+18
14444.0	1.8760473285492733e+18
14445.0	1.875681199364505e+18
14446.0	1.8742764162252803e+18
14447.0	1.87491896346542e+18
14448.0	1.8746043789213693e+18
14449.0	1.8742458330382333e+18
14450.0	1.8738786586329083e+18
14451.0	1.8735187034636283e+18
14452.0	1.873158968075878e+18
14453.0	1.8727930385399805e+18
14454.0	1.872434044705177e+18
14455.0	1.8720643084189693e+18
14456.0	1.871703103347097e+18
14457.0	1.8713431112679421e+18
14458.0	1.8709777236361213e+18
14459.0	1.8706081786101755e+18
14460.0	1.870232800146227e+18
14461.0	1.869825095342489e+18
14462.0	1.8694227508592635e+18
14463.0	1.8691271547682813e+18
14464.0	1.8687956655013883e+18
14465.0	1.8684268536397821e+18
14466.0	1.868089410138931e+18
14467.0	1.8677139175899133e+18
14468.0	1.8673695736201213e+18
14469.0	1.8669740826296315e+18
14470.0	1.8666239186436096e+18
14471.0	1.8662908422520832e+18
14472.0	1.8659357457645565e+18
14473.0	1.8655800234868733e+18
14474.0	1.8652239740534784e+18
14475.0	1.8648615727661056e+18
14476.0	1.864477701675417e+18
14477.0	1.864142355326566e+18
14478.0	1.863782697114009e+18
14479.0	1.863421874562662e+18
14480.0	1.8630478214987776e+18
14481.0	1.8627065695698944e+18
14482.0	1.8623422120591352e+18
14483.0	1.8619777471741947e+18
14484.0	1.861610487205068e+18
14485.0	1.861223191884595e+18
14486.0	1.86063409685463e+18
14487.0	1.860541526887628e+18
14488.0	1.8601679586852861e+18
14489.0	1.8597869497876477e+18
14490.0	1.859458965281177e+18
14491.0	1.8591110595084283e+18
14492.0	1.8587535320023035e+18
14493.0	1.8583184451043325e+18
14494.0	1.8579174360875003e+18
14495.0	1.8575720569634808e+18
14496.0	1.85709951493079e+18
14497.0	1.8568575472107515e+18
14498.0	1.856502351737651e+18
14499.0	1.8561433797132288e+18
14500.0	1.8557831259095037e+18
14501.0	1.8554002463522813e+18
14502.0	1.8548611222601725e+18
14503.0	1.8546840572002296e+18
14504.0	1.8543396192780283e+18
14505.0	1.8539723190435837e+18
14506.0	1.8535955665256445e+18
14507.0	1.8530442923737088e+18
14508.0	1.8529064105017336e+18
14509.0	1.8525525555281917e+18
14510.0	1.8521911424188413e+18
14511.0	1.851833972267417e+18
14512.0	1.8514629609127928e+18
14513.0	1.8511134059397112e+18
14514.0	1.8507266156134397e+18
14515.0	1.850374669887078e+18
14516.0	1.8477926982877197e+18
14517.0	1.849614046278451e+18
14518.0	1.8493177623216123e+18
14519.0	1.848965170672435e+18
14520.0	1.8486083176103933e+18
14521.0	1.8482497314619387e+18
14522.0	1.8478868167917565e+18
14523.0	1.8474788653629437e+18
14524.0	1.8471402256465915e+18
14525.0	1.8468112194076672e+18
14526.0	1.8464566597910525e+18
14527.0	1.84607180891095e+18
14528.0	1.845626432546406e+18
14529.0	1.8453745377476608e+18
14530.0	1.8450117187076093e+18
14531.0	1.8446678059122683e+18
14532.0	1.8442793143762936e+18
14533.0	1.8439531921407997e+18
14534.0	1.8435988623720443e+18
14535.0	1.8432299532025853e+18
14536.0	1.8428789637775355e+18
14537.0	1.8425129268674555e+18
14538.0	1.8421681903108093e+18
14539.0	1.8418110235148283e+18
14540.0	1.841453205762867e+18
14541.0	1.8410717690462205e+18
14542.0	1.84073355043799e+18
14543.0	1.8403491156328445e+18
14544.0	1.8400144705716221e+18
14545.0	1.8396320976863232e+18
14546.0	1.8363398945243118e+18
14547.0	1.8361177574735846e+18
14548.0	1.838548776071987e+18
14549.0	1.8380795878047741e+18
14550.0	1.837768937517875e+18
14551.0	1.8374270564433917e+18
14552.0	1.8370698913251325e+18
14553.0	1.8367073608531963e+18
14554.0	1.8363571717013504e+18
14555.0	1.835999442868633e+18
14556.0	1.83564078457815e+18
14557.0	1.8352806230491133e+18
14558.0	1.8348990873468925e+18
14559.0	1.8328992801095652e+18
14560.0	1.8341793212923896e+18
14561.0	1.8338436813422595e+18
14562.0	1.8334652980789243e+18
14563.0	1.8331285625765885e+18
14564.0	1.8327555497000955e+18
14565.0	1.8324256458801147e+18
14566.0	1.8320708144726013e+18
14567.0	1.8317111445159933e+18
14568.0	1.831343096017715e+18
14569.0	1.8309877176729597e+18
14570.0	1.8301764939808765e+18
14571.0	1.8302750232150013e+18
14572.0	1.829888216111513e+18
14573.0	1.8295137134182397e+18
14574.0	1.8291654419021821e+18
14575.0	1.828836056498176e+18
14576.0	1.828477025753497e+18
14577.0	1.8281397936455677e+18
14578.0	1.8277884066004987e+18
14579.0	1.8274358149513213e+18
14580.0	1.8270785676247037e+18
14581.0	1.826717557168537e+18
14582.0	1.8263570600951803e+18
14583.0	1.8260101777326077e+18
14584.0	1.8256301033259005e+18
14585.0	1.8252947905314813e+18
14586.0	1.8249397292761085e+18
14587.0	1.824586042074726e+18
14588.0	1.8242303432851453e+18
14589.0	1.823876354093875e+18
14590.0	1.8235222508175355e+18
14591.0	1.8231649951023104e+18
14592.0	1.8227994447314941e+18
14593.0	1.8223509746483197e+18
14594.0	1.8221003414962176e+18
14595.0	1.821739347817267e+18
14596.0	1.821131276078284e+18
14597.0	1.8207201621442555e+18
14598.0	1.8206406280740861e+18
14599.0	1.8203224615944184e+18
14600.0	1.8199668685012987e+18
14601.0	1.8196131376791547e+18
14602.0	1.81925351302103e+18
14603.0	1.8189017518440445e+18
14604.0	1.818503524489625e+18
14605.0	1.8181620779450363e+18
14606.0	1.8177654645587963e+18
14607.0	1.8174825335881725e+18
14608.0	1.817130247284326e+18
14609.0	1.816770027035033e+18
14610.0	1.8164010289463293e+18
14611.0	1.816056832616038e+18
14612.0	1.8157217966456835e+18
14613.0	1.8153729379270653e+18
14614.0	1.8149723349188605e+18
14615.0	1.8145737367879675e+18
14616.0	1.814223272489779e+18
14617.0	1.813860731951513e+18
14618.0	1.8134882341355517e+18
14619.0	1.812854984828518e+18
14620.0	1.812174633487565e+18
14621.0	1.8124388075307005e+18
14622.0	1.8120964231397376e+18
14623.0	1.8117478982877181e+18
14624.0	1.8113445152948221e+18
14625.0	1.8110375325073403e+18
14626.0	1.810685606913638e+18
14627.0	1.8103322519011323e+18
14628.0	1.8099840055508995e+18
14629.0	1.8096294744555512e+18
14630.0	1.809270322914918e+18
14631.0	1.8089184761741307e+18
14632.0	1.8083784326905853e+18
14633.0	1.8081709757038587e+18
14634.0	1.8078529451196408e+18
14635.0	1.807461140083507e+18
14636.0	1.8070116902109184e+18
14637.0	1.8068003140665336e+18
14638.0	1.8064298446159864e+18
14639.0	1.806066270601216e+18
14640.0	1.8057167558934528e+18
14641.0	1.8046472704491515e+18
14642.0	1.805005467366195e+18
14643.0	1.8046691965927421e+18
14644.0	1.8043028560150525e+18
14645.0	1.8039419982315517e+18
14646.0	1.803587725505331e+18
14647.0	1.8032175244902392e+18
14648.0	1.8028805088083965e+18
