# Flux units: erg / (cm m2 s)
# Wavelength units: Angstrom
wave	flux
14000.0	1.886780673281228e+18
14001.0	1.8863273461940224e+18
14002.0	1.886103373715865e+18
14003.0	1.8857514615439355e+18
14004.0	1.885398723932979e+18
14005.0	1.885045855459737e+18
14006.0	1.8846844004073464e+18
14007.0	1.884330085738086e+18
14008.0	1.883877298877235e+18
14009.0	1.883632183751475e+18
14010.0	1.8832664253431805e+18
14011.0	1.8822139738062843e+18
14012.0	1.8825755295219712e+18
14013.0	1.8822256171941883e+18
14014.0	1.8818672340500475e+18
14015.0	1.8815190548086784e+18
14016.0	1.881169731361177e+18
14017.0	1.8808179248857083e+18
14018.0	1.8804660227801083e+18
14019.0	1.8801143639441403e+18
14020.0	1.8797618494701563e+18
14021.0	1.8794094524366845e+18
14022.0	1.8790572147867643e+18
14023.0	1.8786941524770813e+18
14024.0	1.8783400341012475e+18
14025.0	1.8780048471359483e+18
14026.0	1.8776520004730875e+18
14027.0	1.8773029857263613e+18
14028.0	1.8769448022310912e+18
14029.0	1.8765963109335037e+18
14030.0	1.8756513292091395e+18
14031.0	1.8758650692632573e+18
14032.0	1.8755462132400128e+18
14033.0	1.8751489455423483e+18
14034.0	1.8748459641208827e+18
14035.0	1.874496909108838e+18
14036.0	1.8741467417673725e+18
14037.0	1.8737965257719803e+18
14038.0	1.8734463181651963e+18
14039.0	1.8730914599141373e+18
14040.0	1.8727398245662715e+18
14041.0	1.8723935327617021e+18
14042.0	1.8720337302650875e+18
14043.0	1.8716506997129216e+18
14044.0	1.8713326926168061e+18
14045.0	1.8709924741644283e+18
14046.0	1.8706422145482747e+18
14047.0	1.8702888998010875e+18
14048.0	1.8699468123668477e+18
14049.0	1.869599020679168e+18
14050.0	1.869249781117747e+18
14051.0	1.868890715140915e+18
14052.0	1.8685469063643133e+18
14053.0	1.8682022419496952e+18
14054.0	1.8678535090601974e+18
14055.0	1.867504638597529e+18
14056.0	1.867155793300685e+18
14057.0	1.866807100676505e+18
14058.0	1.8664584483176445e+18
14059.0	1.866109883200307e+18
14060.0	1.8657613667368955e+18
14061.0	1.8653935480864763e+18
14062.0	1.8650493802774523e+18
14063.0	1.864683423898009e+18
14064.0	1.8642430186225661e+18
14065.0	1.86399507653591e+18
14066.0	1.8636569451692032e+18
14067.0	1.863305202447155e+18
14068.0	1.8629611789221888e+18
14069.0	1.8626115568402432e+18
14070.0	1.8622652851683325e+18
14071.0	1.86191474369495e+18
14072.0	1.8615704819335163e+18
14073.0	1.8612230157238264e+18
14074.0	1.8608756703100925e+18
14075.0	1.8605085445586941e+18
14076.0	1.8601762214641656e+18
14077.0	1.8597012685455355e+18
14078.0	1.8594765931020288e+18
14079.0	1.8591283400409083e+18
14080.0	1.858792931616358e+18
14081.0	1.858446129784422e+18
14082.0	1.8580969925640187e+18
14083.0	1.8577508165222397e+18
14084.0	1.857404751210086e+18
14085.0	1.8567406284701693e+18
14086.0	1.8566998363471864e+18
14087.0	1.8563663187148797e+18
14088.0	1.8560067796205565e+18
14089.0	1.8556705675673592e+18
14090.0	1.8553261229342717e+18
14091.0	1.8549820172009472e+18
14092.0	1.854636144826777e+18
14093.0	1.8542902254764027e+18
14094.0	1.8539443195478016e+18
14095.0	1.853598168671846e+18
14096.0	1.8532255701925888e+18
14097.0	1.852888556188467e+18
14098.0	1.852549814131097e+18
14099.0	1.8522160079306744e+18
14100.0	1.8518570208067581e+18
14101.0	1.85152583017431e+18
14102.0	1.8511803856191483e+18
14103.0	1.8508181319712763e+18
14104.0	1.8504872097742843e+18
14105.0	1.8501452733349888e+18
14106.0	1.8498004847689725e+18
14107.0	1.849455013370265e+18
14108.0	1.849097900261376e+18
14109.0	1.8487606597648381e+18
14110.0	1.8484182250422272e+18
14111.0	1.848064677091737e+18
14112.0	1.8477234553618424e+18
14113.0	1.8473879764729853e+18
14114.0	1.84702869742551e+18
14115.0	1.846696882680627e+18
14116.0	1.8463310923956221e+18
14117.0	1.8449662994284544e+18
14118.0	1.8456632719572987e+18
14119.0	1.845300889124864e+18
14120.0	1.8449652273643517e+18
14121.0	1.8446205612720128e+18
14122.0	1.8442746469548027e+18
14123.0	1.8439362723184637e+18
14124.0	1.843589373178675e+18
14125.0	1.8427318997352445e+18
14126.0	1.8429159323729915e+18
14127.0	1.842574740842086e+18
14128.0	1.8422303683510272e+18
14129.0	1.8418754178252797e+18
14130.0	1.841521844708966e+18
14131.0	1.841202644752793e+18
14132.0	1.8408510379261947e+18
14133.0	1.8398978152333297e+18
14134.0	1.84017122010071e+18
14135.0	1.8398149810847741e+18
14136.0	1.8394746435141632e+18
14137.0	1.8391437078953974e+18
14138.0	1.8387930741473277e+18
14139.0	1.8384610681421821e+18
14140.0	1.8381143770398715e+18
14141.0	1.8377667329916925e+18
14142.0	1.8373603049340925e+18
14143.0	1.8370886734184443e+18
14144.0	1.8367512332730363e+18
14145.0	1.8364078523154424e+18
14146.0	1.8360659561414653e+18
14147.0	1.8357245867720704e+18
14148.0	1.835382264456806e+18
14149.0	1.83504125076439e+18
14150.0	1.8347016094482427e+18
14151.0	1.8343546331332603e+18
14152.0	1.8340188874866688e+18
14153.0	1.8336774291980288e+18
14154.0	1.8333075536609277e+18
14155.0	1.8329608071938045e+18
14156.0	1.8326494757519352e+18
14157.0	1.8323130439172093e+18
14158.0	1.831967488632422e+18
14159.0	1.8316312480579581e+18
14160.0	1.8312827164950525e+18
14161.0	1.8308811991285755e+18
14162.0	1.8304877952237563e+18
14163.0	1.8302651313684475e+18
14164.0	1.8298860552060923e+18
14165.0	1.8295320811143165e+18
14166.0	1.8292451034791933e+18
14167.0	1.828890869340569e+18
14168.0	1.8285648578347003e+18
14169.0	1.8282271609978875e+18
14170.0	1.8278833555767293e+18
14171.0	1.8275438400897024e+18
14172.0	1.82720726564864e+18
14173.0	1.8268276257718272e+18
14174.0	1.826522174744166e+18
14175.0	1.82618829136855e+18
14176.0	1.825848837957222e+18
14177.0	1.8255093895790587e+18
14178.0	1.8251691493163003e+18
14179.0	1.8248228625448955e+18
14180.0	1.824491435353702e+18
14181.0	1.8241522654773243e+18
14182.0	1.8238122265411581e+18
14183.0	1.8234740330987517e+18
14184.0	1.8231290700496893e+18
14185.0	1.8227949601816576e+18
14186.0	1.8222506150199293e+18
14187.0	1.8220877132857336e+18
14188.0	1.8217750681878525e+18
14189.0	1.8214392654987261e+18
14190.0	1.821101095544422e+18
14191.0	1.8207620867293184e+18
14192.0	1.8204161053032445e+18
14193.0	1.8200564420575227e+18
14194.0	1.8197469963747325e+18
14195.0	1.8194115376185344e+18
14196.0	1.8190732066029565e+18
14197.0	1.818735227908915e+18
14198.0	1.8183914291986427e+18
14199.0	1.8180571767242747e+18
14200.0	1.8176041986031616e+18
14201.0	1.8173778890588155e+18
14202.0	1.8170445324877821e+18
14203.0	1.8166998898835453e+18
14204.0	1.8163680516505597e+18
14205.0	1.81603048399831e+18
14206.0	1.8155523601858555e+18
14207.0	1.815358241085849e+18
14208.0	1.8150219837341696e+18
14209.0	1.8145303425187835e+18
14210.0	1.814240933865062e+18
14211.0	1.8140052576010237e+18
14212.0	1.813673457955635e+18
14213.0	1.8133372207366136e+18
14214.0	1.8130000540598272e+18
14215.0	1.8126497374011387e+18
14216.0	1.812280293038489e+18
14217.0	1.811910281605939e+18
14218.0	1.81155998507991e+18
14219.0	1.8112368089235453e+18
14220.0	1.810900434131353e+18
14221.0	1.8105623547740155e+18
14222.0	1.810211830077849e+18
14223.0	1.809890697386393e+18
14224.0	1.8095541632106488e+18
14225.0	1.8088582241583104e+18
14226.0	1.8088785900208125e+18
14227.0	1.8085455002075133e+18
14228.0	1.8072773238718461e+18
14229.0	1.8077112397201398e+18
14230.0	1.8075383421206528e+18
14231.0	1.8071967026380797e+18
14232.0	1.8068674900393981e+18
14233.0	1.8065279779078136e+18
14234.0	1.806151242167091e+18
14235.0	1.805775734518579e+18
14236.0	1.805442864486809e+18
14237.0	1.8051056239902717e+18
14238.0	1.804770710493593e+18
14239.0	1.8044271818964987e+18
14240.0	1.8022410032775168e+18
14241.0	1.8037553785470968e+18
14242.0	1.8034261542043643e+18
14243.0	1.802916343264051e+18
14244.0	1.8027593571762176e+18
14245.0	1.8024106511302656e+18
14246.0	1.8020728905400315e+18
14247.0	1.8017496271421437e+18
14248.0	1.801401109001011e+18
14249.0	1.8010831421702141e+18
14250.0	1.8007482806829053e+18
14251.0	1.8004165112365053e+18
14252.0	1.8000818242322427e+18
14253.0	1.7997463654760448e+18
14254.0	1.7993529733152765e+18
14255.0	1.79895568212951e+18
14256.0	1.798280937734144e+18
14257.0	1.7982974549032955e+18
14258.0	1.7979916867862525e+18
14259.0	1.7976354226044925e+18
14260.0	1.7973072518709243e+18
14261.0	1.7969659043119096e+18
14262.0	1.7966783579291643e+18
14263.0	1.7957872109355008e+18
14264.0	1.7958862334197755e+18
14265.0	1.7956718205992955e+18
14266.0	1.7953436045672448e+18
14267.0	1.7950113603256315e+18
14268.0	1.7946777286082555e+18
14269.0	1.794333522211635e+18
14270.0	1.7940103125008381e+18
14271.0	1.793675828500889e+18
14272.0	1.7933422034943995e+18
14273.0	1.7930031812575227e+18
14274.0	1.7918194211618819e+18
14275.0	1.792254511415296e+18
14276.0	1.7919920402595835e+18
14277.0	1.7915956349108221e+18
14278.0	1.791260756646297e+18
14279.0	1.7909265192714237e+18
14280.0	1.790586238743347e+18
14281.0	1.790261515727667e+18
14282.0	1.789928801724006e+18
14283.0	1.7895957555314685e+18
14284.0	1.7892627110166525e+18
14285.0	1.7889295087960061e+18
14286.0	1.7885956858183677e+18
14287.0	1.7882635757944827e+18
14288.0	1.787928231123353e+18
14289.0	1.7864036670504937e+18
14290.0	1.7872622461124605e+18
14291.0	1.786931857430937e+18
14292.0	1.786600759073177e+18
14293.0	1.7862653489709053e+18
14294.0	1.7857761790394365e+18
14295.0	1.785585725761126e+18
14296.0	1.7843068254289923e+18
14297.0	1.7849320032174077e+18
14298.0	1.7843656547368955e+18
14299.0	1.7842587620605944e+18
14300.0	1.7839340071682043e+18
14301.0	1.783606265931366e+18
14302.0	1.783228094060953e+18
14303.0	1.782824434243993e+18
14304.0	1.7825123562160125e+18
14305.0	1.7821986440871933e+18
14306.0	1.7818432942637053e+18
14307.0	1.7813459219513341e+18
14308.0	1.781020950632857e+18
14309.0	1.7806834215682043e+18
14310.0	1.7802834946818048e+18
14311.0	1.7799325287448576e+18
14312.0	1.7796461064355837e+18
14313.0	1.7792315414282237e+18
14314.0	1.7790287266971643e+18
14315.0	1.7787024283009021e+18
14316.0	1.7783128579899387e+18
14317.0	1.7780292290871293e+18
14318.0	1.7777119216009208e+18
14319.0	1.777382150320947e+18
14320.0	1.7770508338593787e+18
14321.0	1.7767172843503613e+18
14322.0	1.7763432933621755e+18
14323.0	1.7760373188853755e+18
14324.0	1.775728876480102e+18
14325.0	1.7753872638410747e+18
14326.0	1.775067951477555e+18
14327.0	1.7747298033336315e+18
14328.0	1.7743992988893184e+18
14329.0	1.7740766914805755e+18
14330.0	1.7736798063034365e+18
14331.0	1.7733352928837624e+18
14332.0	1.7730050468085755e+18
14333.0	1.7726746413498365e+18
14334.0	1.7723442191138813e+18
14335.0	1.7719992241881088e+18
14336.0	1.7716439951605752e+18
14337.0	1.7713497915785216e+18
14338.0	1.7710195606028285e+18
14339.0	1.7706797632585725e+18
14340.0	1.770362541336166e+18
14341.0	1.77003054539735e+18
14342.0	1.7697001869148152e+18
14343.0	1.7693697445462016e+18
14344.0	1.7690376009678848e+18
14345.0	1.7687132755722237e+18
14346.0	1.7683795314475005e+18
14347.0	1.7680329191981053e+18
14348.0	1.7677229718765565e+18
14349.0	1.7673948246310907e+18
14350.0	1.767035792208691e+18
14351.0	1.7666983940063227e+18
14352.0	1.7663957313519613e+18
14353.0	1.7660754408767488e+18
14354.0	1.765743647942246e+18
14355.0	1.765408041546547e+18
14356.0	1.7650817095958525e+18
14357.0	1.764761353689497e+18
14358.0	1.7644323625500672e+18
14359.0	1.7640859331723261e+18
14360.0	1.7637714929123325e+18
14361.0	1.763444540204646e+18
14362.0	1.7630554312671227e+18
14363.0	1.7627075087171581e+18
14364.0	1.762284149093171e+18
14365.0	1.7620301974077437e+18
14366.0	1.761704269787955e+18
14367.0	1.7613928192278525e+18
14368.0	1.7610635663638523e+18
14369.0	1.760735544947507e+18
14370.0	1.7604070202146808e+18
14371.0	1.760078597822873e+18
14372.0	1.7597438319656957e+18
14373.0	1.7594212799217661e+18
14374.0	1.7590927065350136e+18
14375.0	1.7587623899955197e+18
14376.0	1.7584365663944704e+18
14377.0	1.7581075366674427e+18
14378.0	1.7577768896167933e+18
14379.0	1.7574518780329981e+18
14380.0	1.757122717443686e+18
14381.0	1.756781707106713e+18
14382.0	1.7564657736744957e+18
14383.0	1.7561353044623357e+18
14384.0	1.7557902055178237e+18
14385.0	1.755483856909107e+18
14386.0	1.7551351592517627e+18
14387.0	1.7548278526640125e+18
14388.0	1.7544980797063165e+18
14389.0	1.754172351735398e+18
14390.0	1.7538425385123837e+18
14391.0	1.7535175705493496e+18
14392.0	1.7531886834286587e+18
14393.0	1.7528627474202621e+18
14394.0	1.7524907311104e+18
14395.0	1.7521949269819387e+18
14396.0	1.751880396124979e+18
14397.0	1.7515531800150016e+18
14398.0	1.7512214239903736e+18
14399.0	1.7508196851646461e+18
14400.0	1.7504692426768381e+18
14401.0	1.750156246935142e+18
14402.0	1.7498320440131581e+18
14403.0	1.7485704007253998e+18
14404.0	1.7445321013460966e+18
14405.0	1.7469049399148493e+18
14406.0	1.7485195657609213e+18
14407.0	1.7468670838046725e+18
14408.0	1.7478544749756408e+18
14409.0	1.7475225797001213e+18
14410.0	1.7472125451370493e+18
14411.0	1.746892412367667e+18
14412.0	1.7465626729644027e+18
14413.0	1.7462405369954304e+18
14414.0	1.7459107690708987e+18
14415.0	1.7455854169096187e+18
14416.0	1.7452588886654976e+18
14417.0	1.7449265823481856e+18
14418.0	1.74459083334615e+18
14419.0	1.744277674865459e+18
14420.0	1.7439465882517504e+18
14421.0	1.743625061295718e+18
14422.0	1.7432919345725437e+18
14423.0	1.7429425423384576e+18
14424.0	1.7371957284569057e+18
14425.0	1.7422929889329144e+18
14426.0	1.7419921415733243e+18
14427.0	1.741667567874867e+18
14428.0	1.7413165868384253e+18
14429.0	1.7410125165756408e+18
14430.0	1.740690806747955e+18
14431.0	1.7402014304567296e+18
14432.0	1.7400317909925888e+18
14433.0	1.7386967893278712e+18
14434.0	1.7393653781626877e+18
14435.0	1.739030939461222e+18
14436.0	1.7387356386492416e+18
14437.0	1.7384103670185981e+18
14438.0	1.7380457242951677e+18
14439.0	1.7377271736172541e+18
14440.0	1.7372266891313147e+18
14441.0	1.7368910038827005e+18
14442.0	1.7365575130939387e+18
14443.0	1.7361825943257088e+18
14444.0	1.735916651964006e+18
14445.0	1.7355943817773053e+18
14446.0	1.733417346741044e+18
14447.0	1.7349242796376061e+18
14448.0	1.73461971444695e+18
14449.0	1.7342948807016448e+18
14450.0	1.7339624753987581e+18
14451.0	1.7336387690823675e+18
14452.0	1.733315935181209e+18
14453.0	1.7329760153632765e+18
14454.0	1.732665953956659e+18
14455.0	1.7323298996092925e+18
14456.0	1.732011152637952e+18
14457.0	1.7316837419122685e+18
14458.0	1.731361181479731e+18
14459.0	1.7310324403208187e+18
14460.0	1.7307041320140797e+18
14461.0	1.7303433262399485e+18
14462.0	1.729972301463552e+18
14463.0	1.7297179941011456e+18
14464.0	1.7294068539195387e+18
14465.0	1.7290555188838397e+18
14466.0	1.7287575286841341e+18
14467.0	1.7284028633710587e+18
14468.0	1.7281058865151997e+18
14469.0	1.727752846914355e+18
14470.0	1.7274245167972347e+18
14471.0	1.7271249226956797e+18
14472.0	1.72680580998103e+18
14473.0	1.7264862459592704e+18
14474.0	1.7261643532599293e+18
14475.0	1.7258369425342461e+18
14476.0	1.7254513215799293e+18
14477.0	1.7251903637291005e+18
14478.0	1.7248630553444352e+18
14479.0	1.724537978329497e+18
14480.0	1.7241952651051005e+18
14481.0	1.723892808810496e+18
14482.0	1.7235634502500347e+18
14483.0	1.723230320171417e+18
14484.0	1.722905137460019e+18
14485.0	1.722545001096806e+18
14486.0	1.7218976924827648e+18
14487.0	1.7219432409464832e+18
14488.0	1.7216125150429181e+18
14489.0	1.721233202321817e+18
14490.0	1.7208907692769277e+18
14491.0	1.7205711230468093e+18
14492.0	1.720248505571737e+18
14493.0	1.7199153738153981e+18
14494.0	1.7195729642586107e+18
14495.0	1.719272563172966e+18
14496.0	1.7187820963627005e+18
14497.0	1.7186230416441344e+18
14498.0	1.7183002983399421e+18
14499.0	1.7179759326789627e+18
14500.0	1.7176507835219968e+18
14501.0	1.7172900599562237e+18
14502.0	1.7167169771012096e+18
14503.0	1.7166551681597435e+18
14504.0	1.7163454087430136e+18
14505.0	1.7159993383976957e+18
14506.0	1.7156444885352443e+18
14507.0	1.7150735229648893e+18
14508.0	1.7150547475824637e+18
14509.0	1.7147314422415352e+18
14510.0	1.714403081925427e+18
14511.0	1.714082435773235e+18
14512.0	1.7137391085027328e+18
14513.0	1.7134334007836667e+18
14514.0	1.7130684409708541e+18
14515.0	1.7127801966559227e+18
14516.0	1.709397827701967e+18
14517.0	1.7121233267064827e+18
14518.0	1.711811849302835e+18
14519.0	1.7114888962834427e+18
14520.0	1.711163894765977e+18
14521.0	1.7108404300414976e+18
14522.0	1.710516186854195e+18
14523.0	1.7101183386648576e+18
14524.0	1.709800170507468e+18
14525.0	1.7095371121491965e+18
14526.0	1.709216999512473e+18
14527.0	1.7086902217736187e+18
14528.0	1.7081567163711485e+18
14529.0	1.707987870469324e+18
14530.0	1.7076549467504637e+18
14531.0	1.7073505375879163e+18
14532.0	1.7069412322377728e+18
14533.0	1.7067041919860733e+18
14534.0	1.7063823697510397e+18
14535.0	1.706044860819046e+18
14536.0	1.7057293384286203e+18
14537.0	1.705392282481459e+18
14538.0	1.7050861368770557e+18
14539.0	1.7047623399636987e+18
14540.0	1.7044382309941243e+18
14541.0	1.7040861007183872e+18
14542.0	1.7037869260472315e+18
14543.0	1.7034107775090685e+18
14544.0	1.7031388876242944e+18
14545.0	1.7027728893018107e+18
14546.0	1.6955048047149012e+18
14547.0	1.695724557723233e+18
14548.0	1.701748563089817e+18
14549.0	1.7012968231272448e+18
14550.0	1.701113454867251e+18
14551.0	1.7008016301752315e+18
14552.0	1.70047631827927e+18
14553.0	1.7001431647125504e+18
14554.0	1.699829536469811e+18
14555.0	1.699504945994137e+18
14556.0	1.699179107293593e+18
14557.0	1.6988556895453181e+18
14558.0	1.6985262873640957e+18
14559.0	1.6959502515437527e+18
14560.0	1.6978742391865341e+18
14561.0	1.6975490900295677e+18
14562.0	1.6972027361492987e+18
14563.0	1.6969079420092413e+18
14564.0	1.6965723742011387e+18
14565.0	1.6962614034694144e+18
14566.0	1.6959370982064125e+18
14567.0	1.6956114557992957e+18
14568.0	1.6952746766761981e+18
14569.0	1.6949608437514237e+18
14570.0	1.6940086662791163e+18
14571.0	1.6943086915551232e+18
14572.0	1.693940461862912e+18
14573.0	1.6936045970980861e+18
14574.0	1.6933114236370941e+18
14575.0	1.6930099806863357e+18
14576.0	1.69268275618775e+18
14577.0	1.6923577295044605e+18
14578.0	1.6920389372346368e+18
14579.0	1.6917169992368125e+18
14580.0	1.6913923517186043e+18
14581.0	1.6910625032634363e+18
14582.0	1.6907417765806077e+18
14583.0	1.6904175417819133e+18
14584.0	1.6900755281674237e+18
14585.0	1.6897671964917757e+18
14586.0	1.6894382019969021e+18
14587.0	1.6891159703977981e+18
14588.0	1.6887921298636795e+18
14589.0	1.688471837710745e+18
14590.0	1.6881514801266685e+18
14591.0	1.6878291847741437e+18
14592.0	1.6874995594559488e+18
14593.0	1.6870422729457656e+18
14594.0	1.6868677882216448e+18
14595.0	1.686537376052019e+18
14596.0	1.686136264694169e+18
14597.0	1.685799678509056e+18
14598.0	1.6855740752855037e+18
14599.0	1.685264438342451e+18
14600.0	1.6849417705357307e+18
14601.0	1.6846215454916603e+18
14602.0	1.6842961228660733e+18
14603.0	1.6839787684036603e+18
14604.0	1.6836022792880128e+18
14605.0	1.6833195899092984e+18
14606.0	1.6829243639988221e+18
14607.0	1.682684503497113e+18
14608.0	1.6823697528586237e+18
14609.0	1.6820452613685248e+18
14610.0	1.6816728692490237e+18
14611.0	1.6813325618774013e+18
14612.0	1.681019993954713e+18
14613.0	1.6806999668817912e+18
14614.0	1.680373946987315e+18
14615.0	1.6800567183540221e+18
14616.0	1.679735431312179e+18
14617.0	1.6794130017419261e+18
14618.0	1.6790843008483325e+18
14619.0	1.6787021343227894e+18
14620.0	1.678216001067417e+18
14621.0	1.678124055212851e+18
14622.0	1.6777984899809275e+18
14623.0	1.6774797161660413e+18
14624.0	1.6770840859246587e+18
14625.0	1.6768298641260541e+18
14626.0	1.6765075721289725e+18
14627.0	1.676182666241638e+18
14628.0	1.6758656691339267e+18
14629.0	1.6755423805702141e+18
14630.0	1.6752169982099453e+18
14631.0	1.6748948471414781e+18
14632.0	1.674124497780736e+18
14633.0	1.6741909791768568e+18
14634.0	1.6739205975638013e+18
14635.0	1.6735575704862712e+18
14636.0	1.673156053119795e+18
14637.0	1.6729537719042043e+18
14638.0	1.672624357978931e+18
14639.0	1.6722886593085435e+18
14640.0	1.6719714759737341e+18
14641.0	1.6699377401724915e+18
14642.0	1.6713205552250877e+18
14643.0	1.6710061099319293e+18
14644.0	1.6706677554282493e+18
14645.0	1.6703280906239997e+18
14646.0	1.670020232065843e+18
14647.0	1.6696861607854077e+18
