# Flux units: erg / (cm m2 s)
# Wavelength units: Angstrom
wave	flux
14000.0	1.9382075094204408e+18
14001.0	1.9379363778658307e+18
14002.0	1.9376837046042621e+18
14003.0	1.93731605037056e+18
14004.0	1.936941695316787e+18
14005.0	1.9365759016763387e+18
14006.0	1.9361973372190717e+18
14007.0	1.9358243880959997e+18
14008.0	1.9353536999456765e+18
14009.0	1.9350909469327355e+18
14010.0	1.9347077888737275e+18
14011.0	1.9336932941103096e+18
14012.0	1.9339801710821373e+18
14013.0	1.9336117887172603e+18
14014.0	1.9332356468899837e+18
14015.0	1.932869200615833e+18
14016.0	1.9325016705335296e+18
14017.0	1.9321317815746552e+18
14018.0	1.9317556263256061e+18
14019.0	1.9313919784910845e+18
14020.0	1.9310213412683773e+18
14021.0	1.9306504792309755e+18
14022.0	1.930260336816947e+18
14023.0	1.92986708222935e+18
14024.0	1.9295042464120827e+18
14025.0	1.9291683850027005e+18
14026.0	1.9288022423961592e+18
14027.0	1.928434875052851e+18
14028.0	1.9280575051333632e+18
14029.0	1.927683691983667e+18
14030.0	1.9217838648590382e+18
14031.0	1.9268012573982712e+18
14032.0	1.9265740972490752e+18
14033.0	1.926132931965747e+18
14034.0	1.925837904622387e+18
14035.0	1.9254828450447355e+18
14036.0	1.925099270910771e+18
14037.0	1.924747987884441e+18
14038.0	1.9243812530421755e+18
14039.0	1.924008867633561e+18
14040.0	1.9236390759825405e+18
14041.0	1.9232749382533117e+18
14042.0	1.9228980011859963e+18
14043.0	1.9224997553766397e+18
14044.0	1.9221584078176253e+18
14045.0	1.9217991791017981e+18
14046.0	1.921433726038835e+18
14047.0	1.9210427699298304e+18
14048.0	1.9206962382110715e+18
14049.0	1.9203365414109181e+18
14050.0	1.9199698870992893e+18
14051.0	1.9195936815185917e+18
14052.0	1.9192316342304765e+18
14053.0	1.9188688705552381e+18
14054.0	1.918502291741081e+18
14055.0	1.9181355384438784e+18
14056.0	1.917768827089715e+18
14057.0	1.9174022650527741e+18
14058.0	1.9170357046935552e+18
14059.0	1.9166555933769725e+18
14060.0	1.916302615851827e+18
14061.0	1.9159294117150715e+18
14062.0	1.9155700420706304e+18
14063.0	1.9151849043001341e+18
14064.0	1.913836324834509e+18
14065.0	1.9144622743748603e+18
14066.0	1.9141058759753728e+18
14067.0	1.913692081042227e+18
14068.0	1.9133725874847741e+18
14069.0	1.9129974422241277e+18
14070.0	1.912639394624307e+18
14071.0	1.9122751360991232e+18
14072.0	1.9119128941953021e+18
14073.0	1.911547506563481e+18
14074.0	1.9111818219749373e+18
14075.0	1.9107936659832824e+18
14076.0	1.910399728562995e+18
14077.0	1.908833372445082e+18
14078.0	1.9096250976567293e+18
14079.0	1.9093442470608893e+18
14080.0	1.908992328178073e+18
14081.0	1.9086281552166907e+18
14082.0	1.9082610244321275e+18
14083.0	1.9078959991881728e+18
14084.0	1.9075302726565888e+18
14085.0	1.9063248749854715e+18
14086.0	1.9066965238743035e+18
14087.0	1.9064363897847805e+18
14088.0	1.9060496967663608e+18
14089.0	1.9056750950875136e+18
14090.0	1.9053307544731645e+18
14091.0	1.9049857394147328e+18
14092.0	1.9046228851425277e+18
14093.0	1.9042590779244541e+18
14094.0	1.903894727124582e+18
14095.0	1.9035274503782397e+18
14096.0	1.902927091125452e+18
14097.0	1.902735991924326e+18
14098.0	1.902327262032691e+18
14099.0	1.9020757111668733e+18
14100.0	1.9016993730461693e+18
14101.0	1.9013535308709883e+18
14102.0	1.9009906531106813e+18
14103.0	1.900612375543808e+18
14104.0	1.9002624514719741e+18
14105.0	1.8999026422644733e+18
14106.0	1.8995401856122877e+18
14107.0	1.8991722159669245e+18
14108.0	1.898794394740326e+18
14109.0	1.8984458833100797e+18
14110.0	1.8980827723464704e+18
14111.0	1.8977149721509883e+18
14112.0	1.8973539113631741e+18
14113.0	1.8969751724228605e+18
14114.0	1.8966226260721661e+18
14115.0	1.8962623789793277e+18
14116.0	1.895759022234009e+18
14117.0	1.8860441702760466e+18
14118.0	1.8951532573622272e+18
14119.0	1.8946635874697213e+18
14120.0	1.8943294859902973e+18
14121.0	1.8940601596641277e+18
14122.0	1.8935957797470203e+18
14123.0	1.8932704812728315e+18
14124.0	1.8928948981268477e+18
14125.0	1.8921596836118518e+18
14126.0	1.8922780904914944e+18
14127.0	1.8919356255698941e+18
14128.0	1.8915796851884024e+18
14129.0	1.8912085530378237e+18
14130.0	1.8908397847969787e+18
14131.0	1.8904982208118781e+18
14132.0	1.8901327610380283e+18
14133.0	1.889202138932837e+18
14134.0	1.8894129127751675e+18
14135.0	1.8890147441410043e+18
14136.0	1.8885441247772672e+18
14137.0	1.888310340983193e+18
14138.0	1.887870777923993e+18
14139.0	1.8876165410258941e+18
14140.0	1.8872484371628032e+18
14141.0	1.8868005140168696e+18
14142.0	1.8858314737647619e+18
14143.0	1.8861656691965947e+18
14144.0	1.885820796744499e+18
14145.0	1.885462316292505e+18
14146.0	1.8850844178907136e+18
14147.0	1.884734403221913e+18
14148.0	1.8843633247584253e+18
14149.0	1.8840087802413053e+18
14150.0	1.883668565144371e+18
14151.0	1.8832801541390336e+18
14152.0	1.882953243374387e+18
14153.0	1.8825944106008573e+18
14154.0	1.8822086453624827e+18
14155.0	1.8815484065480707e+18
14156.0	1.8814740381827064e+18
14157.0	1.8811597623394304e+18
14158.0	1.8807964768927736e+18
14159.0	1.8804439020208125e+18
14160.0	1.8800783969484797e+18
14161.0	1.8796629964357632e+18
14162.0	1.8792543219089405e+18
14163.0	1.878996105455206e+18
14164.0	1.8783595040604152e+18
14165.0	1.8782258819235835e+18
14166.0	1.8779342620327933e+18
14167.0	1.8775638731128832e+18
14168.0	1.8772068522786808e+18
14169.0	1.8768574449451008e+18
14170.0	1.8764966995689464e+18
14171.0	1.8761475673817083e+18
14172.0	1.875794782794547e+18
14173.0	1.8753969161502715e+18
14174.0	1.8750709902082043e+18
14175.0	1.874722097935155e+18
14176.0	1.8743650871672824e+18
14177.0	1.87400981619671e+18
14178.0	1.873652981589606e+18
14179.0	1.8732892750348288e+18
14180.0	1.8729406562303992e+18
14181.0	1.8725841320017915e+18
14182.0	1.8722266749599741e+18
14183.0	1.871870675858227e+18
14184.0	1.8715074256437245e+18
14185.0	1.8711474989957117e+18
14186.0	1.8690642251087877e+18
14187.0	1.870393257440051e+18
14188.0	1.8700832832749565e+18
14189.0	1.8697179442970621e+18
14190.0	1.8693645037207547e+18
14191.0	1.869000897829273e+18
14192.0	1.868654377854566e+18
14193.0	1.8680126459871227e+18
14194.0	1.8679402841767933e+18
14195.0	1.867601407901696e+18
14196.0	1.8672466503139328e+18
14197.0	1.86689157899223e+18
14198.0	1.866530831938355e+18
14199.0	1.8661775658450941e+18
14200.0	1.8647237563252744e+18
14201.0	1.8654102363832315e+18
14202.0	1.8651114022895613e+18
14203.0	1.864753074510233e+18
14204.0	1.8644047526625277e+18
14205.0	1.864050174590976e+18
14206.0	1.8635637544452096e+18
14207.0	1.8633434024902653e+18
14208.0	1.8629901984727037e+18
14209.0	1.8624915510919165e+18
14210.0	1.8621337450840054e+18
14211.0	1.8618280121991163e+18
14212.0	1.861478398505779e+18
14213.0	1.8611163780612093e+18
14214.0	1.8607698899632125e+18
14215.0	1.8603973502042107e+18
14216.0	1.860062961834393e+18
14217.0	1.8597095212580861e+18
14218.0	1.8593427948044288e+18
14219.0	1.8590016989036536e+18
14220.0	1.8586373011275779e+18
14221.0	1.8582826928570363e+18
14222.0	1.857859024532275e+18
14223.0	1.8575837322280955e+18
14224.0	1.8572271811559424e+18
14225.0	1.8535626966040607e+18
14226.0	1.856492293796659e+18
14227.0	1.8561648075735037e+18
14228.0	1.8475992771199e+18
14229.0	1.8538837319876541e+18
14230.0	1.8550143989055488e+18
14231.0	1.8545906651496445e+18
14232.0	1.8543128847843325e+18
14233.0	1.8539563991433213e+18
14234.0	1.8536076796755965e+18
14235.0	1.8532522627432445e+18
14236.0	1.852902154122035e+18
14237.0	1.8525441719533565e+18
14238.0	1.8521919359811584e+18
14239.0	1.8518228472954875e+18
14240.0	1.8497886853529603e+18
14241.0	1.8511040106987515e+18
14242.0	1.850772487877427e+18
14243.0	1.8502678644523005e+18
14244.0	1.850082355419545e+18
14245.0	1.8497166020444155e+18
14246.0	1.849361463613849e+18
14247.0	1.8490215941275643e+18
14248.0	1.8484728499798008e+18
14249.0	1.8480179307347965e+18
14250.0	1.8476655588671488e+18
14251.0	1.8473160928133115e+18
14252.0	1.8469636571922432e+18
14253.0	1.846610067298713e+18
14254.0	1.846254017865318e+18
14255.0	1.8458577450565627e+18
14256.0	1.8420374135898135e+18
14257.0	1.844973280428031e+18
14258.0	1.8448443777220605e+18
14259.0	1.8444761950060541e+18
14260.0	1.8440366571126784e+18
14261.0	1.8437705285238781e+18
14262.0	1.8434498001633277e+18
14263.0	1.8380171782389793e+18
14264.0	1.8416814161657846e+18
14265.0	1.8423947817123837e+18
14266.0	1.8420638964252664e+18
14267.0	1.8417173730951163e+18
14268.0	1.8413638855426045e+18
14269.0	1.8410071700537344e+18
14270.0	1.8406657402863616e+18
14271.0	1.8402403355197435e+18
14272.0	1.839859430640845e+18
14273.0	1.8394687295455224e+18
14274.0	1.8314303912280102e+18
14275.0	1.838001941171405e+18
14276.0	1.8384338487869437e+18
14277.0	1.83809822729175e+18
14278.0	1.8377652062650365e+18
14279.0	1.8374154482876416e+18
14280.0	1.8370593770438653e+18
14281.0	1.836717502680268e+18
14282.0	1.836367971195289e+18
14283.0	1.8360179565264893e+18
14284.0	1.8356676465786877e+18
14285.0	1.8353155716677627e+18
14286.0	1.8349586431082493e+18
14287.0	1.8346171344879613e+18
14288.0	1.8342661987500027e+18
14289.0	1.832826175068567e+18
14290.0	1.8335663875162112e+18
14291.0	1.8332186763591677e+18
14292.0	1.8328703578669046e+18
14293.0	1.832518049752678e+18
14294.0	1.8320211488800768e+18
14295.0	1.831804397315686e+18
14296.0	1.8305377745502216e+18
14297.0	1.8310173344923643e+18
14298.0	1.829645966534246e+18
14299.0	1.8302939009384443e+18
14300.0	1.8299705855311872e+18
14301.0	1.8296247718772733e+18
14302.0	1.8292762000490493e+18
14303.0	1.8288889953255421e+18
14304.0	1.8285557008302075e+18
14305.0	1.828218188542771e+18
14306.0	1.8278016018808827e+18
14307.0	1.8274581907243003e+18
14308.0	1.8271293270917115e+18
14309.0	1.8267335710212093e+18
14310.0	1.8261503211732987e+18
14311.0	1.8252642140553213e+18
14312.0	1.8254847841140733e+18
14313.0	1.8252371826049024e+18
14314.0	1.825006826396057e+18
14315.0	1.8247140186783741e+18
14316.0	1.8243248208216067e+18
14317.0	1.82391921484759e+18
14318.0	1.823695948690227e+18
14319.0	1.823269899678515e+18
14320.0	1.8228353379074043e+18
14321.0	1.8224869774721021e+18
14322.0	1.8221002727096317e+18
14323.0	1.8217769304588285e+18
14324.0	1.821375960029593e+18
14325.0	1.8209976170315776e+18
14326.0	1.8206611449315325e+18
14327.0	1.8203067413430272e+18
14328.0	1.8199595888672763e+18
14329.0	1.8196195398647805e+18
14330.0	1.8192722967920635e+18
14331.0	1.8189165728366595e+18
14332.0	1.8185777821253627e+18
14333.0	1.8182305927397376e+18
14334.0	1.817883220482457e+18
14335.0	1.817520505461145e+18
14336.0	1.8168368758521856e+18
14337.0	1.8168378975846397e+18
14338.0	1.8164914782732285e+18
14339.0	1.8161308620816381e+18
14340.0	1.8157972119093245e+18
14341.0	1.8154312572076032e+18
14342.0	1.815105141682995e+18
14343.0	1.8147580647047165e+18
14344.0	1.8144037164810237e+18
14345.0	1.8140626340020221e+18
14346.0	1.813701049765068e+18
14347.0	1.8132453386354685e+18
14348.0	1.8130118618644475e+18
14349.0	1.8126779600338944e+18
14350.0	1.8120513477935096e+18
14351.0	1.8116840995684347e+18
14352.0	1.811633658868531e+18
14353.0	1.8112967572717565e+18
14354.0	1.8109160889516027e+18
14355.0	1.8105003898044413e+18
14356.0	1.810111150004633e+18
14357.0	1.8098212615225341e+18
14358.0	1.8094758891094016e+18
14359.0	1.8091137159921667e+18
14360.0	1.8087588661297147e+18
14361.0	1.8084269389774845e+18
14362.0	1.8080920288362496e+18
14363.0	1.8077435962589181e+18
14364.0	1.8065094256623616e+18
14365.0	1.8068676947214328e+18
14366.0	1.8065502412734461e+18
14367.0	1.806365326154137e+18
14368.0	1.8060199252197376e+18
14369.0	1.8056752759046136e+18
14370.0	1.805330735641395e+18
14371.0	1.8049867322490875e+18
14372.0	1.8046347512905725e+18
14373.0	1.8042896724787197e+18
14374.0	1.8039505965547515e+18
14375.0	1.8036038718980093e+18
14376.0	1.8032608684277752e+18
14377.0	1.8029151571148797e+18
14378.0	1.8025679375302653e+18
14379.0	1.8022259625033725e+18
14380.0	1.801880103550976e+18
14381.0	1.8015232320339963e+18
14382.0	1.8011898268090363e+18
14383.0	1.8008422884573181e+18
14384.0	1.800481746085478e+18
14385.0	1.8001575431634944e+18
14386.0	1.7997932661833725e+18
14387.0	1.7994680415289341e+18
14388.0	1.7991215483977725e+18
14389.0	1.7987789140262912e+18
14390.0	1.7984324913594365e+18
14391.0	1.798087323628339e+18
14392.0	1.7977418740400128e+18
14393.0	1.797308402787942e+18
14394.0	1.7969214312677368e+18
14395.0	1.796595986831769e+18
14396.0	1.79627392803799e+18
14397.0	1.7959309530890237e+18
14398.0	1.7955858625331197e+18
14399.0	1.7952409967919104e+18
14400.0	1.794873057345536e+18
14401.0	1.794544896678297e+18
14402.0	1.7942040306253821e+18
14403.0	1.7928502317678574e+18
14404.0	1.7889253698568172e+18
14405.0	1.791344612527304e+18
14406.0	1.792824386466611e+18
14407.0	1.7910288300900352e+18
14408.0	1.7920828788178944e+18
14409.0	1.7917792229523453e+18
14410.0	1.7913914025050112e+18
14411.0	1.7911113253388285e+18
14412.0	1.7907674863632381e+18
14413.0	1.7904281621364733e+18
14414.0	1.7900816589389821e+18
14415.0	1.7897391436857341e+18
14416.0	1.789379683444326e+18
14417.0	1.788990421834137e+18
14418.0	1.788601326318387e+18
14419.0	1.7883611285946365e+18
14420.0	1.7880151656235005e+18
14421.0	1.7876753213030397e+18
14422.0	1.7873207398760443e+18
14423.0	1.7869051816574968e+18
14424.0	1.780483623380579e+18
14425.0	1.7862648204886008e+18
14426.0	1.7859572723089405e+18
14427.0	1.785618495019417e+18
14428.0	1.7852530889326587e+18
14429.0	1.7849303607279613e+18
14430.0	1.784584223273779e+18
14431.0	1.782725646640743e+18
14432.0	1.7838963372851197e+18
14433.0	1.7824431082569718e+18
14434.0	1.7831037094592507e+18
14435.0	1.7824745135276027e+18
14436.0	1.7821656667914237e+18
14437.0	1.7818292131463163e+18
14438.0	1.7813062169919488e+18
14439.0	1.7811241925869568e+18
14440.0	1.7808018217369597e+18
14441.0	1.7804508876767224e+18
14442.0	1.7801017974325243e+18
14443.0	1.7797139669188605e+18
14444.0	1.7794259675512827e+18
14445.0	1.7790866483576824e+18
14446.0	1.7768945876467722e+18
14447.0	1.7783839262769147e+18
14448.0	1.7780609061486584e+18
14449.0	1.7777164883591165e+18
14450.0	1.777369683171737e+18
14451.0	1.777028367489433e+18
14452.0	1.7766875484127227e+18
14453.0	1.7763282743984128e+18
14454.0	1.7759948708511741e+18
14455.0	1.7756468442824704e+18
14456.0	1.775293370151731e+18
14457.0	1.7749567101468672e+18
14458.0	1.774605940503347e+18
14459.0	1.7742465557594112e+18
14460.0	1.7738614012116987e+18
14461.0	1.7733105615896576e+18
14462.0	1.7723978776838141e+18
14463.0	1.7727499106516987e+18
14464.0	1.7725178700103677e+18
14465.0	1.7721813207351293e+18
14466.0	1.7718773595242493e+18
14467.0	1.7715136110264317e+18
14468.0	1.7712024792334333e+18
14469.0	1.7707326081335293e+18
14470.0	1.7704861390864384e+18
14471.0	1.7701807836889085e+18
14472.0	1.7698443703091197e+18
14473.0	1.7695080106164221e+18
14474.0	1.769173417564569e+18
14475.0	1.768829763138355e+18
14476.0	1.7684186206830587e+18
14477.0	1.7681432193269755e+18
14478.0	1.76780781593559e+18
14479.0	1.7674588984967165e+18
14480.0	1.7671062716153856e+18
14481.0	1.7667890446598144e+18
14482.0	1.7664439490707453e+18
14483.0	1.7660371921797115e+18
14484.0	1.765667699163136e+18
14485.0	1.7652936528101376e+18
14486.0	1.7646527849693184e+18
14487.0	1.764648838968115e+18
14488.0	1.764218822144819e+18
14489.0	1.763828042196582e+18
14490.0	1.763600194181529e+18
14491.0	1.7632903173242875e+18
14492.0	1.7629496861523963e+18
14493.0	1.7625828892344315e+18
14494.0	1.7622381191233533e+18
14495.0	1.761924695562649e+18
14496.0	1.7614304371015677e+18
14497.0	1.761243600991027e+18
14498.0	1.7609042666979325e+18
14499.0	1.760563472787046e+18
14500.0	1.760221892024729e+18
14501.0	1.7598429618241533e+18
14502.0	1.759233725746381e+18
14503.0	1.7591565673299963e+18
14504.0	1.7588509552410621e+18
14505.0	1.7584852723302397e+18
14506.0	1.758111470924595e+18
14507.0	1.757550850185625e+18
14508.0	1.7574936868552704e+18
14509.0	1.7571536395304957e+18
14510.0	1.7568090741014523e+18
14511.0	1.7564714863165437e+18
14512.0	1.7561127609171963e+18
14513.0	1.7557893331025915e+18
14514.0	1.755410171376435e+18
14515.0	1.7551037455925243e+18
14516.0	1.7519767678091284e+18
14517.0	1.7544152237473787e+18
14518.0	1.7540844693225464e+18
14519.0	1.7537414071320576e+18
14520.0	1.7534027036622843e+18
14521.0	1.753061929884057e+18
14522.0	1.752711032733696e+18
14523.0	1.7521758496096253e+18
14524.0	1.7519576552046587e+18
14525.0	1.7516919779229693e+18
14526.0	1.7513507880697856e+18
14527.0	1.750993027360358e+18
14528.0	1.7505137912184827e+18
14529.0	1.7503232976748544e+18
14530.0	1.7499742762172413e+18
14531.0	1.7496516637753341e+18
14532.0	1.7491595913854976e+18
14533.0	1.748695082283827e+18
14534.0	1.7483563519705085e+18
14535.0	1.7480028090531837e+18
14536.0	1.7476698786234363e+18
14537.0	1.7473168071458813e+18
14538.0	1.746992553892249e+18
14539.0	1.746612048311091e+18
14540.0	1.7462259273957376e+18
14541.0	1.7458581322334203e+18
14542.0	1.7455401419145213e+18
14543.0	1.7451440335224824e+18
14544.0	1.7448575709478907e+18
14545.0	1.7444974949826557e+18
14546.0	1.7369036086050772e+18
14547.0	1.737158365596871e+18
14548.0	1.7434711185948664e+18
14549.0	1.743011380933427e+18
14550.0	1.7428005265604603e+18
14551.0	1.7424707066265595e+18
14552.0	1.7421282534490107e+18
14553.0	1.741779010532147e+18
14554.0	1.7414469609062397e+18
14555.0	1.7411050680877053e+18
14556.0	1.7407617693384704e+18
14557.0	1.7404209653612541e+18
14558.0	1.7400737122222075e+18
14559.0	1.7376554476634076e+18
14560.0	1.7393629270114304e+18
14561.0	1.7390436800790525e+18
14562.0	1.738653099779686e+18
14563.0	1.7383511853891581e+18
14564.0	1.7378941102718976e+18
14565.0	1.737686748915302e+18
14566.0	1.7373463190700027e+18
14567.0	1.7369933247676408e+18
14568.0	1.7365788201582587e+18
14569.0	1.7363093344485376e+18
14570.0	1.7353484999327736e+18
14571.0	1.7356282683981821e+18
14572.0	1.7352087557898237e+18
14573.0	1.7348726293004285e+18
14574.0	1.7343313795350525e+18
14575.0	1.734211533170278e+18
14576.0	1.7338677294268413e+18
14577.0	1.7335785019670525e+18
14578.0	1.733236520229273e+18
14579.0	1.7329024841809915e+18
14580.0	1.7325579606949888e+18
14581.0	1.7322009549602816e+18
14582.0	1.7318517925740544e+18
14583.0	1.7315349397503995e+18
14584.0	1.7311214887501821e+18
14585.0	1.730849949509222e+18
14586.0	1.7305068118212605e+18
14587.0	1.7301672074149888e+18
14588.0	1.72982629606359e+18
14589.0	1.7294898055086075e+18
14590.0	1.729153642109337e+18
14591.0	1.7288012551421947e+18
14592.0	1.728464116986675e+18
14593.0	1.7280049111629821e+18
14594.0	1.72780300575703e+18
14595.0	1.7274549355675643e+18
14596.0	1.726322042313112e+18
14597.0	1.7258066579816435e+18
14598.0	1.7263574942482424e+18
14599.0	1.7261087149785085e+18
14600.0	1.7257498335510525e+18
14601.0	1.7254186882170877e+18
14602.0	1.7250392261787648e+18
14603.0	1.7247371792482304e+18
14604.0	1.724062614369075e+18
14605.0	1.7234848053723128e+18
14606.0	1.723209744593715e+18
14607.0	1.72296596661207e+18
14608.0	1.722627732904345e+18
14609.0	1.7222586173751293e+18
14610.0	1.721729353252864e+18
14611.0	1.721551853663027e+18
14612.0	1.721280220469657e+18
14613.0	1.7209552072081405e+18
14614.0	1.7206129687789563e+18
14615.0	1.7202779361640443e+18
14616.0	1.719949340966912e+18
14617.0	1.7195996786196475e+18
14618.0	1.7192126634786816e+18
14619.0	1.7183105743847406e+18
14620.0	1.7164648826535939e+18
14621.0	1.718251020301107e+18
14622.0	1.7179144961916925e+18
14623.0	1.7175801682198523e+18
14624.0	1.7171736277549053e+18
14625.0	1.7168983035740157e+18
14626.0	1.7165550333460477e+18
14627.0	1.7162133988966397e+18
14628.0	1.7158839631609856e+18
14629.0	1.7155422733467643e+18
14630.0	1.715179890514329e+18
14631.0	1.7148582779944952e+18
14632.0	1.714031906154086e+18
14633.0	1.7140861116612603e+18
14634.0	1.7138117035163648e+18
14635.0	1.7130739019546606e+18
14636.0	1.7120273190879224e+18
14637.0	1.7128189788684285e+18
14638.0	1.71242752615383e+18
14639.0	1.7120763236581376e+18
14640.0	1.711785668457267e+18
14641.0	1.7095977030647793e+18
14642.0	1.7110978076344315e+18
14643.0	1.710757971702579e+18
14644.0	1.7103934699077627e+18
14645.0	1.710047003620147e+18
14646.0	1.7096681724051456e+18
14647.0	1.7092280724750333e+18
