# Flux units: erg / (cm m2 s)
# Wavelength units: Angstrom
wave	flux
14000.0	1.829614057947135e+18
14001.0	1.8291983051128827e+18
14002.0	1.8289998977564672e+18
14003.0	1.8286607866003453e+18
14004.0	1.8283200614760443e+18
14005.0	1.8279791635464184e+18
14006.0	1.827629314972057e+18
14007.0	1.8272869658132475e+18
14008.0	1.8268404284653565e+18
14009.0	1.8266140534898685e+18
14010.0	1.8262597857968123e+18
14011.0	1.825196670661427e+18
14012.0	1.8255929149489147e+18
14013.0	1.8252537702383613e+18
14014.0	1.8249070925578237e+18
14015.0	1.8245706137468925e+18
14016.0	1.824233156824268e+18
14017.0	1.8238931195658237e+18
14018.0	1.8235494886277115e+18
14019.0	1.82321310376919e+18
14020.0	1.8228723568345085e+18
14021.0	1.8225316568760317e+18
14022.0	1.8221837024493563e+18
14023.0	1.8218275892625403e+18
14024.0	1.8214883908648952e+18
14025.0	1.8211724322668541e+18
14026.0	1.8208329369124861e+18
14027.0	1.8204957551362043e+18
14028.0	1.8201491361759227e+18
14029.0	1.819811249756569e+18
14030.0	1.817048611028994e+18
14031.0	1.819071748662886e+18
14032.0	1.8187958205022205e+18
14033.0	1.8183946051256317e+18
14034.0	1.8181167442296827e+18
14035.0	1.81778315781079e+18
14036.0	1.8174383340126203e+18
14037.0	1.8171067541487613e+18
14038.0	1.8167683694460925e+18
14039.0	1.8164253055778813e+18
14040.0	1.8160845317996536e+18
14041.0	1.815750368244531e+18
14042.0	1.815402115183411e+18
14043.0	1.8150299646558205e+18
14044.0	1.81472270001111e+18
14045.0	1.8143945376661504e+18
14046.0	1.8140581796511744e+18
14047.0	1.8137084585836536e+18
14048.0	1.813382725579571e+18
14049.0	1.813049790116659e+18
14050.0	1.8127123667484664e+18
14051.0	1.8123648132972541e+18
14052.0	1.8120331629690875e+18
14053.0	1.8116998567297021e+18
14054.0	1.8113628628582397e+18
14055.0	1.8110256542384125e+18
14056.0	1.8106884842061821e+18
14057.0	1.8103514634911744e+18
14058.0	1.8100144494870525e+18
14059.0	1.80967443571671e+18
14060.0	1.8093407083692027e+18
14061.0	1.8089959130923003e+18
14062.0	1.8086671216017405e+18
14063.0	1.8083121240997885e+18
14064.0	1.807535484960768e+18
14065.0	1.8076472883281917e+18
14066.0	1.8073211979694077e+18
14067.0	1.8069673312518141e+18
14068.0	1.806648668166553e+18
14069.0	1.8063068156133368e+18
14070.0	1.8059748096081915e+18
14071.0	1.8056369835868155e+18
14072.0	1.8053044373553147e+18
14073.0	1.8049685642018816e+18
14074.0	1.804632719569715e+18
14075.0	1.8042756349820925e+18
14076.0	1.8039396410327037e+18
14077.0	1.8030816508510208e+18
14078.0	1.803249629370777e+18
14079.0	1.8029430022602747e+18
14080.0	1.8026195929006077e+18
14081.0	1.802284446200627e+18
14082.0	1.8019463668432893e+18
14083.0	1.8016123106623485e+18
14084.0	1.801277699155558e+18
14085.0	1.8004252924313597e+18
14086.0	1.8005625854230528e+18
14087.0	1.8002717423173632e+18
14088.0	1.799920477745971e+18
14089.0	1.7995888022519805e+18
14090.0	1.799260460390809e+18
14091.0	1.7989357960953853e+18
14092.0	1.7986016073744381e+18
14093.0	1.7982672173268984e+18
14094.0	1.797932741715558e+18
14095.0	1.797597600048742e+18
14096.0	1.7971567099117563e+18
14097.0	1.796897355962777e+18
14098.0	1.79654701917143e+18
14099.0	1.7962617897222144e+18
14100.0	1.795914316801638e+18
14101.0	1.7955951487221755e+18
14102.0	1.7952612401807355e+18
14103.0	1.794909831325286e+18
14104.0	1.7945911413964797e+18
14105.0	1.794260636952166e+18
14106.0	1.7939273642672125e+18
14107.0	1.7935932359442427e+18
14108.0	1.793245518076313e+18
14109.0	1.7929214242062333e+18
14110.0	1.7925890977562621e+18
14111.0	1.7922477401309181e+18
14112.0	1.7919192606965755e+18
14113.0	1.7915857581637627e+18
14114.0	1.7912467812253693e+18
14115.0	1.7909252442030077e+18
14116.0	1.7905310031151104e+18
14117.0	1.786042492177613e+18
14118.0	1.7897440963198968e+18
14119.0	1.789289391823257e+18
14120.0	1.7889708596002816e+18
14121.0	1.788672260387635e+18
14122.0	1.7882853593317376e+18
14123.0	1.7879845438488576e+18
14124.0	1.787642520168038e+18
14125.0	1.786829612043468e+18
14126.0	1.7870262779248637e+18
14127.0	1.7867046771490816e+18
14128.0	1.7863718809370621e+18
14129.0	1.786028498301747e+18
14130.0	1.7856869494161405e+18
14131.0	1.7853790455595003e+18
14132.0	1.7850402548482048e+18
14133.0	1.7840884733181934e+18
14134.0	1.7843830761979904e+18
14135.0	1.7840280854069243e+18
14136.0	1.783650879904153e+18
14137.0	1.7833812180336637e+18
14138.0	1.7830123692621821e+18
14139.0	1.782728285696819e+18
14140.0	1.7823914881187837e+18
14141.0	1.782037307667251e+18
14142.0	1.7814235484520448e+18
14143.0	1.78139959394304e+18
14144.0	1.7810757836079104e+18
14145.0	1.7807441114693632e+18
14146.0	1.7804073910665213e+18
14147.0	1.7800804903682048e+18
14148.0	1.7797447866646525e+18
14149.0	1.7794168726224893e+18
14150.0	1.7790952852684797e+18
14151.0	1.7787501745799165e+18
14152.0	1.7784353954201597e+18
14153.0	1.778105338927513e+18
14154.0	1.7777470681907197e+18
14155.0	1.777250472663449e+18
14156.0	1.7770898173984763e+18
14157.0	1.7767865339871232e+18
14158.0	1.7764523335221248e+18
14159.0	1.7761273840140285e+18
14160.0	1.7757908045398008e+18
14161.0	1.7753993870573565e+18
14162.0	1.7750165578317816e+18
14163.0	1.7748058091552763e+18
14164.0	1.7743465999761403e+18
14165.0	1.7740846187151355e+18
14166.0	1.7738210536849405e+18
14167.0	1.7734779193524221e+18
14168.0	1.7731575718346747e+18
14169.0	1.7728369240047613e+18
14170.0	1.7725009921310717e+18
14171.0	1.772176347968307e+18
14172.0	1.771851321285017e+18
14173.0	1.7714782916313085e+18
14174.0	1.7711873411514365e+18
14175.0	1.77086546355159e+18
14176.0	1.770537153567129e+18
14177.0	1.77020968412119e+18
14178.0	1.7698810620805115e+18
14179.0	1.7695451738275835e+18
14180.0	1.7692260493688832e+18
14181.0	1.768898170558873e+18
14182.0	1.7685693841014781e+18
14183.0	1.768242459915059e+18
14184.0	1.7679085010419707e+18
14185.0	1.7675845346787328e+18
14186.0	1.7665036742819837e+18
14187.0	1.7668976670670843e+18
14188.0	1.7665995627823104e+18
14189.0	1.7662702444871675e+18
14190.0	1.7659440870195197e+18
14191.0	1.7656137520250877e+18
14192.0	1.765285406808473e+18
14193.0	1.7648419514351616e+18
14194.0	1.764634492770713e+18
14195.0	1.764315349857075e+18
14196.0	1.7639883988271104e+18
14197.0	1.7636617195880448e+18
14198.0	1.763329059271475e+18
14199.0	1.7630057354756093e+18
14200.0	1.762204140227789e+18
14201.0	1.762331766187622e+18
14202.0	1.76202584204247e+18
14203.0	1.7616928025608187e+18
14204.0	1.7613734230884347e+18
14205.0	1.7610472924643323e+18
14206.0	1.7605783776657405e+18
14207.0	1.760397789390438e+18
14208.0	1.76007259661271e+18
14209.0	1.759590753291468e+18
14210.0	1.7593127917322235e+18
14211.0	1.759089532285747e+18
14212.0	1.7587687301054461e+18
14213.0	1.7584404553531387e+18
14214.0	1.7581159454081016e+18
14215.0	1.7577207849287677e+18
14216.0	1.7574108392849403e+18
14217.0	1.757085317673779e+18
14218.0	1.7567464313323517e+18
14219.0	1.7564343398825981e+18
14220.0	1.7561044125745147e+18
14221.0	1.7557785654853627e+18
14222.0	1.7553775799566333e+18
14223.0	1.7550002066817021e+18
14224.0	1.7546744988434432e+18
14225.0	1.7529202295177224e+18
14226.0	1.7540160468025341e+18
14227.0	1.7536989305765888e+18
14228.0	1.7496032833175562e+18
14229.0	1.752360222824854e+18
14230.0	1.752725971166822e+18
14231.0	1.7523705861111805e+18
14232.0	1.7520780602507261e+18
14233.0	1.7516938586488832e+18
14234.0	1.7513720028594176e+18
14235.0	1.7510445065699325e+18
14236.0	1.7507229494149115e+18
14237.0	1.750397005017907e+18
14238.0	1.7500735251939325e+18
14239.0	1.749736704127795e+18
14240.0	1.7475107366633472e+18
14241.0	1.749085907530547e+18
14242.0	1.7487710662950912e+18
14243.0	1.7482727108378621e+18
14244.0	1.7481294199914493e+18
14245.0	1.74779013267456e+18
14246.0	1.7474627051716603e+18
14247.0	1.7471530212524032e+18
14248.0	1.7468148328431613e+18
14249.0	1.7465087694471165e+18
14250.0	1.7461849859555325e+18
14251.0	1.7458644035567608e+18
14252.0	1.7455345416798203e+18
14253.0	1.7451592521351165e+18
14254.0	1.744833230562918e+18
14255.0	1.7444700994666493e+18
14256.0	1.742663763728794e+18
14257.0	1.7437859816407035e+18
14258.0	1.7435415560585216e+18
14259.0	1.7431974671024125e+18
14260.0	1.7428455180206075e+18
14261.0	1.7425502021091325e+18
14262.0	1.7422696300150781e+18
14263.0	1.7397279354781711e+18
14264.0	1.7411912794898424e+18
14265.0	1.741296360226816e+18
14266.0	1.7409821917577216e+18
14267.0	1.7406617905528824e+18
14268.0	1.7403378493554685e+18
14269.0	1.740006613424537e+18
14270.0	1.7396945219747835e+18
14271.0	1.7393707888148477e+18
14272.0	1.7390476445351933e+18
14273.0	1.7387148214796285e+18
14274.0	1.7350437518704653e+18
14275.0	1.7377403856748541e+18
14276.0	1.7376840712716285e+18
14277.0	1.7373661866491904e+18
14278.0	1.737060161840742e+18
14279.0	1.7367373799489533e+18
14280.0	1.7364083401555963e+18
14281.0	1.736095035713126e+18
14282.0	1.7357735993540605e+18
14283.0	1.7354517855076347e+18
14284.0	1.7351299162963963e+18
14285.0	1.7348073323757563e+18
14286.0	1.734481574205849e+18
14287.0	1.7341645670318077e+18
14288.0	1.7338419596230653e+18
14289.0	1.7322917398314985e+18
14290.0	1.7331981742243837e+18
14291.0	1.7328781052084221e+18
14292.0	1.73255553974272e+18
14293.0	1.7322340262084605e+18
14294.0	1.7317537448460288e+18
14295.0	1.7315781914132475e+18
14296.0	1.7302799486287875e+18
14297.0	1.730947857986355e+18
14298.0	1.7301005230145533e+18
14299.0	1.730290224673587e+18
14300.0	1.7299786986160125e+18
14301.0	1.729609383437926e+18
14302.0	1.729290002287821e+18
14303.0	1.7289309631545341e+18
14304.0	1.7286286981201915e+18
14305.0	1.728325371088076e+18
14306.0	1.727969719274701e+18
14307.0	1.7276579298148347e+18
14308.0	1.7273518613856253e+18
14309.0	1.7270125807796224e+18
14310.0	1.7265545812377595e+18
14311.0	1.7259367048937472e+18
14312.0	1.7259492274077693e+18
14313.0	1.7255962968588288e+18
14314.0	1.7254146969174013e+18
14315.0	1.7251184733585405e+18
14316.0	1.7247413920071675e+18
14317.0	1.7244307182321661e+18
14318.0	1.724166212000153e+18
14319.0	1.7238488642486267e+18
14320.0	1.7235292985491453e+18
14321.0	1.723207553489305e+18
14322.0	1.722844466013798e+18
14323.0	1.7225505677770747e+18
14324.0	1.7222534768361472e+18
14325.0	1.7219234488647675e+18
14326.0	1.7216152614731776e+18
14327.0	1.7212885570682875e+18
14328.0	1.720955779311206e+18
14329.0	1.7206044006547453e+18
14330.0	1.720285182243635e+18
14331.0	1.7199622694895613e+18
14332.0	1.7196468225966077e+18
14333.0	1.719327807189811e+18
14334.0	1.719008721318707e+18
14335.0	1.7186737776230397e+18
14336.0	1.7182165867429888e+18
14337.0	1.718048398508032e+18
14338.0	1.7177294552432637e+18
14339.0	1.7174012358557696e+18
14340.0	1.717094377219686e+18
14341.0	1.7167666426937336e+18
14342.0	1.7164558682554363e+18
14343.0	1.7161362790678523e+18
14344.0	1.715814993703731e+18
14345.0	1.7155020029951997e+18
14346.0	1.7151753170452477e+18
14347.0	1.714798401788313e+18
14348.0	1.7145426566184952e+18
14349.0	1.7142288354377725e+18
14350.0	1.7137902236467195e+18
14351.0	1.7134576992255995e+18
14352.0	1.7132645951471616e+18
14353.0	1.7129555823165437e+18
14354.0	1.7126236702638077e+18
14355.0	1.7122766352285693e+18
14356.0	1.7119703352737795e+18
14357.0	1.7116869244747768e+18
14358.0	1.7113692445343741e+18
14359.0	1.711034698458726e+18
14360.0	1.7107118645575677e+18
14361.0	1.7103595866423293e+18
14362.0	1.7100464046735357e+18
14363.0	1.7097278539956221e+18
14364.0	1.7090302338662397e+18
14365.0	1.7088396245598203e+18
14366.0	1.7083920906452987e+18
14367.0	1.7081452793430013e+18
14368.0	1.7078275188719613e+18
14369.0	1.7075109479055357e+18
14370.0	1.7071940799823872e+18
14371.0	1.706877472106086e+18
14372.0	1.706553663448678e+18
14373.0	1.7062398758223872e+18
14374.0	1.7059257140641787e+18
14375.0	1.7056067087237112e+18
14376.0	1.705292540254617e+18
14377.0	1.7049749391671293e+18
14378.0	1.7046556637134843e+18
14379.0	1.7043421545889787e+18
14380.0	1.704024310231859e+18
14381.0	1.703695127832166e+18
14382.0	1.703390425068339e+18
14383.0	1.70307066307543e+18
14384.0	1.7027379541049341e+18
14385.0	1.7024428529418235e+18
14386.0	1.7021059614113787e+18
14387.0	1.7018097663737853e+18
14388.0	1.7014913096482813e+18
14389.0	1.7011771462123512e+18
14390.0	1.7008587280744443e+18
14391.0	1.7005451786846205e+18
14392.0	1.7002275088105467e+18
14393.0	1.6999132933652483e+18
14394.0	1.6995529992962048e+18
14395.0	1.6992643019964416e+18
14396.0	1.6989651675906043e+18
14397.0	1.6986248937734141e+18
14398.0	1.6982823231553533e+18
14399.0	1.697966493741875e+18
14400.0	1.6976260940955643e+18
14401.0	1.6973268019838976e+18
14402.0	1.6970157087784957e+18
14403.0	1.69556931982131e+18
14404.0	1.6912428516245478e+18
14405.0	1.6940314983923666e+18
14406.0	1.6957513727475707e+18
14407.0	1.6938118024265736e+18
14408.0	1.695092754612224e+18
14409.0	1.6947853725270013e+18
14410.0	1.6944655199371261e+18
14411.0	1.6941779953647608e+18
14412.0	1.6938599748468733e+18
14413.0	1.6935494487113728e+18
14414.0	1.693231090971443e+18
14415.0	1.6929171909378048e+18
14416.0	1.692596145487872e+18
14417.0	1.6922620842737667e+18
14418.0	1.6919205454544893e+18
14419.0	1.691654905082675e+18
14420.0	1.6913356396953597e+18
14421.0	1.691025746060902e+18
14422.0	1.690704079853977e+18
14423.0	1.690359846613811e+18
14424.0	1.683394904509641e+18
14425.0	1.689745666290483e+18
14426.0	1.6894508771835904e+18
14427.0	1.6891371415666685e+18
14428.0	1.6887982267039744e+18
14429.0	1.6885043217563643e+18
14430.0	1.6881933980008443e+18
14431.0	1.6872156201746435e+18
14432.0	1.687558835037798e+18
14433.0	1.686012982355557e+18
14434.0	1.686915004340633e+18
14435.0	1.6865320811626493e+18
14436.0	1.6863076355670016e+18
14437.0	1.6859949720141821e+18
14438.0	1.685556923937587e+18
14439.0	1.6853029286313981e+18
14440.0	1.685001983963955e+18
14441.0	1.6846771602849787e+18
14442.0	1.6843553699266557e+18
14443.0	1.6839910577143803e+18
14444.0	1.6837392300244987e+18
14445.0	1.68342979608576e+18
14446.0	1.6810234366394378e+18
14447.0	1.6827857909055485e+18
14448.0	1.6824891378499584e+18
14449.0	1.6821755867824123e+18
14450.0	1.6818549154643965e+18
14451.0	1.681542533768806e+18
14452.0	1.6812314288193528e+18
14453.0	1.6808987852799997e+18
14454.0	1.6806025986310141e+18
14455.0	1.6802790282100733e+18
14456.0	1.6799646684807165e+18
14457.0	1.679653051826176e+18
14458.0	1.679340092994355e+18
14459.0	1.6790197135998976e+18
14460.0	1.6786920042397693e+18
14461.0	1.6782808265523197e+18
14462.0	1.67764504388567e+18
14463.0	1.6777174275063803e+18
14464.0	1.6774473965371387e+18
14465.0	1.677114081909145e+18
14466.0	1.6768323656089597e+18
14467.0	1.6764884561690621e+18
14468.0	1.6762063623815165e+18
14469.0	1.67582471594967e+18
14470.0	1.675546709091942e+18
14471.0	1.6752612246290432e+18
14472.0	1.6749546562387965e+18
14473.0	1.6746458145357821e+18
14474.0	1.674336647354777e+18
14475.0	1.6740207474769915e+18
14476.0	1.673631091602227e+18
14477.0	1.673395168713113e+18
14478.0	1.673082431340544e+18
14479.0	1.6727659929141248e+18
14480.0	1.672437191357235e+18
14481.0	1.672147633386291e+18
14482.0	1.671830173227417e+18
14483.0	1.6715086328496128e+18
14484.0	1.6711962293436416e+18
14485.0	1.670848070234931e+18
14486.0	1.670206732632064e+18
14487.0	1.6702619816820733e+18
14488.0	1.6698703511289853e+18
14489.0	1.6695338203086843e+18
14490.0	1.669267626288742e+18
14491.0	1.6689697199751163e+18
14492.0	1.6686582878699515e+18
14493.0	1.6683303402733565e+18
14494.0	1.6680047733637115e+18
14495.0	1.6677193811755005e+18
14496.0	1.6672381619666941e+18
14497.0	1.6670936329617403e+18
14498.0	1.6667826035097597e+18
14499.0	1.666470252013158e+18
14500.0	1.6661571572858877e+18
14501.0	1.6658033996201981e+18
14502.0	1.6652191448170496e+18
14503.0	1.665019747604889e+18
14504.0	1.6646743164715003e+18
14505.0	1.6643351784718333e+18
14506.0	1.663985792948633e+18
14507.0	1.663433832608563e+18
14508.0	1.6634309653823485e+18
14509.0	1.6631188571553792e+18
14510.0	1.662802026142105e+18
14511.0	1.6624932381261821e+18
14512.0	1.662161270708633e+18
14513.0	1.6618678992764925e+18
14514.0	1.6615133698588667e+18
14515.0	1.6612399649914875e+18
14516.0	1.65779660917965e+18
14517.0	1.6606105895436288e+18
14518.0	1.6603048918908925e+18
14519.0	1.659993050421657e+18
14520.0	1.6596794959986685e+18
14521.0	1.6593674615914493e+18
14522.0	1.6590516623769597e+18
14523.0	1.658611079263027e+18
14524.0	1.6583481064685565e+18
14525.0	1.658111227278131e+18
14526.0	1.657803063374643e+18
14527.0	1.6574657155039232e+18
14528.0	1.6570054376161277e+18
14529.0	1.656854888946073e+18
14530.0	1.656533747866009e+18
14531.0	1.6562412069060603e+18
14532.0	1.6558235968339968e+18
14533.0	1.6556185289228288e+18
14534.0	1.6553082393460733e+18
14535.0	1.6547730495111165e+18
14536.0	1.654283601077862e+18
14537.0	1.6539583311249403e+18
14538.0	1.653664275182387e+18
14539.0	1.6533525259878397e+18
14540.0	1.653040503324672e+18
14541.0	1.652700873752576e+18
14542.0	1.6524136713027581e+18
14543.0	1.6520417204240381e+18
14544.0	1.6517494093119485e+18
14545.0	1.6514180492296187e+18
14546.0	1.6425658682965965e+18
14547.0	1.6429682782109632e+18
14548.0	1.6504738744893435e+18
14549.0	1.6500298923114493e+18
14550.0	1.6498600733310976e+18
14551.0	1.6495594155540475e+18
14552.0	1.649245690003456e+18
14553.0	1.648924147947929e+18
14554.0	1.648622914712371e+18
14555.0	1.6483101890838528e+18
14556.0	1.647995998804377e+18
14557.0	1.647685066660249e+18
14558.0	1.6473693949526016e+18
14559.0	1.644725735207727e+18
14560.0	1.6467309195427837e+18
14561.0	1.6464254383161341e+18
14562.0	1.6460804937220096e+18
14563.0	1.645804421277286e+18
14564.0	1.6454381410975744e+18
14565.0	1.6451856691625984e+18
14566.0	1.6448735374475267e+18
14567.0	1.6445570386231296e+18
14568.0	1.6442057824403453e+18
14569.0	1.6439326845960187e+18
14570.0	1.6429519791456246e+18
14571.0	1.6433051261206525e+18
14572.0	1.6429332373176315e+18
14573.0	1.6426174834016253e+18
14574.0	1.6422449184767997e+18
14575.0	1.6420410534920187e+18
14576.0	1.6417235916554237e+18
14577.0	1.6414275526459392e+18
14578.0	1.641117440907673e+18
14579.0	1.6408104748974075e+18
14580.0	1.6404969724837885e+18
14581.0	1.6401756300771323e+18
14582.0	1.6398625051508733e+18
14583.0	1.6395598525628413e+18
14584.0	1.6392097741406205e+18
14585.0	1.638934070794649e+18
14586.0	1.638617652500889e+18
14587.0	1.6383072773603328e+18
14588.0	1.6379957865349115e+18
14589.0	1.637688317208166e+18
14590.0	1.6373809351229435e+18
14591.0	1.6370659345039357e+18
14592.0	1.6367534269792253e+18
14593.0	1.636308220064563e+18
14594.0	1.636148408693555e+18
14595.0	1.6358301079961595e+18
14596.0	1.6351737581404152e+18
14597.0	1.6347915765153782e+18
14598.0	1.634875219325747e+18
14599.0	1.6346067603816443e+18
14600.0	1.6342888707260413e+18
14601.0	1.6339848642166781e+18
14602.0	1.633655077837209e+18
14603.0	1.6333669761286141e+18
14604.0	1.6329810867388408e+18
14605.0	1.6326734731280381e+18
14606.0	1.632344423268352e+18
14607.0	1.6321239085744125e+18
14608.0	1.631820779513446e+18
14609.0	1.631455413692006e+18
14610.0	1.631042699211571e+18
14611.0	1.6308235686379515e+18
14612.0	1.630545773173145e+18
14613.0	1.630241729753907e+18
14614.0	1.6299268096655357e+18
14615.0	1.6296215331209213e+18
14616.0	1.6293173940715515e+18
14617.0	1.6290019488563197e+18
14618.0	1.628672090334822e+18
14619.0	1.6281328873897976e+18
14620.0	1.6271613607542781e+18
14621.0	1.6277697546158075e+18
14622.0	1.6274577772511232e+18
14623.0	1.6271520242335741e+18
14624.0	1.626768242062131e+18
14625.0	1.626528113124966e+18
14626.0	1.6262155015815168e+18
14627.0	1.6259028699054077e+18
14628.0	1.6256017524326397e+18
14629.0	1.6252908135776253e+18
14630.0	1.6249695701565435e+18
14631.0	1.624666971255603e+18
14632.0	1.6238099608633341e+18
14633.0	1.6239651350118395e+18
14634.0	1.623723157225472e+18
14635.0	1.6231604393345014e+18
14636.0	1.6224317561896952e+18
14637.0	1.6228034352775163e+18
14638.0	1.6224707028189181e+18
14639.0	1.622147357212672e+18
14640.0	1.6218607469985787e+18
14641.0	1.6194558891130865e+18
14642.0	1.621234020673126e+18
14643.0	1.6209272325013501e+18
14644.0	1.620597837031014e+18
14645.0	1.6202724798365693e+18
14646.0	1.6199589522571256e+18
14647.0	1.6196034497609725e+18
14648.0	1.6193477163352061e+18
