# Flux units: erg / (cm m2 s)
# Wavelength units: Angstrom
wave	flux
14000.0	1.110653325751091e+18
14001.0	1.1104312230936571e+18
14002.0	1.1103184583917565e+18
14003.0	1.1101562881441791e+18
14004.0	1.1099893724610559e+18
14005.0	1.109822468521984e+18
14006.0	1.1096540797992957e+18
14007.0	1.1094881271283711e+18
14008.0	1.1093082233634815e+18
14009.0	1.1091545205768191e+18
14010.0	1.1089884831809536e+18
14011.0	1.1086976845348861e+18
14012.0	1.1086550980886528e+18
14013.0	1.1084885372436477e+18
14014.0	1.1083219378110461e+18
14015.0	1.1081550875590652e+18
14016.0	1.107988906718003e+18
14017.0	1.1078224456974333e+18
14018.0	1.1076559863545855e+18
14019.0	1.1074895739879423e+18
14020.0	1.1073230928347133e+18
14021.0	1.1071566410416127e+18
14022.0	1.1069903377268733e+18
14023.0	1.1068238507016191e+18
14024.0	1.1066566271565821e+18
14025.0	1.1064917373222911e+18
14026.0	1.1063253325053948e+18
14027.0	1.1061594351992831e+18
14028.0	1.1059933374054397e+18
14029.0	1.1058272362561536e+18
14030.0	1.1056121892569085e+18
14031.0	1.1054922371956733e+18
14032.0	1.1053289487466493e+18
14033.0	1.1051579545223167e+18
14034.0	1.1049973118402559e+18
14035.0	1.1048314858373119e+18
14036.0	1.1046656413794301e+18
14037.0	1.1044998313148413e+18
14038.0	1.1043340539658237e+18
14039.0	1.1041683118489597e+18
14040.0	1.1040017476485116e+18
14041.0	1.1038364467724285e+18
14042.0	1.1036689615028221e+18
14043.0	1.1034981644107775e+18
14044.0	1.1033373556342783e+18
14045.0	1.1031737366740991e+18
14046.0	1.103009055716147e+18
14047.0	1.1028434192957437e+18
14048.0	1.1026780647325693e+18
14049.0	1.1025127328186367e+18
14050.0	1.1023473606393855e+18
14051.0	1.1021807393964031e+18
14052.0	1.1020166473187327e+18
14053.0	1.1018514387173373e+18
14054.0	1.1016861999169533e+18
14055.0	1.1015209955098623e+18
14056.0	1.1013558103965695e+18
14057.0	1.1011906814869501e+18
14058.0	1.1010255752265727e+18
14059.0	1.100860502520627e+18
14060.0	1.1006954625302524e+18
14061.0	1.1005291206279165e+18
14062.0	1.1003654681133055e+18
14063.0	1.1001983058051072e+18
14064.0	1.1000214898868223e+18
14065.0	1.0998691485712381e+18
14066.0	1.0997059188424703e+18
14067.0	1.0995411145719805e+18
14068.0	1.0993762373206013e+18
14069.0	1.0992113072209916e+18
14070.0	1.0990467395092479e+18
14071.0	1.0988815267135484e+18
14072.0	1.0987174363135997e+18
14073.0	1.0985528325308413e+18
14074.0	1.0983882715299837e+18
14075.0	1.0982236912353277e+18
14076.0	1.0980592183148541e+18
14077.0	1.0978836690763775e+18
14078.0	1.0977295267266559e+18
14079.0	1.0975650227683327e+18
14080.0	1.0974015095046141e+18
14081.0	1.0972371666075647e+18
14082.0	1.0970726039289855e+18
14083.0	1.0969083457568767e+18
14084.0	1.0967443199492095e+18
14085.0	1.0965415664549885e+18
14086.0	1.0964151014785021e+18
14087.0	1.0962517937356797e+18
14088.0	1.0960875573739519e+18
14089.0	1.095923592803123e+18
14090.0	1.0957594000621567e+18
14091.0	1.0955955361546237e+18
14092.0	1.0954315573231615e+18
14093.0	1.0952676061741055e+18
14094.0	1.0951036927737855e+18
14095.0	1.0949398037004285e+18
14096.0	1.0947741513416703e+18
14097.0	1.0946120364589055e+18
14098.0	1.0944474989461501e+18
14099.0	1.0942845921787901e+18
14100.0	1.0941185254227967e+18
14101.0	1.0939571948748797e+18
14102.0	1.0937934995783677e+18
14103.0	1.0936264932982783e+18
14104.0	1.09346629353472e+18
14105.0	1.0933027223896061e+18
14106.0	1.0931392183533567e+18
14107.0	1.0929756732129277e+18
14108.0	1.0928122857783295e+18
14109.0	1.0926481534353405e+18
14110.0	1.0924850872844285e+18
14111.0	1.0923211814338557e+18
14112.0	1.0921584273391612e+18
14113.0	1.0919954274582527e+18
14114.0	1.0918322145067004e+18
14115.0	1.09166868866007e+18
14116.0	1.091504545411891e+18
14117.0	1.0912516607574013e+18
14118.0	1.0911794465865727e+18
14119.0	1.0910152983052287e+18
14120.0	1.0908524267700221e+18
14121.0	1.0906900979777533e+18
14122.0	1.0905249950728191e+18
14123.0	1.0903636049657852e+18
14124.0	1.0902004071137277e+18
14125.0	1.0899660235341821e+18
14126.0	1.0898755372974077e+18
14127.0	1.0897126984777727e+18
14128.0	1.0895496532983805e+18
14129.0	1.089385448813363e+18
14130.0	1.0892224740982783e+18
14131.0	1.0890616544165885e+18
14132.0	1.0888989363929085e+18
14133.0	1.0886514858786813e+18
14134.0	1.0885736647622655e+18
14135.0	1.0884091389935613e+18
14136.0	1.0882474334748672e+18
14137.0	1.0880858655293437e+18
14138.0	1.0879227557576701e+18
14139.0	1.087760999068467e+18
14140.0	1.0875981501825023e+18
14141.0	1.0874357987409919e+18
14142.0	1.0872684485279743e+18
14143.0	1.0871112082653181e+18
14144.0	1.0869492770930685e+18
14145.0	1.0867869818552319e+18
14146.0	1.0866245331058687e+18
14147.0	1.0864624199008255e+18
14148.0	1.0863002949517311e+18
14149.0	1.0861382715047936e+18
14150.0	1.0859761515888637e+18
14151.0	1.08581368102912e+18
14152.0	1.0856520451358719e+18
14153.0	1.085490014139187e+18
14154.0	1.0853248206372864e+18
14155.0	1.0851480500174847e+18
14156.0	1.0849995028692988e+18
14157.0	1.0848423020331005e+18
14158.0	1.084679859155763e+18
14159.0	1.0845185218969597e+18
14160.0	1.0843549222305791e+18
14161.0	1.0841869596491773e+18
14162.0	1.0840172866306047e+18
14163.0	1.0838713709887487e+18
14164.0	1.083707694147174e+18
14165.0	1.0835421969776637e+18
14166.0	1.0833865513893887e+18
14167.0	1.0832252049031167e+18
14168.0	1.0830633920102397e+18
14169.0	1.0829021629644796e+18
14170.0	1.0827400841527293e+18
14171.0	1.0825786663632893e+18
14172.0	1.0824178273878013e+18
14173.0	1.0822519846076413e+18
14174.0	1.0820941521092608e+18
14175.0	1.0819337912844285e+18
14176.0	1.081772506034995e+18
14177.0	1.0816112593731583e+18
14178.0	1.0814499338584063e+18
14179.0	1.0812878466580476e+18
14180.0	1.0811276905152511e+18
14181.0	1.0809665596162045e+18
14182.0	1.0808053196652541e+18
14183.0	1.0806444068700159e+18
14184.0	1.0804825998491648e+18
14185.0	1.0803223640145919e+18
14186.0	1.0801446303825919e+18
14187.0	1.0799968289816575e+18
14188.0	1.079839350482534e+18
14189.0	1.0796784980852732e+18
14190.0	1.0795176708538365e+18
14191.0	1.0793568394280957e+18
14192.0	1.0791949787201536e+18
14193.0	1.0790331708604415e+18
14194.0	1.0788745120841724e+18
14195.0	1.0787140615012351e+18
14196.0	1.0785533668098045e+18
14197.0	1.0783927350329341e+18
14198.0	1.0782313054994431e+18
14199.0	1.0780795748745215e+18
14200.0	1.0779105142243327e+18
14201.0	1.0777581888471037e+18
14202.0	1.0775987910344701e+18
14203.0	1.0774373078138877e+18
14204.0	1.0772775367081983e+18
14205.0	1.0771171633004543e+18
14206.0	1.0769385664806912e+18
14207.0	1.0767968795361279e+18
14208.0	1.0766366176968701e+18
14209.0	1.0764572013101055e+18
14210.0	1.0763007302828031e+18
14211.0	1.0761558137241597e+18
14212.0	1.0759956374487037e+18
14213.0	1.0758356130070527e+18
14214.0	1.0756753520066557e+18
14215.0	1.0755129619775487e+18
14216.0	1.0753554507628541e+18
14217.0	1.0751953659232252e+18
14218.0	1.0750353700028415e+18
14219.0	1.0748754168643581e+18
14220.0	1.0747155241238527e+18
14221.0	1.0745555667910655e+18
14222.0	1.0743957352873984e+18
14223.0	1.0742359230775293e+18
14224.0	1.0740761628770301e+18
14225.0	1.0738814305697792e+18
14226.0	1.073756046046003e+18
14227.0	1.0735969628061693e+18
14228.0	1.0733281632845823e+18
14229.0	1.0732433108369405e+18
14230.0	1.0731180454313984e+18
14231.0	1.0729584722968575e+18
14232.0	1.0727989209726975e+18
14233.0	1.0726394099138559e+18
14234.0	1.072479912276787e+18
14235.0	1.0723200245694463e+18
14236.0	1.0721610252156924e+18
14237.0	1.0720013841334272e+18
14238.0	1.0718421910028285e+18
14239.0	1.0716820306657279e+18
14240.0	1.0711850064805885e+18
14241.0	1.0713641619816447e+18
14242.0	1.0712049822728191e+18
14243.0	1.0710218841260031e+18
14244.0	1.070886705063526e+18
14245.0	1.0707258518274048e+18
14246.0	1.0705659683143677e+18
14247.0	1.0704080242475005e+18
14248.0	1.070241157218304e+18
14249.0	1.0700856231985151e+18
14250.0	1.0699265944846336e+18
14251.0	1.0697679659073536e+18
14252.0	1.0696089892028412e+18
14253.0	1.0694498992521213e+18
14254.0	1.0692907841355775e+18
14255.0	1.0691257114296319e+18
14256.0	1.0689452582109181e+18
14257.0	1.0688110731984895e+18
14258.0	1.0686558453628927e+18
14259.0	1.068497093473075e+18
14260.0	1.0683355196555264e+18
14261.0	1.0681799990575103e+18
14262.0	1.0680365437943805e+18
14263.0	1.0678366625595391e+18
14264.0	1.0677071785230336e+18
14265.0	1.0675598435287037e+18
14266.0	1.0673969434722303e+18
14267.0	1.0672384323354621e+18
14268.0	1.0670799237152765e+18
14269.0	1.0669209939869693e+18
14270.0	1.0667158681944064e+18
14271.0	1.0664998355337212e+18
14272.0	1.0663415357898751e+18
14273.0	1.0661829776769021e+18
14274.0	1.0659584314179581e+18
14275.0	1.0658606907129852e+18
14276.0	1.0657077814886397e+18
14277.0	1.0655482083540991e+18
14278.0	1.065391837151232e+18
14279.0	1.0652334325497855e+18
14280.0	1.0650745892241405e+18
14281.0	1.0649174924066813e+18
14282.0	1.0647594669703165e+18
14283.0	1.0646014222401533e+18
14284.0	1.0644434093867005e+18
14285.0	1.0642841239814141e+18
14286.0	1.0641221676433408e+18
14287.0	1.063964351922176e+18
14288.0	1.0638063927558144e+18
14289.0	1.0634328916623357e+18
14290.0	1.0634905356599295e+18
14291.0	1.0633326813511677e+18
14292.0	1.063175024174694e+18
14293.0	1.0630168519376895e+18
14294.0	1.0628379615166464e+18
14295.0	1.0627016290205693e+18
14296.0	1.062373795509043e+18
14297.0	1.0623836403793917e+18
14298.0	1.0621970701877248e+18
14299.0	1.0620705741733889e+18
14300.0	1.0619136795213821e+18
14301.0	1.0617561053921277e+18
14302.0	1.0615980732448765e+18
14303.0	1.0614362410582013e+18
14304.0	1.0612809930899455e+18
14305.0	1.0611259019886591e+18
14306.0	1.0609673262596096e+18
14307.0	1.0608105263988736e+18
14308.0	1.0606524103655423e+18
14309.0	1.0604915688734717e+18
14310.0	1.0603283223674879e+18
14311.0	1.0601639987642367e+18
14312.0	1.0600060890906623e+18
14313.0	1.0598126385627133e+18
14314.0	1.0597051041579008e+18
14315.0	1.0595481801457663e+18
14316.0	1.0593829405065213e+18
14317.0	1.0592329211576319e+18
14318.0	1.0590768930488317e+18
14319.0	1.0589199044444156e+18
14320.0	1.0587628126601213e+18
14321.0	1.0586058936811517e+18
14322.0	1.0584434281545727e+18
14323.0	1.058288673436467e+18
14324.0	1.0581350889291775e+18
14325.0	1.0579782051823613e+18
14326.0	1.0578213600231423e+18
14327.0	1.057664527446835e+18
14328.0	1.0575065716359167e+18
14329.0	1.0573509721849856e+18
14330.0	1.0571942335610879e+18
14331.0	1.0570374731268095e+18
14332.0	1.056880829294182e+18
14333.0	1.0567239237369855e+18
14334.0	1.0565624405164032e+18
14335.0	1.0564026635386879e+18
14336.0	1.0562457672089596e+18
14337.0	1.056092472947507e+18
14338.0	1.0559356814753792e+18
14339.0	1.0557791626330111e+18
14340.0	1.0556229810126845e+18
14341.0	1.0554663824785405e+18
14342.0	1.0553101337493503e+18
14343.0	1.0551535519924221e+18
14344.0	1.0549972386709503e+18
14345.0	1.0548410453065727e+18
14346.0	1.0546843469479932e+18
14347.0	1.0545257443753981e+18
14348.0	1.0543721531572223e+18
14349.0	1.054215962309427e+18
14350.0	1.0540572624289791e+18
14351.0	1.0539009952448511e+18
14352.0	1.0537463923605503e+18
14353.0	1.0535905496399868e+18
14354.0	1.0534346674929663e+18
14355.0	1.0532783164227584e+18
14356.0	1.0531224502140928e+18
14357.0	1.0529670923550717e+18
14358.0	1.0528111087058941e+18
14359.0	1.0526550503981052e+18
14360.0	1.0524989644079101e+18
14361.0	1.0523420437512191e+18
14362.0	1.0521823355600895e+18
14363.0	1.0520264332804093e+18
14364.0	1.051864111199027e+18
14365.0	1.0517129350610944e+18
14366.0	1.0515573842640893e+18
14367.0	1.0514033241227263e+18
14368.0	1.051247514956595e+18
14369.0	1.051091881112371e+18
14370.0	1.0509362036473852e+18
14371.0	1.0507805572202495e+18
14372.0	1.0506249082765311e+18
14373.0	1.0504692761100285e+18
14374.0	1.0503131876032511e+18
14375.0	1.0501568734429183e+18
14376.0	1.0500026807615485e+18
14377.0	1.049847070405427e+18
14378.0	1.0496912486563839e+18
14379.0	1.049536259896115e+18
14380.0	1.0493807711748095e+18
14381.0	1.0492250492502013e+18
14382.0	1.0490697945710591e+18
14383.0	1.0489142873948157e+18
14384.0	1.0487593900703741e+18
14385.0	1.0486041731399677e+18
14386.0	1.0484489117499392e+18
14387.0	1.0482936042225663e+18
14388.0	1.0481381616386048e+18
14389.0	1.0479831544233981e+18
14390.0	1.0478277697208319e+18
14391.0	1.047672948732723e+18
14392.0	1.0475176638545919e+18
14393.0	1.0473622833463293e+18
14394.0	1.0471974455214077e+18
14395.0	1.0470460630237181e+18
14396.0	1.046892652999475e+18
14397.0	1.0467376659169279e+18
14398.0	1.0465826486353919e+18
14399.0	1.0464277555052541e+18
14400.0	1.0462693391597565e+18
14401.0	1.0461166849490941e+18
14402.0	1.045962897437491e+18
14403.0	1.0456665883148285e+18
14404.0	1.0449298428788732e+18
14405.0	1.0450968416092155e+18
14406.0	1.0453438139727872e+18
14407.0	1.0450065608933375e+18
14408.0	1.045031619343155e+18
14409.0	1.044875670926131e+18
14410.0	1.0447244276793341e+18
14411.0	1.0445702165430272e+18
14412.0	1.0444150633660415e+18
14413.0	1.0442613026979839e+18
14414.0	1.0441063508475901e+18
14415.0	1.0439519199297533e+18
14416.0	1.0437976207130621e+18
14417.0	1.0436429364592639e+18
14418.0	1.043487105482752e+18
14419.0	1.0433338967851005e+18
14420.0	1.0431788132335613e+18
14421.0	1.0430253235175421e+18
14422.0	1.0428708775002111e+18
14423.0	1.0427156723138557e+18
14424.0	1.0418049656029181e+18
14425.0	1.0424070428426239e+18
14426.0	1.0422538895097856e+18
14427.0	1.0420991037538301e+18
14428.0	1.0419427426172924e+18
14429.0	1.0417901957808124e+18
14430.0	1.041635634000691e+18
14431.0	1.0414631793197055e+18
14432.0	1.0413232632102911e+18
14433.0	1.0410298498351103e+18
14434.0	1.0410130264817663e+18
14435.0	1.0408581669060608e+18
14436.0	1.0407075058286591e+18
14437.0	1.040553499374387e+18
14438.0	1.0403957130133503e+18
14439.0	1.0402445251313663e+18
14440.0	1.0400914573623295e+18
14441.0	1.0399341416022013e+18
14442.0	1.0397790068801533e+18
14443.0	1.0396180060045311e+18
14444.0	1.0394747336130557e+18
14445.0	1.0393222220087296e+18
14446.0	1.0388761586171903e+18
14447.0	1.0390109828415485e+18
14448.0	1.0388609576206333e+18
14449.0	1.0387072422510591e+18
14450.0	1.0385534891327487e+18
14451.0	1.0383998048010239e+18
14452.0	1.0382460516827132e+18
14453.0	1.0380907424776188e+18
14454.0	1.0379389111894012e+18
14455.0	1.0377842596511741e+18
14456.0	1.0376314108248063e+18
14457.0	1.0374777122324476e+18
14458.0	1.0373245630939133e+18
14459.0	1.0371709106388991e+18
14460.0	1.0370175937282047e+18
14461.0	1.0368615354204157e+18
14462.0	1.0366993844666365e+18
14463.0	1.0365569257701373e+18
14464.0	1.0364038714228736e+18
14465.0	1.036244900590387e+18
14466.0	1.0360974741602301e+18
14467.0	1.0359415282597885e+18
14468.0	1.0357905953914877e+18
14469.0	1.035632679007027e+18
14470.0	1.0354789359550463e+18
14471.0	1.0353272825053183e+18
14472.0	1.0351728054501375e+18
14473.0	1.0350195841695741e+18
14474.0	1.0348664207704063e+18
14475.0	1.0347128354242559e+18
14476.0	1.0345513597534208e+18
14477.0	1.034406923023155e+18
14478.0	1.0342539089412095e+18
14479.0	1.0341003739267072e+18
14480.0	1.0339456066256892e+18
14481.0	1.0337948029419517e+18
14482.0	1.0336410280132605e+18
14483.0	1.0334872069472255e+18
14484.0	1.0333335746248701e+18
14485.0	1.0331775045730303e+18
14486.0	1.0329775780397055e+18
14487.0	1.0328770925821951e+18
14488.0	1.0327242227843068e+18
14489.0	1.0325700401692672e+18
14490.0	1.0324180612415485e+18
14491.0	1.0322654011588605e+18
14492.0	1.0321128643887101e+18
14493.0	1.031960091898675e+18
14494.0	1.0318042122682367e+18
14495.0	1.0316545502740476e+18
14496.0	1.0314789465096191e+18
14497.0	1.0313489339908093e+18
14498.0	1.0311965750591487e+18
14499.0	1.0310439493697536e+18
14500.0	1.0308912783818751e+18
14501.0	1.030735300604723e+18
14502.0	1.0305373848207359e+18
14503.0	1.0304312487968767e+18
14504.0	1.0302798528774141e+18
14505.0	1.0301250084012031e+18
14506.0	1.029969559106355e+18
14507.0	1.0297801242050559e+18
14508.0	1.0296708969791487e+18
14509.0	1.0295184508059647e+18
14510.0	1.0293660146991103e+18
14511.0	1.029213574397952e+18
14512.0	1.029058715661107e+18
14513.0	1.0289087642599423e+18
14514.0	1.028750841164595e+18
14515.0	1.028603965027123e+18
14516.0	1.0278764923584512e+18
14517.0	1.0282979075031039e+18
14518.0	1.0281471583453183e+18
14519.0	1.027994915176448e+18
14520.0	1.0278426636189693e+18
14521.0	1.027686403145728e+18
14522.0	1.0275330744909821e+18
14523.0	1.027372914992742e+18
14524.0	1.027221040083763e+18
14525.0	1.027075531289395e+18
14526.0	1.0269243257913344e+18
14527.0	1.026764267795251e+18
14528.0	1.0265947608711165e+18
14529.0	1.0264658355159039e+18
14530.0	1.0263133742432255e+18
14531.0	1.0261634354249727e+18
14532.0	1.0259997367730173e+18
14533.0	1.0258590916935677e+18
14534.0	1.0257075540066301e+18
14535.0	1.025555380463206e+18
14536.0	1.0254034149572608e+18
14537.0	1.0252495251046396e+18
14538.0	1.0250995409879039e+18
14539.0	1.0249475838705663e+18
14540.0	1.0247956351418367e+18
14541.0	1.0246428861399037e+18
14542.0	1.0244917670445055e+18
14543.0	1.0243353757089791e+18
14544.0	1.0241879392124924e+18
14545.0	1.0240359871283199e+18
14546.0	1.0224988032335866e+18
14547.0	1.0224430064074746e+18
14548.0	1.0235787425611775e+18
14549.0	1.0234082550087677e+18
14550.0	1.0232768541753341e+18
14551.0	1.0231251503939581e+18
14552.0	1.0229726111072256e+18
14553.0	1.0228190920310783e+18
14554.0	1.0226698519838717e+18
14555.0	1.0225180701884415e+18
14556.0	1.0223661952794621e+18
14557.0	1.0222146441707519e+18
14558.0	1.0220628632141821e+18
14559.0	1.0214895236677627e+18
14560.0	1.0217591846993919e+18
14561.0	1.0216064558301181e+18
14562.0	1.021452541650534e+18
14563.0	1.0213042310610941e+18
14564.0	1.021151886390067e+18
14565.0	1.0210012915826687e+18
14566.0	1.0208496700096511e+18
14567.0	1.0206980173987839e+18
14568.0	1.0205458539216893e+18
14569.0	1.020394831295283e+18
14570.0	1.0201283319300093e+18
14571.0	1.020091217372774e+18
14572.0	1.0199331332161536e+18
14573.0	1.0197819025522685e+18
14574.0	1.0196346908704767e+18
14575.0	1.0194853400936445e+18
14576.0	1.0193336916770815e+18
14577.0	1.0191806926946303e+18
14578.0	1.0190254749253631e+18
14579.0	1.0188743600242687e+18
14580.0	1.0187228877684732e+18
14581.0	1.0185708325044221e+18
14582.0	1.018419808200294e+18
14583.0	1.0182683778875388e+18
14584.0	1.0181149275979775e+18
14585.0	1.0179653444567039e+18
14586.0	1.0178132984201213e+18
14587.0	1.0176620862111744e+18
14588.0	1.017511188575027e+18
14589.0	1.0173625575407613e+18
14590.0	1.0172143190933501e+18
14591.0	1.017065950622515e+18
14592.0	1.0169175888625663e+18
14593.0	1.0167491070263293e+18
14594.0	1.0166212017258495e+18
14595.0	1.0164721244176381e+18
14596.0	1.0163156785561599e+18
14597.0	1.0161663504285695e+18
14598.0	1.0160271549005823e+18
14599.0	1.0158800875028477e+18
14600.0	1.0157317064491008e+18
14601.0	1.0155836391292927e+18
14602.0	1.0154346775838719e+18
14603.0	1.0152871446183935e+18
14604.0	1.0151313983668223e+18
14605.0	1.0149888792723455e+18
14606.0	1.0148276804255741e+18
14607.0	1.0146894252605437e+18
14608.0	1.0145446177538045e+18
14609.0	1.0143971284090876e+18
14610.0	1.014245994214195e+18
14611.0	1.0141004594151421e+18
14612.0	1.013952761194086e+18
14613.0	1.0138045571399677e+18
14614.0	1.0136555393908736e+18
14615.0	1.0135076692033535e+18
14616.0	1.0133595205140477e+18
14617.0	1.0132111327494141e+18
14618.0	1.0130628154490876e+18
14619.0	1.012908216759091e+18
14620.0	1.0127496502575103e+18
14621.0	1.0126177486241791e+18
14622.0	1.012469358342963e+18
14623.0	1.0123209462513663e+18
14624.0	1.0121627136163837e+18
14625.0	1.0120240616701951e+18
14626.0	1.0118753358446591e+18
14627.0	1.0117262962851836e+18
14628.0	1.0115784604909567e+18
14629.0	1.0114299032764413e+18
14630.0	1.0112811313135613e+18
14631.0	1.0111326554685439e+18
14632.0	1.0109231231401983e+18
14633.0	1.0108241140776957e+18
14634.0	1.0106863261581311e+18
14635.0	1.010500745822208e+18
14636.0	1.0103226112147453e+18
14637.0	1.0102405756616701e+18
14638.0	1.0100914195005437e+18
14639.0	1.0099408288874495e+18
14640.0	1.0097934913765375e+18
14641.0	1.0093973737570301e+18
14642.0	1.00949403149271e+18
14643.0	1.0093424359243775e+18
14644.0	1.0091935037390847e+18
