# Flux units: erg / (cm m2 s)
# Wavelength units: Angstrom
wave	flux
14000.0	1.9740318148591608e+18
14001.0	1.973568008722841e+18
14002.0	1.973171177232793e+18
14003.0	1.972737798255411e+18
14004.0	1.9723040216580093e+18
14005.0	1.971870176274022e+18
14006.0	1.9714328462622717e+18
14007.0	1.9709982408703997e+18
14008.0	1.9705193218179072e+18
14009.0	1.9701354440163325e+18
14010.0	1.9696957131849725e+18
14011.0	1.9689749539192827e+18
14012.0	1.968836129167769e+18
14013.0	1.9684032820281344e+18
14014.0	1.9679675173306363e+18
14015.0	1.9675364871634941e+18
14016.0	1.9671050560208893e+18
14017.0	1.966672557847347e+18
14018.0	1.9662398717689848e+18
14019.0	1.965807860134707e+18
14020.0	1.965375298207744e+18
14021.0	1.9649428973420541e+18
14022.0	1.9645098371317755e+18
14023.0	1.9640680393474043e+18
14024.0	1.963637834619289e+18
14025.0	1.9632160805748733e+18
14026.0	1.9627839062015997e+18
14027.0	1.9623535253127163e+18
14028.0	1.9619222602645501e+18
14029.0	1.9614907502690301e+18
14030.0	1.9606087183368195e+18
14031.0	1.9606131391332347e+18
14032.0	1.9601970557878272e+18
14033.0	1.959742275793715e+18
14034.0	1.959336015508275e+18
14035.0	1.9589063526842363e+18
14036.0	1.9584625701552125e+18
14037.0	1.958023663085158e+18
14038.0	1.9575934466129917e+18
14039.0	1.9571633375150077e+18
14040.0	1.956728057679052e+18
14041.0	1.9563011060531192e+18
14042.0	1.955867757274726e+18
14043.0	1.9554246458343421e+18
14044.0	1.9550090121183227e+18
14045.0	1.9545836660719608e+18
14046.0	1.9541532365291515e+18
14047.0	1.9537218691399677e+18
14048.0	1.953296019777126e+18
14049.0	1.952868314854195e+18
14050.0	1.9524394489479165e+18
14051.0	1.9520062696194045e+18
14052.0	1.9515819671158784e+18
14053.0	1.9511533579010045e+18
14054.0	1.9507078506741755e+18
14055.0	1.9502749045489661e+18
14056.0	1.9498466224898045e+18
14057.0	1.9494184545157123e+18
14058.0	1.9489904023044093e+18
14059.0	1.9485624054579197e+18
14060.0	1.9481345864499192e+18
14061.0	1.947703675401011e+18
14062.0	1.9472792336465917e+18
14063.0	1.9468438279815165e+18
14064.0	1.946353450090496e+18
14065.0	1.9459929580503035e+18
14066.0	1.9455697930420221e+18
14067.0	1.9451339796905984e+18
14068.0	1.944715837780787e+18
14069.0	1.944287587598336e+18
14070.0	1.943861961372467e+18
14071.0	1.9434342379945984e+18
14072.0	1.9430090613981181e+18
14073.0	1.942579022764441e+18
14074.0	1.9421350087098363e+18
14075.0	1.941699638276915e+18
14076.0	1.9412723058081787e+18
14077.0	1.9407516433645563e+18
14078.0	1.9404227528884221e+18
14079.0	1.9400015877242877e+18
14080.0	1.939579177690726e+18
14081.0	1.9391535917301755e+18
14082.0	1.938722818254438e+18
14083.0	1.9383020037341181e+18
14084.0	1.9378774109847552e+18
14085.0	1.9372800582090747e+18
14086.0	1.937018858766336e+18
14087.0	1.9366023274692603e+18
14088.0	1.9361707486871544e+18
14089.0	1.9357446728318973e+18
14090.0	1.9353263413395453e+18
14091.0	1.934903679647743e+18
14092.0	1.9344793100353536e+18
14093.0	1.934055027664486e+18
14094.0	1.9336306748293117e+18
14095.0	1.9332065619083261e+18
14096.0	1.932710454598041e+18
14097.0	1.9322637729660925e+18
14098.0	1.9318412723355643e+18
14099.0	1.9314276904730624e+18
14100.0	1.9309984890224637e+18
14101.0	1.9305807799648256e+18
14102.0	1.9301572777345021e+18
14103.0	1.9297273733185533e+18
14104.0	1.929311076902502e+18
14105.0	1.9288873649569787e+18
14106.0	1.928465074041651e+18
14107.0	1.9280402430558205e+18
14108.0	1.9276136806612987e+18
14109.0	1.9271944700428283e+18
14110.0	1.926767949591347e+18
14111.0	1.926339274945331e+18
14112.0	1.9259258407223293e+18
14113.0	1.9255076132487165e+18
14114.0	1.925078801029529e+18
14115.0	1.9246628888117245e+18
14116.0	1.9242082061254653e+18
14117.0	1.923068603662336e+18
14118.0	1.9233981299949563e+18
14119.0	1.9229618854690816e+18
14120.0	1.9225443106291707e+18
14121.0	1.9221106078515197e+18
14122.0	1.921674821343641e+18
14123.0	1.9212528508731387e+18
14124.0	1.9208296640544768e+18
14125.0	1.9201992098316283e+18
14126.0	1.9200038089523197e+18
14127.0	1.919587442071961e+18
14128.0	1.9191661980549115e+18
14129.0	1.918740303393587e+18
14130.0	1.918315321412812e+18
14131.0	1.9179057425940477e+18
14132.0	1.9174828107890683e+18
14133.0	1.9167969934311416e+18
14134.0	1.9166453492088827e+18
14135.0	1.9162157920813053e+18
14136.0	1.9157686742417405e+18
14137.0	1.9153847276535803e+18
14138.0	1.914956814693171e+18
14139.0	1.9145469775052797e+18
14140.0	1.9141176049270784e+18
14141.0	1.9137054206066688e+18
14142.0	1.91322220658688e+18
14143.0	1.9128611994861563e+18
14144.0	1.912451748174233e+18
14145.0	1.9120329670524925e+18
14146.0	1.9116134175342587e+18
14147.0	1.9111945911140347e+18
14148.0	1.910768251856486e+18
14149.0	1.9103342319894525e+18
14150.0	1.9099199723274235e+18
14151.0	1.9094945574944763e+18
14152.0	1.9090837304508416e+18
14153.0	1.9086656439058424e+18
14154.0	1.9082349929037821e+18
14155.0	1.9077380584767483e+18
14156.0	1.907400046228275e+18
14157.0	1.906994574471987e+18
14158.0	1.906574672632217e+18
14159.0	1.9061596412182525e+18
14160.0	1.9057395900612603e+18
14161.0	1.9052957655891965e+18
14162.0	1.9048555767398397e+18
14163.0	1.9044906437705728e+18
14164.0	1.904044666781696e+18
14165.0	1.9035515038728187e+18
14166.0	1.9032392731721725e+18
14167.0	1.902817450341171e+18
14168.0	1.9024041906012152e+18
14169.0	1.9019919727263736e+18
14170.0	1.9015723191894013e+18
14171.0	1.9011583078301693e+18
14172.0	1.900743635448627e+18
14173.0	1.9002756232642555e+18
14174.0	1.8999088347348987e+18
14175.0	1.8994962695716861e+18
14176.0	1.8990798221606907e+18
14177.0	1.8986648259788792e+18
14178.0	1.8982482913263616e+18
14179.0	1.8978238227283963e+18
14180.0	1.8974070901047293e+18
14181.0	1.8969841213898747e+18
14182.0	1.8965687175217147e+18
14183.0	1.8961541827133437e+18
14184.0	1.8957368041668603e+18
14185.0	1.8953245695148027e+18
14186.0	1.8947622106562555e+18
14187.0	1.8944834505015293e+18
14188.0	1.8940805926354941e+18
14189.0	1.893664479091097e+18
14190.0	1.8932514173222912e+18
14191.0	1.8928368288268288e+18
14192.0	1.8924203512168443e+18
14193.0	1.891986985661235e+18
14194.0	1.8915951537815547e+18
14195.0	1.8911832580292605e+18
14196.0	1.8907695352381437e+18
14197.0	1.8903560792047613e+18
14198.0	1.8899403616026621e+18
14199.0	1.8895274072080381e+18
14200.0	1.8890323887390715e+18
14201.0	1.8886994750865403e+18
14202.0	1.888290360996659e+18
14203.0	1.8878653907599355e+18
14204.0	1.8874632207597563e+18
14205.0	1.887050690828697e+18
14206.0	1.8865771388076027e+18
14207.0	1.8862269731438587e+18
14208.0	1.885814790501171e+18
14209.0	1.8853383997751288e+18
14210.0	1.884944328137113e+18
14211.0	1.8845758316871677e+18
14212.0	1.8841659290681341e+18
14213.0	1.883752704560332e+18
14214.0	1.8833424311648253e+18
14215.0	1.8829252539449344e+18
14216.0	1.8825124807442427e+18
14217.0	1.882088570827571e+18
14218.0	1.8816711973142525e+18
14219.0	1.881265883263795e+18
14220.0	1.8808547626188792e+18
14221.0	1.8804411270692861e+18
14222.0	1.8800149069299707e+18
14223.0	1.8796215114137597e+18
14224.0	1.8792110467579904e+18
14225.0	1.8785533631135744e+18
14226.0	1.8783891695337464e+18
14227.0	1.877979411198771e+18
14228.0	1.8769922934964224e+18
14229.0	1.877045262522777e+18
14230.0	1.876748671542886e+18
14231.0	1.8763245972094973e+18
14232.0	1.8759285928361981e+18
14233.0	1.8755155310673917e+18
14234.0	1.875109079521689e+18
14235.0	1.8746981971132413e+18
14236.0	1.8742896500932603e+18
14237.0	1.873879747474227e+18
14238.0	1.8734708581990397e+18
14239.0	1.8730583047798781e+18
14240.0	1.8719176419966976e+18
14241.0	1.8722413818675197e+18
14242.0	1.8718336737083387e+18
14243.0	1.8713487584788477e+18
14244.0	1.8710170930511864e+18
14245.0	1.8706000450158587e+18
14246.0	1.8701856746242043e+18
14247.0	1.8697888833994747e+18
14248.0	1.8693756807020544e+18
14249.0	1.8689737673932792e+18
14250.0	1.8685654837755904e+18
14251.0	1.8681586866192381e+18
14252.0	1.8677084985491453e+18
14253.0	1.867265779695616e+18
14254.0	1.866857230997913e+18
14255.0	1.86643516489728e+18
14256.0	1.865792396197888e+18
14257.0	1.8656091588001787e+18
14258.0	1.8652091077623805e+18
14259.0	1.8647919758409725e+18
14260.0	1.8643858933940221e+18
14261.0	1.8639773312745464e+18
14262.0	1.8635928461377533e+18
14263.0	1.8628190557700096e+18
14264.0	1.8627112269250555e+18
14265.0	1.8623690220503037e+18
14266.0	1.8619661490847741e+18
14267.0	1.8615596220415997e+18
14268.0	1.86115330974679e+18
14269.0	1.8607457609711613e+18
14270.0	1.8603408025976827e+18
14271.0	1.8599330139078653e+18
14272.0	1.8595285202632704e+18
14273.0	1.8591219596656635e+18
14274.0	1.8581654956146688e+18
14275.0	1.8582614579347453e+18
14276.0	1.8578914918006781e+18
14277.0	1.8574888235171837e+18
14278.0	1.857094486799155e+18
14279.0	1.8566886677544955e+18
14280.0	1.8562803858145275e+18
14281.0	1.855878843282227e+18
14282.0	1.8554739453067261e+18
14283.0	1.8550690037104637e+18
14284.0	1.8546641443225592e+18
14285.0	1.8542592597688317e+18
14286.0	1.853818169982976e+18
14287.0	1.8533747330646013e+18
14288.0	1.8529702159319037e+18
14289.0	1.8520956934815734e+18
14290.0	1.8521593814712312e+18
14291.0	1.8517570034335741e+18
14292.0	1.85135344427991e+18
14293.0	1.8509483852431355e+18
14294.0	1.8504771585441787e+18
14295.0	1.8501352187494397e+18
14296.0	1.8493572022009859e+18
14297.0	1.849334286201651e+18
14298.0	1.8487995191525376e+18
14299.0	1.8485191467073528e+18
14300.0	1.8481205401878525e+18
14301.0	1.8477182191927293e+18
14302.0	1.8473169031528445e+18
14303.0	1.846897281492582e+18
14304.0	1.846503432991539e+18
14305.0	1.8461053230776315e+18
14306.0	1.8456597470642176e+18
14307.0	1.8452742217400315e+18
14308.0	1.8448801769455613e+18
14309.0	1.8444741163089912e+18
14310.0	1.843951915394662e+18
14311.0	1.8435626437181437e+18
14312.0	1.8432373519548413e+18
14313.0	1.84282903478272e+18
14314.0	1.8424637092265981e+18
14315.0	1.842065850970931e+18
14316.0	1.8416386191654907e+18
14317.0	1.841245272303206e+18
14318.0	1.840861555562905e+18
14319.0	1.8404603989065728e+18
14320.0	1.8400587825545216e+18
14321.0	1.8396577617936384e+18
14322.0	1.8392363164499965e+18
14323.0	1.8388460616286203e+18
14324.0	1.8384544428195837e+18
14325.0	1.8380484560027643e+18
14326.0	1.8376526479228925e+18
14327.0	1.83724846130135e+18
14328.0	1.8368410819756027e+18
14329.0	1.836420661719859e+18
14330.0	1.83602015937495e+18
14331.0	1.8356195513335805e+18
14332.0	1.8352193945993213e+18
14333.0	1.8348191925665787e+18
14334.0	1.8344190609981435e+18
14335.0	1.8340106683285504e+18
14336.0	1.8335886508818427e+18
14337.0	1.833218912917913e+18
14338.0	1.832818382051737e+18
14339.0	1.8324138900848637e+18
14340.0	1.8320199878967293e+18
14341.0	1.8316185493831675e+18
14342.0	1.8312212783300603e+18
14343.0	1.830817002789273e+18
14344.0	1.8304182201090043e+18
14345.0	1.8300236904529917e+18
14346.0	1.8296227401564155e+18
14347.0	1.8292100726521853e+18
14348.0	1.8288263592673275e+18
14349.0	1.8284281671450621e+18
14350.0	1.828009379312435e+18
14351.0	1.8276064425934843e+18
14352.0	1.8272281566380027e+18
14353.0	1.8268333434470397e+18
14354.0	1.826432888078336e+18
14355.0	1.8260301493305341e+18
14356.0	1.8256340426162176e+18
14357.0	1.8252415664914432e+18
14358.0	1.824843543819059e+18
14359.0	1.8244379730771965e+18
14360.0	1.8240460355010555e+18
14361.0	1.8236386612084733e+18
14362.0	1.823234113876787e+18
14363.0	1.8228364066160635e+18
14364.0	1.8223725048496128e+18
14365.0	1.8220291708682237e+18
14366.0	1.8216331195187197e+18
14367.0	1.82124744319959e+18
14368.0	1.8208501000044541e+18
14369.0	1.820453352400486e+18
14370.0	1.820056499100057e+18
14371.0	1.8196597749841915e+18
14372.0	1.819260138343628e+18
14373.0	1.8188662462218237e+18
14374.0	1.8184696630345725e+18
14375.0	1.8180727292035072e+18
14376.0	1.8176769882324987e+18
14377.0	1.8172803949789181e+18
14378.0	1.8168831440584704e+18
14379.0	1.8164883660996603e+18
14380.0	1.816091751035699e+18
14381.0	1.815690473583411e+18
14382.0	1.8152996835688445e+18
14383.0	1.814897451492966e+18
14384.0	1.8144987979972605e+18
14385.0	1.814113470644224e+18
14386.0	1.8137103795748861e+18
14387.0	1.8133223997439997e+18
14388.0	1.8129260061392893e+18
14389.0	1.812531724786073e+18
14390.0	1.8121356767920128e+18
14391.0	1.8117412930977787e+18
14392.0	1.8113443642998781e+18
14393.0	1.8109517573128187e+18
14394.0	1.8105380261330941e+18
14395.0	1.810151776033177e+18
14396.0	1.8097672271429632e+18
14397.0	1.8093729676001277e+18
14398.0	1.8089771007999997e+18
14399.0	1.8085837673594877e+18
14400.0	1.808178357678899e+18
14401.0	1.8077921109344253e+18
14402.0	1.8074005072248832e+18
14403.0	1.8051478086221793e+18
14404.0	1.8016226538160115e+18
14405.0	1.8054456679596012e+18
14406.0	1.8058248749842427e+18
14407.0	1.8028032631504906e+18
14408.0	1.8050175251513341e+18
14409.0	1.8046348838305787e+18
14410.0	1.804245523234816e+18
14411.0	1.8038570702864381e+18
14412.0	1.803462549019033e+18
14413.0	1.8030710996598781e+18
14414.0	1.8026766085914621e+18
14415.0	1.8022841291112443e+18
14416.0	1.801888577722777e+18
14417.0	1.801486318803353e+18
14418.0	1.80108584330199e+18
14419.0	1.8007122281234427e+18
14420.0	1.800317732021862e+18
14421.0	1.7999273530490877e+18
14422.0	1.7995346739199997e+18
14423.0	1.7991369599483896e+18
14424.0	1.7881250479996867e+18
14425.0	1.7983362689925115e+18
14426.0	1.797901740775833e+18
14427.0	1.797509932384256e+18
14428.0	1.7971061282832381e+18
14429.0	1.7967232940244987e+18
14430.0	1.7963340173148155e+18
14431.0	1.7958297361448955e+18
14432.0	1.7955420756770808e+18
14433.0	1.7931868229861366e+18
14434.0	1.7947579740323835e+18
14435.0	1.794355121199513e+18
14436.0	1.7939840578355197e+18
14437.0	1.7935927359832061e+18
14438.0	1.793140054818816e+18
14439.0	1.7927956823277565e+18
14440.0	1.792418604331827e+18
14441.0	1.792024212248985e+18
14442.0	1.7916309727608832e+18
14443.0	1.7912201994043387e+18
14444.0	1.79085271629824e+18
14445.0	1.7904641828192253e+18
14446.0	1.787795399193396e+18
14447.0	1.789673662211686e+18
14448.0	1.7892926784798717e+18
14449.0	1.7889022827298813e+18
14450.0	1.7885090163982333e+18
14451.0	1.788120707733913e+18
14452.0	1.7877292483084285e+18
14453.0	1.787304982714777e+18
14454.0	1.7869506076475387e+18
14455.0	1.7865579855609853e+18
14456.0	1.786162601944678e+18
14457.0	1.7857687316332536e+18
14458.0	1.7853872479404024e+18
14459.0	1.7849963807506427e+18
14460.0	1.784607669433139e+18
14461.0	1.7841971276021755e+18
14462.0	1.7837308434710523e+18
14463.0	1.7834334891278333e+18
14464.0	1.7830514048106493e+18
14465.0	1.7826524493250555e+18
14466.0	1.7822746482311168e+18
14467.0	1.7818532834181117e+18
14468.0	1.7814934222012416e+18
14469.0	1.7810894838824955e+18
14470.0	1.7807038511841275e+18
14471.0	1.780322599016857e+18
14472.0	1.7799364428693504e+18
14473.0	1.7795526455984125e+18
14474.0	1.7791636356464637e+18
14475.0	1.77877118133207e+18
14476.0	1.778259385647104e+18
14477.0	1.7779979362238461e+18
14478.0	1.777609646014464e+18
14479.0	1.7772201813999613e+18
14480.0	1.776824500826931e+18
14481.0	1.776445486740275e+18
14482.0	1.7760554466672637e+18
14483.0	1.775663752360755e+18
14484.0	1.775276059420262e+18
14485.0	1.7748734465015803e+18
14486.0	1.7743514016153595e+18
14487.0	1.7741160055308285e+18
14488.0	1.7737111562092541e+18
14489.0	1.773330838532915e+18
14490.0	1.772950322885427e+18
14491.0	1.772566292411187e+18
14492.0	1.77217932927959e+18
14493.0	1.7717893294718968e+18
14494.0	1.7713935281029115e+18
14495.0	1.771017515460198e+18
14496.0	1.7705604185325565e+18
14497.0	1.7702425490096123e+18
14498.0	1.7698555640676344e+18
14499.0	1.7694690472099835e+18
14500.0	1.7690818760409088e+18
14501.0	1.7686358235545597e+18
14502.0	1.7681434978287613e+18
14503.0	1.7678935122771963e+18
14504.0	1.767513991518617e+18
14505.0	1.767073829512806e+18
14506.0	1.7666238259920893e+18
14507.0	1.766230574759936e+18
14508.0	1.7659706705182715e+18
14509.0	1.765584202314547e+18
14510.0	1.7651962459717627e+18
14511.0	1.7648112474521597e+18
14512.0	1.7644166120996861e+18
14513.0	1.7640386902097915e+18
14514.0	1.7636299435409405e+18
14515.0	1.7632651548557307e+18
14516.0	1.7617038319026184e+18
14517.0	1.762493579080499e+18
14518.0	1.7621077853208568e+18
14519.0	1.7617218103672832e+18
14520.0	1.761335840446873e+18
14521.0	1.7609489242914816e+18
14522.0	1.760562394012057e+18
14523.0	1.7600402836946941e+18
14524.0	1.7596573588389885e+18
14525.0	1.7594036923662333e+18
14526.0	1.7590209151500285e+18
14527.0	1.758621095637811e+18
14528.0	1.75818159465431e+18
14529.0	1.7578580527546365e+18
14530.0	1.7574689756938235e+18
14531.0	1.7570916175183872e+18
14532.0	1.7565208666963965e+18
14533.0	1.756321004755353e+18
14534.0	1.7559370279682048e+18
14535.0	1.7555457363148797e+18
14536.0	1.755166220589465e+18
14537.0	1.7547745984249856e+18
14538.0	1.7543958292856827e+18
14539.0	1.7540108643205117e+18
14540.0	1.7536257483603963e+18
14541.0	1.7532297808969728e+18
14542.0	1.75285558354903e+18
14543.0	1.7523838334009336e+18
14544.0	1.7520853533065213e+18
14545.0	1.7516966235340795e+18
14546.0	1.7387444617871293e+18
14547.0	1.73961187740876e+18
14548.0	1.7505388530237437e+18
14549.0	1.7500991708463104e+18
14550.0	1.7497734982402043e+18
14551.0	1.74939217896407e+18
14552.0	1.7490063130623997e+18
14553.0	1.7486187811831803e+18
14554.0	1.7482383141896187e+18
14555.0	1.7478531915186176e+18
14556.0	1.7474656697057275e+18
14557.0	1.747084427604787e+18
14558.0	1.746699528070758e+18
14559.0	1.7454405674598385e+18
14560.0	1.745918041994035e+18
14561.0	1.7455426635300861e+18
14562.0	1.7451473872879613e+18
14563.0	1.744776699733606e+18
14564.0	1.74438162146263e+18
14565.0	1.7440085699985403e+18
14566.0	1.7436243331645437e+18
14567.0	1.7432393128345597e+18
14568.0	1.7428329351086075e+18
14569.0	1.7424708777541632e+18
14570.0	1.7418350212677627e+18
14571.0	1.7417006542225405e+18
14572.0	1.7412901945999357e+18
14573.0	1.7409069090340861e+18
14574.0	1.7405199928786941e+18
14575.0	1.740161626511769e+18
14576.0	1.7397762152726528e+18
14577.0	1.7393929833938941e+18
14578.0	1.7390113168293888e+18
14579.0	1.7386280547516413e+18
14580.0	1.7382439269695488e+18
14581.0	1.7378554287226875e+18
14582.0	1.7374748862316541e+18
14583.0	1.7370910721835005e+18
14584.0	1.736698097775411e+18
14585.0	1.73632235021271e+18
14586.0	1.7359362662072317e+18
14587.0	1.7355511385030653e+18
14588.0	1.7351694283177981e+18
14589.0	1.7347973096669181e+18
14590.0	1.7344257966735357e+18
14591.0	1.7340527401762813e+18
14592.0	1.733679356523315e+18
14593.0	1.7332451286188032e+18
14594.0	1.7329223786037243e+18
14595.0	1.732547412859289e+18
14596.0	1.7321123209281533e+18
14597.0	1.7317376538181627e+18
14598.0	1.7314280118419453e+18
14599.0	1.7310623356420093e+18
14600.0	1.7306882372796408e+18
14601.0	1.73031724941312e+18
14602.0	1.7299385608044541e+18
14603.0	1.7295724584632315e+18
14604.0	1.7291739207303168e+18
14605.0	1.7288125344645115e+18
14606.0	1.7284207663382525e+18
14607.0	1.7280786453495803e+18
14608.0	1.7277093586927613e+18
14609.0	1.72732686836695e+18
14610.0	1.726938539569971e+18
14611.0	1.726588100437606e+18
14612.0	1.7262208320798715e+18
14613.0	1.7258488442912763e+18
14614.0	1.7254743969628157e+18
14615.0	1.7251013874417661e+18
14616.0	1.724730592513228e+18
14617.0	1.724357499106099e+18
14618.0	1.7239757469777915e+18
14619.0	1.7235692601999357e+18
14620.0	1.7230822377521147e+18
14621.0	1.722865346936832e+18
14622.0	1.7224904516567037e+18
14623.0	1.7221186366734333e+18
14624.0	1.7217143913316347e+18
14625.0	1.7213697604714493e+18
14626.0	1.7209943434199035e+18
14627.0	1.720616087663411e+18
14628.0	1.7202502252363776e+18
14629.0	1.719876212437811e+18
14630.0	1.7195004413870077e+18
14631.0	1.7191268094312443e+18
14632.0	1.7178951268958213e+18
14633.0	1.7182640696197115e+18
14634.0	1.7180001942110205e+18
14635.0	1.7175026641928184e+18
14636.0	1.7169480866070525e+18
14637.0	1.71688015733719e+18
14638.0	1.7165019351351293e+18
14639.0	1.7161225217507325e+18
14640.0	1.7157524952186877e+18
14641.0	1.7119987290341353e+18
14642.0	1.71488794682327e+18
14643.0	1.7145146772553723e+18
14644.0	1.7141327154118653e+18
14645.0	1.7137508005445627e+18
14646.0	1.7133740060835837e+18
14647.0	1.7129934837252093e+18
14648.0	1.7126309163433981e+18
