# Flux units: erg / (cm m2 s)
# Wavelength units: Angstrom
wave	flux
14000.0	2.1372797502619643e+18
14001.0	2.1368462974648317e+18
14002.0	2.1364873573171192e+18
14003.0	2.13606502278103e+18
14004.0	2.1356418980380672e+18
14005.0	2.1352182750117888e+18
14006.0	2.1347895181574144e+18
14007.0	2.1343628718768125e+18
14008.0	2.1338862815019005e+18
14009.0	2.1335105121288187e+18
14010.0	2.1330806463004672e+18
14011.0	2.1322384938106877e+18
14012.0	2.1322390290038781e+18
14013.0	2.1318333139779581e+18
14014.0	2.1314078723014653e+18
14015.0	2.1309896901263355e+18
14016.0	2.130568877283737e+18
14017.0	2.1301472826228733e+18
14018.0	2.1297253490622461e+18
14019.0	2.1293034893213693e+18
14020.0	2.128881106131353e+18
14021.0	2.12845898802135e+18
14022.0	2.128037893321523e+18
14023.0	2.1276068077895675e+18
14024.0	2.1271863170695158e+18
14025.0	2.1267737099632637e+18
14026.0	2.1263516455403515e+18
14027.0	2.125931237028659e+18
14028.0	2.1255044313645056e+18
14029.0	2.125083521214054e+18
14030.0	2.1245364279443453e+18
14031.0	2.1242090490953725e+18
14032.0	2.1238247954841595e+18
14033.0	2.1233726411243515e+18
14034.0	2.122986617516851e+18
14035.0	2.122566705610752e+18
14036.0	2.1221466796195837e+18
14037.0	2.1217266871828477e+18
14038.0	2.1213067467554808e+18
14039.0	2.1208831505727483e+18
14040.0	2.1204642385887227e+18
14041.0	2.1200459154849787e+18
14042.0	2.11961915679703e+18
14043.0	2.1191803420016637e+18
14044.0	2.118780802668953e+18
14045.0	2.118367546284441e+18
14046.0	2.117945948268134e+18
14047.0	2.117525918921523e+18
14048.0	2.117111999836979e+18
14049.0	2.116693659956019e+18
14050.0	2.1162747446165507e+18
14051.0	2.1158507139039227e+18
14052.0	2.1154327464771581e+18
14053.0	2.1150190488518653e+18
14054.0	2.1146008566104056e+18
14055.0	2.1141826006155264e+18
14056.0	2.1137643865636861e+18
14057.0	2.1133463352508408e+18
14058.0	2.112928332591923e+18
14059.0	2.1125104289185784e+18
14060.0	2.1120925067902973e+18
14061.0	2.1116701621878781e+18
14062.0	2.11125634376663e+18
14063.0	2.1108287294406648e+18
14064.0	2.1103960853053435e+18
14065.0	2.1099987890864125e+18
14066.0	2.1095878110478333e+18
14067.0	2.1091709509173243e+18
14068.0	2.1087539146260477e+18
14069.0	2.108336616610201e+18
14070.0	2.1079202077868027e+18
14071.0	2.107501614569881e+18
14072.0	2.107086999230873e+18
14073.0	2.1066705417535483e+18
14074.0	2.1062541463519227e+18
14075.0	2.1058227420528637e+18
14076.0	2.1054206911709181e+18
14077.0	2.1049755563982845e+18
14078.0	2.1045844895596536e+18
14079.0	2.1041658913095677e+18
14080.0	2.1037572654366712e+18
14081.0	2.1033417239953405e+18
14082.0	2.1029252614848512e+18
14083.0	2.1025082235158525e+18
14084.0	2.10208742745047e+18
14085.0	2.1015088584458237e+18
14086.0	2.101246539962777e+18
14087.0	2.1008473881837568e+18
14088.0	2.1004250771357693e+18
14089.0	2.1000198587154424e+18
14090.0	2.0996051729121277e+18
14091.0	2.09919075722199e+18
14092.0	2.0987762610012155e+18
14093.0	2.098361756391833e+18
14094.0	2.0979472249389048e+18
14095.0	2.0975324116287488e+18
14096.0	2.0971136724500475e+18
14097.0	2.096690436977459e+18
14098.0	2.0962885941329915e+18
14099.0	2.0958759132069883e+18
14100.0	2.0954544443752443e+18
14101.0	2.0950492242771968e+18
14102.0	2.0946354343772163e+18
14103.0	2.0942118851706875e+18
14104.0	2.093806248997683e+18
14105.0	2.093395544427725e+18
14106.0	2.0929823417303035e+18
14107.0	2.0925689695830016e+18
14108.0	2.0921457307549693e+18
14109.0	2.091740009018163e+18
14110.0	2.0913283263365115e+18
14111.0	2.0909109679226875e+18
14112.0	2.0904969498525693e+18
14113.0	2.0900914747408381e+18
14114.0	2.0896670833180667e+18
14115.0	2.0892632557289464e+18
14116.0	2.0888296838135803e+18
14117.0	2.088193723308441e+18
14118.0	2.0880200522792955e+18
14119.0	2.0876087168860155e+18
14120.0	2.0872028676423675e+18
14121.0	2.0867840546439165e+18
14122.0	2.0863794301370365e+18
14123.0	2.0859654120669176e+18
14124.0	2.0855340362891261e+18
14125.0	2.084821177414451e+18
14126.0	2.0847200611336187e+18
14127.0	2.084322771625574e+18
14128.0	2.0839129730252797e+18
14129.0	2.083493176881971e+18
14130.0	2.083072897554841e+18
14131.0	2.082678478628454e+18
14132.0	2.082242690442854e+18
14133.0	2.081475278772633e+18
14134.0	2.081423948880281e+18
14135.0	2.0810252416974843e+18
14136.0	2.0806247695515643e+18
14137.0	2.0802161772331005e+18
14138.0	2.079806002823168e+18
14139.0	2.0793968165912573e+18
14140.0	2.0789856288374781e+18
14141.0	2.0785726475993088e+18
14142.0	2.0781578628104187e+18
14143.0	2.0777564058419197e+18
14144.0	2.0773494828564477e+18
14145.0	2.076940335212134e+18
14146.0	2.0765304409817083e+18
14147.0	2.076121900672614e+18
14148.0	2.0757132429230077e+18
14149.0	2.075304472766054e+18
14150.0	2.0748953754533888e+18
14151.0	2.074485149034086e+18
14152.0	2.0740780884754427e+18
14153.0	2.073669393815961e+18
14154.0	2.0732385867857915e+18
14155.0	2.072849756350054e+18
14156.0	2.0724435027755005e+18
14157.0	2.0720351319162877e+18
14158.0	2.0716245397536763e+18
14159.0	2.0712180596867072e+18
14160.0	2.0707958912450555e+18
14161.0	2.070362617964134e+18
14162.0	2.069920098759475e+18
14163.0	2.0695793702797307e+18
14164.0	2.06916428014551e+18
14165.0	2.0687536997269501e+18
14166.0	2.0683614635163645e+18
14167.0	2.0679452291760128e+18
14168.0	2.0675505804017661e+18
14169.0	2.0671442379079677e+18
14170.0	2.0667353134006272e+18
14171.0	2.066328167278182e+18
14172.0	2.0659227223654397e+18
14173.0	2.065501167969894e+18
14174.0	2.0651030848995325e+18
14175.0	2.0647033996050427e+18
14176.0	2.0642974547312637e+18
14177.0	2.0638912296779773e+18
14178.0	2.0634844090335227e+18
14179.0	2.0630756153884667e+18
14180.0	2.0626728112095227e+18
14181.0	2.0622668965347325e+18
14182.0	2.0618604953206781e+18
14183.0	2.0614549128347643e+18
14184.0	2.0610454447456253e+18
14185.0	2.060640441073664e+18
14186.0	2.0601811782074368e+18
14187.0	2.0598058534305787e+18
14188.0	2.0594234805452792e+18
14189.0	2.059021891036774e+18
14190.0	2.058616815222784e+18
14191.0	2.0582112411254781e+18
14192.0	2.0578010063175675e+18
14193.0	2.0573960362000381e+18
14194.0	2.0569969548853243e+18
14195.0	2.0565934963949563e+18
14196.0	2.0561889742290936e+18
14197.0	2.0557844872953853e+18
14198.0	2.0553768462450688e+18
14199.0	2.0549735991476221e+18
14200.0	2.0545466173227008e+18
14201.0	2.0541613772111867e+18
14202.0	2.0537628076015616e+18
14203.0	2.0533558812606461e+18
14204.0	2.0529529411862528e+18
14205.0	2.0525461624848384e+18
14206.0	2.052059535979315e+18
14207.0	2.0517360242786301e+18
14208.0	2.051336921153536e+18
14209.0	2.0508414295670781e+18
14210.0	2.0504557029163003e+18
14211.0	2.0501243545780221e+18
14212.0	2.0497278401773565e+18
14213.0	2.0493263228108797e+18
14214.0	2.048922808955699e+18
14215.0	2.0485127503085565e+18
14216.0	2.048100720338534e+18
14217.0	2.0476305103388664e+18
14218.0	2.0472172505989115e+18
14219.0	2.0468252408807421e+18
14220.0	2.0464228494213115e+18
14221.0	2.0460201677160445e+18
14222.0	2.0456104295137277e+18
14223.0	2.0452154183516155e+18
14224.0	2.04481194140631e+18
14225.0	2.0443292357361664e+18
14226.0	2.044001417324134e+18
14227.0	2.0436052518895616e+18
14228.0	2.0430089544007675e+18
14229.0	2.0427466208182264e+18
14230.0	2.042401751721574e+18
14231.0	2.0420015127789565e+18
14232.0	2.0416004215537661e+18
14233.0	2.0411974110150648e+18
14234.0	2.0407840757776381e+18
14235.0	2.0403033649184768e+18
14236.0	2.0399032685821947e+18
14237.0	2.039500068460953e+18
14238.0	2.0390960781328381e+18
14239.0	2.038671617923481e+18
14240.0	2.0371592190099453e+18
14241.0	2.0378489857245176e+18
14242.0	2.0374777327779837e+18
14243.0	2.0369900912508925e+18
14244.0	2.0366921396387837e+18
14245.0	2.0362885217648635e+18
14246.0	2.0358893381091325e+18
14247.0	2.0354923472355325e+18
14248.0	2.035085842002739e+18
14249.0	2.0346956106694653e+18
14250.0	2.0342960528818173e+18
14251.0	2.033897842304614e+18
14252.0	2.0334979640721408e+18
14253.0	2.0330971312160765e+18
14254.0	2.0326675388563453e+18
14255.0	2.032173703181107e+18
14256.0	2.0317220320051197e+18
14257.0	2.0313725894393856e+18
14258.0	2.0310007006363643e+18
14259.0	2.0305857900183547e+18
14260.0	2.0301987782328315e+18
14261.0	2.0297854446731261e+18
14262.0	2.0294238503698427e+18
14263.0	2.0289121134051325e+18
14264.0	2.0285668299112443e+18
14265.0	2.0282248364294136e+18
14266.0	2.027835324838707e+18
14267.0	2.0274379497668605e+18
14268.0	2.0270397677109243e+18
14269.0	2.02663370204119e+18
14270.0	2.0262425177620475e+18
14271.0	2.02584353711063e+18
14272.0	2.0254429827563515e+18
14273.0	2.025031055127347e+18
14274.0	2.0244469630631933e+18
14275.0	2.024203049186099e+18
14276.0	2.023837646454784e+18
14277.0	2.0234069551874045e+18
14278.0	2.0229559802658808e+18
14279.0	2.0225574962200573e+18
14280.0	2.022157611276697e+18
14281.0	2.0217644992954365e+18
14282.0	2.021367347360563e+18
14283.0	2.0209698749808637e+18
14284.0	2.0205723539472381e+18
14285.0	2.020174663463731e+18
14286.0	2.01977651831767e+18
14287.0	2.019376770947481e+18
14288.0	2.0189599879921661e+18
14289.0	2.0178524014903283e+18
14290.0	2.0181676386680827e+18
14291.0	2.0177879216160765e+18
14292.0	2.017393506045132e+18
14293.0	2.0169924668293115e+18
14294.0	2.0165065718104064e+18
14295.0	2.0161711801630715e+18
14296.0	2.0152339696451584e+18
14297.0	2.015363233061273e+18
14298.0	2.0149027739795453e+18
14299.0	2.014603027205324e+18
14300.0	2.0142174297391101e+18
14301.0	2.0138258209964027e+18
14302.0	2.013412422005555e+18
14303.0	2.0128994284273661e+18
14304.0	2.012522412507136e+18
14305.0	2.0121381605736443e+18
14306.0	2.0117399281860605e+18
14307.0	2.011344217414041e+18
14308.0	2.0109512497168381e+18
14309.0	2.0105535558778875e+18
14310.0	2.0101437321117696e+18
14311.0	2.009753988995481e+18
14312.0	2.009350943224627e+18
14313.0	2.0089140594868224e+18
14314.0	2.0085790419714043e+18
14315.0	2.0081810226544637e+18
14316.0	2.0077562034126845e+18
14317.0	2.007392372706508e+18
14318.0	2.007001737042329e+18
14319.0	2.0066081519435773e+18
14320.0	2.006213467937177e+18
14321.0	2.0058159385149435e+18
14322.0	2.0053993736634365e+18
14323.0	2.0050121890725883e+18
14324.0	2.0046363190362107e+18
14325.0	2.004234110448435e+18
14326.0	2.0038495313592315e+18
14327.0	2.003449404823961e+18
14328.0	2.0030574001389563e+18
14329.0	2.0026682610024443e+18
14330.0	2.0022264900616187e+18
14331.0	2.0017685509177336e+18
14332.0	2.001374915487334e+18
14333.0	2.000981196170854e+18
14334.0	2.0005874181341181e+18
14335.0	2.000185556834713e+18
14336.0	1.9997910439559165e+18
14337.0	1.9994039734501368e+18
14338.0	1.999011381562572e+18
14339.0	1.9986102098067453e+18
14340.0	1.9982271524110333e+18
14341.0	1.997834167936614e+18
14342.0	1.9974392238833661e+18
14343.0	1.997047195710259e+18
14344.0	1.9966518120939515e+18
14345.0	1.9962627820093437e+18
14346.0	1.9958685191110653e+18
14347.0	1.9954717815734264e+18
14348.0	1.9950844560539643e+18
14349.0	1.9946925939752955e+18
14350.0	1.9942931217514493e+18
14351.0	1.993895969816576e+18
14352.0	1.993508117492531e+18
14353.0	1.9931230115987448e+18
14354.0	1.992731037112729e+18
14355.0	1.9923380476051453e+18
14356.0	1.991946698909286e+18
14357.0	1.991557101754777e+18
14358.0	1.9911656456847355e+18
14359.0	1.990759806507417e+18
14360.0	1.990381862807142e+18
14361.0	1.9899908312006653e+18
14362.0	1.989556435523993e+18
14363.0	1.989090428216934e+18
14364.0	1.988679366292275e+18
14365.0	1.9882978792439803e+18
14366.0	1.987912676042342e+18
14367.0	1.9875259092041725e+18
14368.0	1.9871346846597115e+18
14369.0	1.9867439936307192e+18
14370.0	1.986353054298931e+18
14371.0	1.9859621753651197e+18
14372.0	1.9855666608865277e+18
14373.0	1.985180293346099e+18
14374.0	1.984789630838374e+18
14375.0	1.9843980640387072e+18
14376.0	1.9840086296231933e+18
14377.0	1.9836176349265915e+18
14378.0	1.983225804724633e+18
14379.0	1.9828372074921981e+18
14380.0	1.982446085288755e+18
14381.0	1.9820466382307325e+18
14382.0	1.9816654078738427e+18
14383.0	1.9812754432983035e+18
14384.0	1.9808701812572155e+18
14385.0	1.9804969720872955e+18
14386.0	1.980090669858816e+18
14387.0	1.9797170983010296e+18
14388.0	1.9793268350910461e+18
14389.0	1.978937310078566e+18
14390.0	1.9785471408209915e+18
14391.0	1.978159036838707e+18
14392.0	1.9777692652011515e+18
14393.0	1.9773804951633917e+18
14394.0	1.9769571758047227e+18
14395.0	1.9765930280091645e+18
14396.0	1.9762125442383864e+18
14397.0	1.9758231685431293e+18
14398.0	1.9754334136827901e+18
14399.0	1.974964557604454e+18
14400.0	1.9745183356682235e+18
14401.0	1.9741314983657472e+18
14402.0	1.973731519469977e+18
14403.0	1.9729439801737208e+18
14404.0	1.9707488559431667e+18
14405.0	1.9712127895863276e+18
14406.0	1.9721483106385915e+18
14407.0	1.9713622158606333e+18
14408.0	1.9713786021675003e+18
14409.0	1.9710154526162941e+18
14410.0	1.970643411140608e+18
14411.0	1.9702584579194875e+18
14412.0	1.969869674459955e+18
14413.0	1.9694847900254205e+18
14414.0	1.969095431107379e+18
14415.0	1.9687082934927352e+18
14416.0	1.9683213739819005e+18
14417.0	1.967932541868441e+18
14418.0	1.9675423742885883e+18
14419.0	1.9671554111569915e+18
14420.0	1.9667639148216315e+18
14421.0	1.966377035576115e+18
14422.0	1.965976833543372e+18
14423.0	1.9655273098510333e+18
14424.0	1.9634125719732216e+18
14425.0	1.9647364755095547e+18
14426.0	1.9644311737991163e+18
14427.0	1.96405439275991e+18
14428.0	1.963649407542886e+18
14429.0	1.963281390921318e+18
14430.0	1.9628951961862141e+18
14431.0	1.962471814751846e+18
14432.0	1.962106328134451e+18
14433.0	1.9613940698841083e+18
14434.0	1.961325296720281e+18
14435.0	1.9609544816590843e+18
14436.0	1.9605790243422205e+18
14437.0	1.9601934537195517e+18
14438.0	1.9597997646020603e+18
14439.0	1.9594176567967741e+18
14440.0	1.9589464334532605e+18
14441.0	1.9585182839341053e+18
14442.0	1.9581278948950008e+18
14443.0	1.9577116488105981e+18
14444.0	1.9573546229432315e+18
14445.0	1.9569598298849275e+18
14446.0	1.9557432401330179e+18
14447.0	1.956139564951142e+18
14448.0	1.9558152378777597e+18
14449.0	1.9554345360031744e+18
14450.0	1.9550446788018173e+18
14451.0	1.9546611583549435e+18
14452.0	1.9542781143810045e+18
14453.0	1.953890533847859e+18
14454.0	1.9535076492574717e+18
14455.0	1.9531157301362683e+18
14456.0	1.9527365667323896e+18
14457.0	1.9523510162423805e+18
14458.0	1.9519658533060603e+18
14459.0	1.9515796048838648e+18
14460.0	1.95119377589207e+18
14461.0	1.9507983922757627e+18
14462.0	1.9504205374947328e+18
14463.0	1.9500371814645755e+18
14464.0	1.9496544210255872e+18
14465.0	1.9492550679199744e+18
14466.0	1.9488837478645755e+18
14467.0	1.9484847655354363e+18
14468.0	1.9481126418513915e+18
14469.0	1.9477156560109565e+18
14470.0	1.9473271393091584e+18
14471.0	1.9469578878844925e+18
14472.0	1.9465758387994621e+18
14473.0	1.9461960126955515e+18
14474.0	1.9458142253350907e+18
14475.0	1.9454272437485565e+18
14476.0	1.945026521622118e+18
14477.0	1.9446622781964283e+18
14478.0	1.9442763518967803e+18
14479.0	1.9438951483834365e+18
14480.0	1.9434958858747896e+18
14481.0	1.943127337415475e+18
14482.0	1.942739092504576e+18
14483.0	1.9423516981985275e+18
14484.0	1.941958910017536e+18
14485.0	1.9415476937424896e+18
14486.0	1.9409846369517568e+18
14487.0	1.940816215513497e+18
14488.0	1.9404402079039488e+18
14489.0	1.9400251362246653e+18
14490.0	1.939548413309747e+18
14491.0	1.939165829031526e+18
14492.0	1.9387839930171387e+18
14493.0	1.938394004953497e+18
14494.0	1.9379971902406653e+18
14495.0	1.937622623793971e+18
14496.0	1.937152668807987e+18
14497.0	1.9368620656164861e+18
14498.0	1.9364842158686205e+18
14499.0	1.9361016030691325e+18
14500.0	1.9357173226143744e+18
14501.0	1.9353113576079352e+18
14502.0	1.9347930087424e+18
14503.0	1.9345531113308155e+18
14504.0	1.93417953977303e+18
14505.0	1.933790425802342e+18
14506.0	1.9333887574409216e+18
14507.0	1.9328545104855037e+18
14508.0	1.9326492395700221e+18
14509.0	1.932274265436979e+18
14510.0	1.9318901359771643e+18
14511.0	1.9315086522843133e+18
14512.0	1.931117216346931e+18
14513.0	1.930739641745408e+18
14514.0	1.9303345894195197e+18
14515.0	1.9299435611684861e+18
14516.0	1.927742294799156e+18
14517.0	1.9291169292812283e+18
14518.0	1.9288249839124475e+18
14519.0	1.9284519089602555e+18
14520.0	1.9280727422009341e+18
14521.0	1.9276918641655803e+18
14522.0	1.9273092731764733e+18
14523.0	1.9269066300588027e+18
14524.0	1.9265249064517627e+18
14525.0	1.9261612250628093e+18
14526.0	1.9257816606834683e+18
14527.0	1.925372003011788e+18
14528.0	1.9249301012086784e+18
14529.0	1.924630589315481e+18
14530.0	1.924245946472857e+18
14531.0	1.923875958528409e+18
14532.0	1.9234739160350715e+18
14533.0	1.9231147342954493e+18
14534.0	1.922737654621798e+18
14535.0	1.9223466783801344e+18
14536.0	1.9219716186832893e+18
14537.0	1.921584863589171e+18
14538.0	1.9212143203188733e+18
14539.0	1.920834168736972e+18
14540.0	1.9204531615170552e+18
14541.0	1.9200507750907904e+18
14542.0	1.9196867279585277e+18
14543.0	1.9192840932294653e+18
14544.0	1.9189192206581755e+18
14545.0	1.9185089019641853e+18
14546.0	1.9157119504744435e+18
14547.0	1.9154136314413046e+18
14548.0	1.917220098041446e+18
14549.0	1.916791837792665e+18
14550.0	1.9164959413895165e+18
14551.0	1.9161327750610944e+18
14552.0	1.915753202293145e+18
14553.0	1.9153694704533504e+18
14554.0	1.9149947999879163e+18
14555.0	1.9146140393930752e+18
14556.0	1.9142321949900797e+18
14557.0	1.9138475756355584e+18
14558.0	1.9134325274443773e+18
14559.0	1.9117125725585398e+18
14560.0	1.912669180893593e+18
14561.0	1.9123226558857216e+18
14562.0	1.9119307787075581e+18
14563.0	1.9115738786693115e+18
14564.0	1.9111942538919936e+18
14565.0	1.9108164192436221e+18
14566.0	1.9104370427691005e+18
14567.0	1.9100569364856827e+18
14568.0	1.9096707434283003e+18
14569.0	1.9092828894265336e+18
14570.0	1.908537774676377e+18
14571.0	1.908526726879641e+18
14572.0	1.9081290582065147e+18
14573.0	1.907738400731955e+18
14574.0	1.9073979994079227e+18
14575.0	1.9070213374869504e+18
14576.0	1.9066426455228416e+18
14577.0	1.9062582862151675e+18
14578.0	1.9058850049032187e+18
14579.0	1.9055074940551165e+18
14580.0	1.9051287802806264e+18
14581.0	1.9047479659986944e+18
14582.0	1.9043707571404797e+18
14583.0	1.9039914679074816e+18
14584.0	1.903606088545075e+18
14585.0	1.90323367125975e+18
14586.0	1.90285349954519e+18
14587.0	1.9024767201837053e+18
14588.0	1.9020986221330427e+18
14589.0	1.9017220273209344e+18
14590.0	1.901345392243507e+18
14591.0	1.90096787636224e+18
14592.0	1.900577908431257e+18
14593.0	1.9001277371383803e+18
14594.0	1.8998332768649213e+18
14595.0	1.899455720718336e+18
14596.0	1.8990644676526077e+18
14597.0	1.8986850509127675e+18
14598.0	1.8983309610582013e+18
14599.0	1.897959297069875e+18
14600.0	1.8975836719808507e+18
14601.0	1.8972077365133312e+18
14602.0	1.8968313111511035e+18
14603.0	1.896454159335423e+18
14604.0	1.8960500129791997e+18
14605.0	1.8956985990905856e+18
14606.0	1.8952670018535421e+18
14607.0	1.8949473975664637e+18
14608.0	1.8945749769256955e+18
14609.0	1.8942000095035387e+18
14610.0	1.893809903999385e+18
14611.0	1.8933189221285888e+18
14612.0	1.8929453824475133e+18
14613.0	1.8925698697658368e+18
14614.0	1.8921915183792125e+18
14615.0	1.8918173344530427e+18
14616.0	1.891442085173657e+18
14617.0	1.8910656312901624e+18
14618.0	1.890686175962726e+18
14619.0	1.8902848129466365e+18
14620.0	1.88988728016896e+18
14621.0	1.8895601563336704e+18
14622.0	1.8891833098633213e+18
14623.0	1.8888086645637115e+18
14624.0	1.8883934871879677e+18
14625.0	1.8880520943304704e+18
14626.0	1.8876833780989947e+18
14627.0	1.8873067950309373e+18
14628.0	1.8869333140701184e+18
14629.0	1.8865579708383224e+18
14630.0	1.8861817367363581e+18
14631.0	1.8858036051312635e+18
14632.0	1.8852896065978365e+18
14633.0	1.8850172368846843e+18
14634.0	1.8846777415303165e+18
14635.0	1.8843016332574715e+18
14636.0	1.883920134465126e+18
14637.0	1.8835538324750333e+18
14638.0	1.8831763266600955e+18
14639.0	1.8827921183473661e+18
14640.0	1.882399670743859e+18
14641.0	1.881482542553497e+18
14642.0	1.8816473921224704e+18
14643.0	1.881297129150873e+18
14644.0	1.8809139442483197e+18
14645.0	1.8805346248163325e+18
14646.0	1.8801690207584253e+18
14647.0	1.8797945398755325e+18
14648.0	1.8794245150212093e+18
