# Flux units: erg / (cm m2 s)
# Wavelength units: Angstrom
wave	flux
14000.0	1.2484005874106365e+18
14001.0	1.2481409742536701e+18
14002.0	1.248053486105395e+18
14003.0	1.2478778018103293e+18
14004.0	1.2477019849752573e+18
14005.0	1.2475266924281853e+18
14006.0	1.2473494537240573e+18
14007.0	1.2471738172440573e+18
14008.0	1.2469719235821565e+18
14009.0	1.2468231910457341e+18
14010.0	1.246645944791859e+18
14011.0	1.246326884086579e+18
14012.0	1.2462960878288893e+18
14013.0	1.2461219101278205e+18
14014.0	1.2459465966092288e+18
14015.0	1.2457708795985917e+18
14016.0	1.2455958982688768e+18
14017.0	1.2454206174658557e+18
14018.0	1.245233861047091e+18
14019.0	1.2450700952862717e+18
14020.0	1.2448947943505917e+18
14021.0	1.244719531163648e+18
14022.0	1.2445444550426621e+18
14023.0	1.2443693596278781e+18
14024.0	1.2441931460116477e+18
14025.0	1.2440194523332605e+18
14026.0	1.2438442579329021e+18
14027.0	1.2436695953702912e+18
14028.0	1.2434946937323517e+18
14029.0	1.2433196369051645e+18
14030.0	1.2430948633149437e+18
14031.0	1.2429656082874365e+18
14032.0	1.242795343033139e+18
14033.0	1.2426147925065725e+18
14034.0	1.2424462041350144e+18
14035.0	1.24227172696064e+18
14036.0	1.2420926486347773e+18
14037.0	1.2419213306101757e+18
14038.0	1.2417481989685245e+18
14039.0	1.2415737620594685e+18
14040.0	1.2413993595437056e+18
14041.0	1.2412249738051581e+18
14042.0	1.2410490093305853e+18
14043.0	1.2408683078090752e+18
14044.0	1.240692545499955e+18
14045.0	1.2405205152825344e+18
14046.0	1.240353805120307e+18
14047.0	1.2401795250782205e+18
14048.0	1.24000556548096e+18
14049.0	1.2398315664572413e+18
14050.0	1.239657563239219e+18
14051.0	1.2394821633179645e+18
14052.0	1.2393096104902653e+18
14053.0	1.2391358069211133e+18
14054.0	1.2389619664420861e+18
14055.0	1.238788167906099e+18
14056.0	1.2386143970525181e+18
14057.0	1.2384406807248896e+18
14058.0	1.2382669719470077e+18
14059.0	1.2380828520677373e+18
14060.0	1.2379197355851773e+18
14061.0	1.2377445965496317e+18
14062.0	1.2375725814317056e+18
14063.0	1.2373966303789053e+18
14064.0	1.2372105148497917e+18
14065.0	1.2370504207826944e+18
14066.0	1.2368789190475773e+18
14067.0	1.2367056070508541e+18
14068.0	1.2365323135090688e+18
14069.0	1.236358906721075e+18
14070.0	1.2361858279276544e+18
14071.0	1.2360120201641981e+18
14072.0	1.2358395394785277e+18
14073.0	1.2356664506187776e+18
14074.0	1.235493403702067e+18
14075.0	1.2353178402029565e+18
14076.0	1.2351473409064957e+18
14077.0	1.2349632646479872e+18
14078.0	1.2348007404011517e+18
14079.0	1.234627749688115e+18
14080.0	1.2344520402272253e+18
14081.0	1.2342824351563773e+18
14082.0	1.2341103185362941e+18
14083.0	1.2339373295009792e+18
14084.0	1.2337645694746624e+18
14085.0	1.2335497053470717e+18
14086.0	1.2334145439006717e+18
14087.0	1.2332398830157821e+18
14088.0	1.233072917001011e+18
14089.0	1.232902280131379e+18
14090.0	1.2327297507917824e+18
14091.0	1.2325574806601725e+18
14092.0	1.2323851434196992e+18
14093.0	1.2322128313450493e+18
14094.0	1.2320405528248317e+18
14095.0	1.231868287726387e+18
14096.0	1.2316943893659645e+18
14097.0	1.2315215622307837e+18
14098.0	1.2313511233323003e+18
14099.0	1.2311797038055424e+18
14100.0	1.2310049649065981e+18
14101.0	1.2308357054463997e+18
14102.0	1.2306637121388541e+18
14103.0	1.2304877568917501e+18
14104.0	1.2303199704711165e+18
14105.0	1.2301481289973757e+18
14106.0	1.2299763135283197e+18
14107.0	1.2297955683860475e+18
14108.0	1.2296328335851517e+18
14109.0	1.2294603495440381e+18
14110.0	1.229289377968947e+18
14111.0	1.229117342718361e+18
14112.0	1.228945877054259e+18
14113.0	1.2287746773090301e+18
14114.0	1.2286012495495168e+18
14115.0	1.2284312300814333e+18
14116.0	1.2282585841401853e+18
14117.0	1.2279979937103872e+18
14118.0	1.2279167869517821e+18
14119.0	1.2277451392548861e+18
14120.0	1.227574113153843e+18
14121.0	1.2274034435686397e+18
14122.0	1.2272308446035968e+18
14123.0	1.227060663235379e+18
14124.0	1.2268885382266875e+18
14125.0	1.226637491516211e+18
14126.0	1.2265473215299581e+18
14127.0	1.2263770772471805e+18
14128.0	1.2262059706155005e+18
14129.0	1.2260335637495805e+18
14130.0	1.2258606284013565e+18
14131.0	1.2256915534905341e+18
14132.0	1.2255215583494141e+18
14133.0	1.2252562174509053e+18
14134.0	1.2251715185147901e+18
14135.0	1.2250084305534973e+18
14136.0	1.2248397524238333e+18
14137.0	1.2246691608526848e+18
14138.0	1.2244981607563261e+18
14139.0	1.2243281815535613e+18
14140.0	1.2241576830959613e+18
14141.0	1.2239864212750333e+18
14142.0	1.2238124969099261e+18
14143.0	1.2236463907274747e+18
14144.0	1.2234761934209024e+18
14145.0	1.2233058811903997e+18
14146.0	1.2231353491783677e+18
14147.0	1.2229652424687616e+18
14148.0	1.2227951097544701e+18
14149.0	1.2226250449879037e+18
14150.0	1.2224549147901952e+18
14151.0	1.222284378583859e+18
14152.0	1.2221148070674427e+18
14153.0	1.2219447808884733e+18
14154.0	1.2217711165702141e+18
14155.0	1.2216009242968061e+18
14156.0	1.2214346880909312e+18
14157.0	1.2212651157356541e+18
14158.0	1.2210946734817277e+18
14159.0	1.220925491196723e+18
14160.0	1.2207541740109821e+18
14161.0	1.220575933707059e+18
14162.0	1.2203983326150653e+18
14163.0	1.220239110124339e+18
14164.0	1.2200751606530045e+18
14165.0	1.2199056117858301e+18
14166.0	1.2197380761845757e+18
14167.0	1.2195665694162941e+18
14168.0	1.2193990489145341e+18
14169.0	1.2192298523688957e+18
14170.0	1.2190598597443581e+18
14171.0	1.218890444256051e+18
14172.0	1.218721841623859e+18
14173.0	1.2185496797052925e+18
14174.0	1.2183824293167101e+18
14175.0	1.2182142192713725e+18
14176.0	1.2180450982232064e+18
14177.0	1.2178760082128893e+18
14178.0	1.2177069182025725e+18
14179.0	1.217537202402099e+18
14180.0	1.2173689210535933e+18
14181.0	1.2171999644221437e+18
14182.0	1.2170308861558781e+18
14183.0	1.2168621560168445e+18
14184.0	1.2166924368609277e+18
14185.0	1.216524316573696e+18
14186.0	1.2163340109348861e+18
14187.0	1.2161822509498368e+18
14188.0	1.216018059047731e+18
14189.0	1.2158495545622525e+18
14190.0	1.2156809116647421e+18
14191.0	1.215512288899891e+18
14192.0	1.215342499279667e+18
14193.0	1.2151732540801021e+18
14194.0	1.2150067184009213e+18
14195.0	1.2148385469431803e+18
14196.0	1.2146701179551741e+18
14197.0	1.2145017577537533e+18
14198.0	1.2143323321991165e+18
14199.0	1.2141648209248253e+18
14200.0	1.2139870126342141e+18
14201.0	1.2138279394607101e+18
14202.0	1.2136605187833853e+18
14203.0	1.2134916561043456e+18
14204.0	1.213323789153075e+18
14205.0	1.213155555619635e+18
14206.0	1.2129671709720573e+18
14207.0	1.212819713504051e+18
14208.0	1.2126520470405117e+18
14209.0	1.212461431862067e+18
14210.0	1.2123000367218685e+18
14211.0	1.2121488303849467e+18
14212.0	1.2119811823763453e+18
14213.0	1.2118136140595197e+18
14214.0	1.2116456388952061e+18
14215.0	1.2114752276791293e+18
14216.0	1.211310586147635e+18
14217.0	1.211142981759795e+18
14218.0	1.210973671129088e+18
14219.0	1.2108078333820928e+18
14220.0	1.2106403506290685e+18
14221.0	1.2104727974117373e+18
14222.0	1.2103053767344125e+18
14223.0	1.2101379602513917e+18
14224.0	1.2099704909201405e+18
14225.0	1.209767036138291e+18
14226.0	1.209635116888883e+18
14227.0	1.2094643139248125e+18
14228.0	1.2091677967646717e+18
14229.0	1.2091124738949117e+18
14230.0	1.2089670347259901e+18
14231.0	1.2088001098153981e+18
14232.0	1.2086330825637885e+18
14233.0	1.208466063700787e+18
14234.0	1.2082990523875325e+18
14235.0	1.2081315654402045e+18
14236.0	1.2079651136471037e+18
14237.0	1.2077978573864957e+18
14238.0	1.2076309039546365e+18
14239.0	1.2074615069212672e+18
14240.0	1.2068921821626365e+18
14241.0	1.2071269381963773e+18
14242.0	1.206963009696563e+18
14243.0	1.2067705599295488e+18
14244.0	1.2066307906207741e+18
14245.0	1.206464084652851e+18
14246.0	1.2062972444671997e+18
14247.0	1.206131409236787e+18
14248.0	1.205960256467763e+18
14249.0	1.2057981222911997e+18
14250.0	1.2056317183131645e+18
14251.0	1.2054657488650237e+18
14252.0	1.2052993817968637e+18
14253.0	1.2051329056767997e+18
14254.0	1.2049662424907773e+18
14255.0	1.2047924380827645e+18
14256.0	1.2046015066537981e+18
14257.0	1.2044623622963197e+18
14258.0	1.2043018848698365e+18
14259.0	1.2041336630804477e+18
14260.0	1.2039662331756541e+18
14261.0	1.2038017543831552e+18
14262.0	1.2036546920185853e+18
14263.0	1.2034405937709053e+18
14264.0	1.2033091031793661e+18
14265.0	1.2031571309625341e+18
14266.0	1.202991591011123e+18
14267.0	1.20282589167616e+18
14268.0	1.202660144526131e+18
14269.0	1.2024938932207613e+18
14270.0	1.2023286737141757e+18
14271.0	1.2021629827678205e+18
14272.0	1.2019971995467773e+18
14273.0	1.2018304793182205e+18
14274.0	1.20159031263232e+18
14275.0	1.2014913874558973e+18
14276.0	1.2013347897606141e+18
14277.0	1.2011691181080573e+18
14278.0	1.2010043197095933e+18
14279.0	1.200838780597043e+18
14280.0	1.2006724437278717e+18
14281.0	1.2005083969486845e+18
14282.0	1.2003432009302013e+18
14283.0	1.2001779671629824e+18
14284.0	1.2000127510118397e+18
14285.0	1.199847259714355e+18
14286.0	1.199681467265843e+18
14287.0	1.1995162477592573e+18
14288.0	1.199349551018803e+18
14289.0	1.1989274740129784e+18
14290.0	1.1990196732035067e+18
14291.0	1.1988560232054781e+18
14292.0	1.1986914135506941e+18
14293.0	1.1985259289640957e+18
14294.0	1.198337335440179e+18
14295.0	1.1981935018508285e+18
14296.0	1.1978263157014528e+18
14297.0	1.1978632524201981e+18
14298.0	1.1976659179667453e+18
14299.0	1.1975370043555837e+18
14300.0	1.1973734952861693e+18
14301.0	1.1972089720340477e+18
14302.0	1.1970437080678397e+18
14303.0	1.196874051826483e+18
14304.0	1.196711598043955e+18
14305.0	1.1965497616629757e+18
14306.0	1.1963851461361661e+18
14307.0	1.1962205457088512e+18
14308.0	1.196056686834483e+18
14309.0	1.195891972322099e+18
14310.0	1.1957251178758144e+18
14311.0	1.1955555950133245e+18
14312.0	1.1953927587102717e+18
14313.0	1.1951569280958461e+18
14314.0	1.1950709540913152e+18
14315.0	1.1949069568049152e+18
14316.0	1.1947340407504893e+18
14317.0	1.1945783548968957e+18
14318.0	1.1944152115707901e+18
14319.0	1.1942513560518653e+18
14320.0	1.1940873461825533e+18
14321.0	1.1939234906636288e+18
14322.0	1.1937530425376765e+18
14323.0	1.1935922085953533e+18
14324.0	1.1934312169471997e+18
14325.0	1.193267504034611e+18
14326.0	1.1931037827334141e+18
14327.0	1.1929400555601917e+18
14328.0	1.1927750575128573e+18
14329.0	1.1926127614361597e+18
14330.0	1.1924491835801597e+18
14331.0	1.1922855746863101e+18
14332.0	1.1921221117542397e+18
14333.0	1.1919586161065981e+18
14334.0	1.1917951531745277e+18
14335.0	1.191628793656115e+18
14336.0	1.1914650111180797e+18
14337.0	1.1913048642027517e+18
14338.0	1.1911412880244733e+18
14339.0	1.1909779500826624e+18
14340.0	1.1908150751920125e+18
14341.0	1.1906517414445053e+18
14342.0	1.1904864254689277e+18
14343.0	1.1903255571333117e+18
14344.0	1.1901571096903677e+18
14345.0	1.1899963646672893e+18
14346.0	1.189835502203699e+18
14347.0	1.1896700184559616e+18
14348.0	1.1895093598355453e+18
14349.0	1.189346547020595e+18
14350.0	1.1891810129412096e+18
14351.0	1.1890181036572672e+18
14352.0	1.1888563671007227e+18
14353.0	1.1886943436537853e+18
14354.0	1.1885317413928957e+18
14355.0	1.1883686777585661e+18
14356.0	1.1882037526921216e+18
14357.0	1.1880417393115133e+18
14358.0	1.1878816209174525e+18
14359.0	1.1877188986994688e+18
14360.0	1.187556153832243e+18
14361.0	1.1873937839357952e+18
14362.0	1.1872313737740285e+18
14363.0	1.1870688008732672e+18
14364.0	1.1868986413154301e+18
14365.0	1.1867420369092603e+18
14366.0	1.1865798884720637e+18
14367.0	1.186419359036211e+18
14368.0	1.186256989978624e+18
14369.0	1.1860948146978813e+18
14370.0	1.1859325840523261e+18
14371.0	1.1857703978663933e+18
14372.0	1.1856074768383997e+18
14373.0	1.1854447596535803e+18
14374.0	1.1852816272326653e+18
14375.0	1.185117140890419e+18
14376.0	1.1849590659612667e+18
14377.0	1.1847969284292608e+18
14378.0	1.1846345576939517e+18
14379.0	1.1844731399045117e+18
14380.0	1.184311176016691e+18
14381.0	1.1841488673570813e+18
14382.0	1.183987192037376e+18
14383.0	1.1838254940684285e+18
14384.0	1.1836613105549312e+18
14385.0	1.1835022247985152e+18
14386.0	1.1833382979764224e+18
14387.0	1.1831787709792253e+18
14388.0	1.1830169052381181e+18
14389.0	1.1828554740269053e+18
14390.0	1.1826935025893373e+18
14391.0	1.1825324497043453e+18
14392.0	1.1823708314271744e+18
14393.0	1.1822094824243197e+18
14394.0	1.182041685098496e+18
14395.0	1.181884922986496e+18
14396.0	1.181724028646195e+18
14397.0	1.1815638657925117e+18
14398.0	1.181402510078771e+18
14399.0	1.1812399690547197e+18
14400.0	1.181074469368627e+18
14401.0	1.1809164003115005e+18
14402.0	1.1807556343169021e+18
14403.0	1.1805732550737917e+18
14404.0	1.1797761124990968e+18
14405.0	1.1798373761810417e+18
14406.0	1.1801091226206203e+18
14407.0	1.1799191298768893e+18
14408.0	1.1797892113104896e+18
14409.0	1.1796243407699965e+18
14410.0	1.1794676994539517e+18
14411.0	1.179307350373171e+18
14412.0	1.1791458755411965e+18
14413.0	1.1789860700422141e+18
14414.0	1.1788248745508861e+18
14415.0	1.178664321626931e+18
14416.0	1.178503847555891e+18
14417.0	1.1783430236798973e+18
14418.0	1.1781817258475517e+18
14419.0	1.1780214514253821e+18
14420.0	1.1778600755789824e+18
14421.0	1.1777005024444413e+18
14422.0	1.1775398446628861e+18
14423.0	1.1773771350278141e+18
14424.0	1.177102727721779e+18
14425.0	1.1770565257854973e+18
14426.0	1.1768982293970944e+18
14427.0	1.1767372092276733e+18
14428.0	1.1765738209542141e+18
14429.0	1.1764159926501373e+18
14430.0	1.176256916960051e+18
14431.0	1.1760818601328637e+18
14432.0	1.1759356911550461e+18
14433.0	1.1757505302495232e+18
14434.0	1.1756126819319803e+18
14435.0	1.1754519411032061e+18
14436.0	1.1752953912229885e+18
14437.0	1.1751354238238717e+18
14438.0	1.1749734431588352e+18
14439.0	1.1748151132159997e+18
14440.0	1.1746553102335997e+18
14441.0	1.1744916367474685e+18
14442.0	1.1743287375298557e+18
14443.0	1.1741609821470717e+18
14444.0	1.1740143316631552e+18
14445.0	1.1738551695704061e+18
14446.0	1.1734821751488512e+18
14447.0	1.1735320169021435e+18
14448.0	1.1733766993084416e+18
14449.0	1.173217313239859e+18
14450.0	1.1730577006788608e+18
14451.0	1.1728981258665981e+18
14452.0	1.1727386064191483e+18
14453.0	1.172578801759027e+18
14454.0	1.172419514676019e+18
14455.0	1.1722588661219328e+18
14456.0	1.1721006267760637e+18
14457.0	1.1719411702431741e+18
14458.0	1.171781384876851e+18
14459.0	1.171621615448883e+18
14460.0	1.1714624701333501e+18
14461.0	1.171298834395955e+18
14462.0	1.1711368713469952e+18
14463.0	1.1709836341280765e+18
14464.0	1.170825751298048e+18
14465.0	1.170658958088601e+18
14466.0	1.1705077358133245e+18
14467.0	1.170345381016371e+18
14468.0	1.170189633925939e+18
14469.0	1.170020088414208e+18
14470.0	1.169863937831731e+18
14471.0	1.1697092971986944e+18
14472.0	1.1695531122229245e+18
14473.0	1.1693942152101885e+18
14474.0	1.169235383628595e+18
14475.0	1.169076486615859e+18
14476.0	1.1689162272931837e+18
14477.0	1.1687588242915328e+18
14478.0	1.1686001881645053e+18
14479.0	1.1684413926539261e+18
14480.0	1.1682800352624637e+18
14481.0	1.1681240700682237e+18
14482.0	1.167964636184576e+18
14483.0	1.1678048122306557e+18
14484.0	1.1676457986162685e+18
14485.0	1.167481933869875e+18
14486.0	1.1672707842179072e+18
14487.0	1.1671721610313725e+18
14488.0	1.1670141993484288e+18
14489.0	1.1668545398112253e+18
14490.0	1.1666970042695677e+18
14491.0	1.1665388681035773e+18
14492.0	1.1663808678330365e+18
14493.0	1.1662225043357696e+18
14494.0	1.1660604322349053e+18
14495.0	1.1659053587496957e+18
14496.0	1.1657214536187901e+18
14497.0	1.165589174498099e+18
14498.0	1.1654315257102333e+18
14499.0	1.1652734331650045e+18
14500.0	1.1651152449896445e+18
14501.0	1.1649559881056253e+18
14502.0	1.1647434098737152e+18
14503.0	1.1646384927145981e+18
14504.0	1.1644820351090683e+18
14505.0	1.1643247772303357e+18
14506.0	1.164165548028723e+18
14507.0	1.1639596982992893e+18
14508.0	1.1638513007067136e+18
14509.0	1.1636939010605053e+18
14510.0	1.163534452077363e+18
14511.0	1.1633774114635773e+18
14512.0	1.1632170128900096e+18
14513.0	1.163061649158963e+18
14514.0	1.1628980536868861e+18
14515.0	1.1627433501392893e+18
14516.0	1.161886499969434e+18
14517.0	1.162422478333542e+18
14518.0	1.1622730470260736e+18
14519.0	1.1621099548704763e+18
14520.0	1.1619584599654397e+18
14521.0	1.161801613128499e+18
14522.0	1.1616442797522944e+18
14523.0	1.1614851168206845e+18
14524.0	1.1613281584152573e+18
14525.0	1.1611711396118525e+18
14526.0	1.161014874944307e+18
14527.0	1.1608521367879677e+18
14528.0	1.1606656479657981e+18
14529.0	1.160540919431168e+18
14530.0	1.1603830022078461e+18
14531.0	1.1602285511573501e+18
14532.0	1.1600700182102013e+18
14533.0	1.159914532844339e+18
14534.0	1.1597576415477757e+18
14535.0	1.1596004381949947e+18
14536.0	1.159442593952563e+18
14537.0	1.1592829226713088e+18
14538.0	1.1591281612423165e+18
14539.0	1.1589712607182845e+18
14540.0	1.1588143476113405e+18
14541.0	1.1586565285347325e+18
14542.0	1.1585005457244157e+18
14543.0	1.158341094224691e+18
14544.0	1.158186722865971e+18
14545.0	1.158029302248243e+18
14546.0	1.157639595202969e+18
14547.0	1.1574736651812861e+18
14548.0	1.1575565479837696e+18
14549.0	1.1573794267201533e+18
14550.0	1.1572462542127101e+18
14551.0	1.1570902000992253e+18
14552.0	1.1569333163524096e+18
14553.0	1.1567734118678525e+18
14554.0	1.1566206922260475e+18
14555.0	1.1564641675116544e+18
14556.0	1.1563075664609275e+18
14557.0	1.1561507439509501e+18
14558.0	1.155991256380211e+18
14559.0	1.155323699344178e+18
14560.0	1.1556773311807483e+18
14561.0	1.155522731651891e+18
14562.0	1.1553640795865088e+18
14563.0	1.1552123430895613e+18
14564.0	1.1550467142189056e+18
14565.0	1.1549002113744893e+18
14566.0	1.1547440666640381e+18
14567.0	1.154587850650419e+18
14568.0	1.1544315641724925e+18
14569.0	1.1542743843078144e+18
14570.0	1.153979903062835e+18
14571.0	1.1539621460574203e+18
14572.0	1.153799611744256e+18
14573.0	1.1536417196867581e+18
14574.0	1.1534939166081024e+18
14575.0	1.153339391737856e+18
14576.0	1.1531835213348861e+18
14577.0	1.1530280510685181e+18
14578.0	1.1528716958040061e+18
14579.0	1.152716444480307e+18
14580.0	1.1525606915178495e+18
14581.0	1.1524043547082751e+18
14582.0	1.1522491251949565e+18
14583.0	1.1520934536019967e+18
14584.0	1.1519355799994365e+18
14585.0	1.1517820709896191e+18
14586.0	1.1516258868527103e+18
14587.0	1.1514706472730623e+18
14588.0	1.1513153691058173e+18
14589.0	1.15116011945984e+18
14590.0	1.1510048773636093e+18
14591.0	1.1508495379595261e+18
14592.0	1.1506937657032703e+18
14593.0	1.1505157476974591e+18
14594.0	1.1503837714055164e+18
14595.0	1.1502278682869756e+18
14596.0	1.1500647652261885e+18
14597.0	1.1499076952522748e+18
14598.0	1.1497624985141248e+18
14599.0	1.1496089114902525e+18
14600.0	1.149453895886438e+18
14601.0	1.1492989700407293e+18
14602.0	1.1491436952289276e+18
14603.0	1.1489890613067773e+18
14604.0	1.1488240875864064e+18
14605.0	1.148668165174067e+18
14606.0	1.1485019600060413e+18
14607.0	1.1483681910685695e+18
14608.0	1.148207709447782e+18
14609.0	1.1480496026419197e+18
14610.0	1.1478928782786559e+18
14611.0	1.1477357562953724e+18
14612.0	1.1475962151567359e+18
14613.0	1.1474417674616831e+18
14614.0	1.1472788682440703e+18
14615.0	1.1471275285282815e+18
14616.0	1.146977512534835e+18
14617.0	1.146806573675315e+18
14618.0	1.1466567078379516e+18
14619.0	1.1465061239357439e+18
14620.0	1.1463389020684284e+18
14621.0	1.1462044469428221e+18
14622.0	1.1460501628256255e+18
14623.0	1.1458956664766461e+18
14624.0	1.1457302833922044e+18
14625.0	1.1455868021243903e+18
14626.0	1.1454260889780221e+18
14627.0	1.1452713594257404e+18
14628.0	1.1451241469050876e+18
14629.0	1.1449698955034621e+18
14630.0	1.1448096345030655e+18
14631.0	1.144655399039795e+18
14632.0	1.1444841011478524e+18
14633.0	1.1443488063225855e+18
14634.0	1.1441985445429247e+18
14635.0	1.1440402187943933e+18
14636.0	1.1438755722297341e+18
14637.0	1.1437365696397311e+18
14638.0	1.1435820103761919e+18
14639.0	1.143425813656371e+18
14640.0	1.1432733699997695e+18
14641.0	1.143081822008115e+18
14642.0	1.1429651180158975e+18
14643.0	1.1428123211988988e+18
14644.0	1.1426583248109565e+18
14645.0	1.1424933578014716e+18
14646.0	1.1423425314684924e+18
