# Flux units: erg / (cm m2 s)
# Wavelength units: Angstrom
wave	flux
14000.0	1.945178964439859e+18
14001.0	1.9448891078344701e+18
14002.0	1.9446375167033341e+18
14003.0	1.9442753033207805e+18
14004.0	1.943910934065971e+18
14005.0	1.9435455732776955e+18
14006.0	1.9431731761250301e+18
14007.0	1.9428047048409083e+18
14008.0	1.9423666886410235e+18
14009.0	1.9420697923158016e+18
14010.0	1.941696240890675e+18
14011.0	1.9407744285016064e+18
14012.0	1.9409719651205115e+18
14013.0	1.9406226366398461e+18
14014.0	1.940253834844569e+18
14015.0	1.939893493799321e+18
14016.0	1.9395306210721787e+18
14017.0	1.9391664934092797e+18
14018.0	1.9388020117471227e+18
14019.0	1.9384375820943355e+18
14020.0	1.9380724645756928e+18
14021.0	1.937707407455027e+18
14022.0	1.937342472808038e+18
14023.0	1.9369672973484024e+18
14024.0	1.936603481741721e+18
14025.0	1.9362511216181245e+18
14026.0	1.935886336288358e+18
14027.0	1.9355231783485435e+18
14028.0	1.9351515764359168e+18
14029.0	1.9347815968800763e+18
14030.0	1.933768821781299e+18
14031.0	1.933962291603046e+18
14032.0	1.9336984665260027e+18
14033.0	1.933300131797401e+18
14034.0	1.9329781736669181e+18
14035.0	1.9326168830312443e+18
14036.0	1.9322545404641277e+18
14037.0	1.9318919546273787e+18
14038.0	1.9315293000040445e+18
14039.0	1.9311624410103805e+18
14040.0	1.9308009960243192e+18
14041.0	1.930439985568153e+18
14042.0	1.9300688181854203e+18
14043.0	1.929680782989721e+18
14044.0	1.9293416835776512e+18
14045.0	1.928986756540006e+18
14046.0	1.9286248367587325e+18
14047.0	1.9282593551745021e+18
14048.0	1.9279049012543488e+18
14049.0	1.927543929385779e+18
14050.0	1.9271820884574205e+18
14051.0	1.926813363837337e+18
14052.0	1.9264537492455421e+18
14053.0	1.9260971914625021e+18
14054.0	1.9257358756610045e+18
14055.0	1.9253744944283643e+18
14056.0	1.9250131517833208e+18
14057.0	1.924651934967398e+18
14058.0	1.9242907617722363e+18
14059.0	1.923929637231001e+18
14060.0	1.9235684942348283e+18
14061.0	1.9232013366067192e+18
14062.0	1.9228456562720765e+18
14063.0	1.9224694775349243e+18
14064.0	1.9219920080338936e+18
14065.0	1.921755709335142e+18
14066.0	1.9214039733239803e+18
14067.0	1.921041340511027e+18
14068.0	1.9206834623610875e+18
14069.0	1.9203220224081915e+18
14070.0	1.9199625923657728e+18
14071.0	1.9196003672391677e+18
14072.0	1.91924299408343e+18
14073.0	1.918883035558707e+18
14074.0	1.9185230082473981e+18
14075.0	1.9181453027835904e+18
14076.0	1.9177974188212224e+18
14077.0	1.9172921444401147e+18
14078.0	1.9170658885828605e+18
14079.0	1.9167143035666435e+18
14080.0	1.9163649968963584e+18
14081.0	1.9160061372792827e+18
14082.0	1.915646106612531e+18
14083.0	1.915285101189529e+18
14084.0	1.9149191380991997e+18
14085.0	1.9143054376042493e+18
14086.0	1.9141830025150456e+18
14087.0	1.9138491040399355e+18
14088.0	1.913480990110515e+18
14089.0	1.9131326330306555e+18
14090.0	1.912775679305318e+18
14091.0	1.9124184974098424e+18
14092.0	1.9120604212887547e+18
14093.0	1.9117020700213243e+18
14094.0	1.911343379854131e+18
14095.0	1.9109832569126912e+18
14096.0	1.9106059457134595e+18
14097.0	1.9102451734937597e+18
14098.0	1.9099009553530875e+18
14099.0	1.9095520647577597e+18
14100.0	1.9091851436883965e+18
14101.0	1.9088390314000381e+18
14102.0	1.9084813830979581e+18
14103.0	1.9081103381889021e+18
14104.0	1.9077640480620541e+18
14105.0	1.9074097703026683e+18
14106.0	1.9070525665968125e+18
14107.0	1.9066951699529725e+18
14108.0	1.9063264755318781e+18
14109.0	1.9059769960562688e+18
14110.0	1.9056220404973565e+18
14111.0	1.905259756650496e+18
14112.0	1.9049010564169725e+18
14113.0	1.9045518218887163e+18
14114.0	1.904180100857856e+18
14115.0	1.903828703746457e+18
14116.0	1.9034070101000187e+18
14117.0	1.901896221799219e+18
14118.0	1.902734270581964e+18
14119.0	1.9023852457689083e+18
14120.0	1.9020408380456955e+18
14121.0	1.90168513422295e+18
14122.0	1.9013344199442432e+18
14123.0	1.9009775870148605e+18
14124.0	1.9006052469047293e+18
14125.0	1.8998623668797435e+18
14126.0	1.8999085461667835e+18
14127.0	1.8995658077765632e+18
14128.0	1.8992114394202112e+18
14129.0	1.8988461457408e+18
14130.0	1.8984806205358077e+18
14131.0	1.8981449839411197e+18
14132.0	1.8977672197570555e+18
14133.0	1.896951436017663e+18
14134.0	1.897061653938176e+18
14135.0	1.8967117063782397e+18
14136.0	1.896366021908889e+18
14137.0	1.896012947075891e+18
14138.0	1.8956551024803835e+18
14139.0	1.8953073527357437e+18
14140.0	1.894949949381017e+18
14141.0	1.8945746413813755e+18
14142.0	1.8941883208171515e+18
14143.0	1.8938851162587133e+18
14144.0	1.8935377926553597e+18
14145.0	1.8931835987820541e+18
14146.0	1.8928284653846525e+18
14147.0	1.8924770951167997e+18
14148.0	1.8921233273847803e+18
14149.0	1.8917702559072253e+18
14150.0	1.8914179528261627e+18
14151.0	1.8910608179068925e+18
14152.0	1.890711360241664e+18
14153.0	1.8903579397980152e+18
14154.0	1.8899790599290877e+18
14155.0	1.889634484433715e+18
14156.0	1.8892959890014208e+18
14157.0	1.8889446321553403e+18
14158.0	1.8885886011768827e+18
14159.0	1.888238212376166e+18
14160.0	1.8878700565037053e+18
14161.0	1.8874823937622016e+18
14162.0	1.887084959970099e+18
14163.0	1.8868168164376573e+18
14164.0	1.886438609335091e+18
14165.0	1.886099003251097e+18
14166.0	1.8857671935393787e+18
14167.0	1.885403966812979e+18
14168.0	1.8850637030621181e+18
14169.0	1.8847150825799675e+18
14170.0	1.884360514574745e+18
14171.0	1.884008592336486e+18
14172.0	1.8836590289747963e+18
14173.0	1.883289103106048e+18
14174.0	1.882948445090611e+18
14175.0	1.8826044584755197e+18
14176.0	1.8822533415436283e+18
14177.0	1.8819019997970427e+18
14178.0	1.881550089302835e+18
14179.0	1.8811953837244413e+18
14180.0	1.8808480584433661e+18
14181.0	1.880496871047168e+18
14182.0	1.8801449219653632e+18
14183.0	1.8797939426066432e+18
14184.0	1.879437143231692e+18
14185.0	1.879081615569715e+18
14186.0	1.8785269993963515e+18
14187.0	1.8783428375740413e+18
14188.0	1.8780336502603773e+18
14189.0	1.877687537972019e+18
14190.0	1.8773375082037245e+18
14191.0	1.8769861379358715e+18
14192.0	1.8766282883072e+18
14193.0	1.8762558156570621e+18
14194.0	1.8759359664226307e+18
14195.0	1.8755891511689208e+18
14196.0	1.8752394787553275e+18
14197.0	1.8748895798493181e+18
14198.0	1.874535182971699e+18
14199.0	1.8741832540225533e+18
14200.0	1.873712976914022e+18
14201.0	1.8734656320962555e+18
14202.0	1.873138147550822e+18
14203.0	1.872786970220953e+18
14204.0	1.8724396264849405e+18
14205.0	1.872087835108966e+18
14206.0	1.871631872321126e+18
14207.0	1.8713875809566715e+18
14208.0	1.8710426464288765e+18
14209.0	1.8705765585911803e+18
14210.0	1.8702524848537592e+18
14211.0	1.8699901328162813e+18
14212.0	1.8696502968844283e+18
14213.0	1.869302931338035e+18
14214.0	1.868953700165222e+18
14215.0	1.8685953639972861e+18
14216.0	1.8682584372346877e+18
14217.0	1.867910341879398e+18
14218.0	1.8675499790237693e+18
14219.0	1.8672138777001981e+18
14220.0	1.8668641532772347e+18
14221.0	1.8665166182809597e+18
14222.0	1.8661567436423163e+18
14223.0	1.8658200215617533e+18
14224.0	1.865466933306982e+18
14225.0	1.8647043501195261e+18
14226.0	1.864746615282073e+18
14227.0	1.8644199578533883e+18
14228.0	1.8629651182125059e+18
14229.0	1.8634115800629238e+18
14230.0	1.8633316332732413e+18
14231.0	1.862984824730419e+18
14232.0	1.862642920167833e+18
14233.0	1.862294323173785e+18
14234.0	1.86194905310167e+18
14235.0	1.8615997833412603e+18
14236.0	1.86125460218839e+18
14237.0	1.8609054733565947e+18
14238.0	1.8605561599754235e+18
14239.0	1.8601855932170235e+18
14240.0	1.8583519374606333e+18
14241.0	1.8594695668039677e+18
14242.0	1.859154183664435e+18
14243.0	1.8586908976218112e+18
14244.0	1.8584776424292347e+18
14245.0	1.8581267352125437e+18
14246.0	1.8577461994323963e+18
14247.0	1.8573855345868797e+18
14248.0	1.8570292787937277e+18
14249.0	1.856693830103859e+18
14250.0	1.856350660539187e+18
14251.0	1.8560065262845944e+18
14252.0	1.8556600415420413e+18
14253.0	1.855312050205491e+18
14254.0	1.8549618576982013e+18
14255.0	1.8545740708052987e+18
14256.0	1.853862419890176e+18
14257.0	1.8538065685381117e+18
14258.0	1.8535749473271803e+18
14259.0	1.8532157135781888e+18
14260.0	1.8528728795578363e+18
14261.0	1.8525205362114555e+18
14262.0	1.852201524160102e+18
14263.0	1.8512714775134205e+18
14264.0	1.8512549737660413e+18
14265.0	1.851168785852006e+18
14266.0	1.8508006366904315e+18
14267.0	1.8504479796101117e+18
14268.0	1.8501042782076923e+18
14269.0	1.8497505641627643e+18
14270.0	1.8494137196085243e+18
14271.0	1.849066437948211e+18
14272.0	1.8487138244886523e+18
14273.0	1.8483237743493115e+18
14274.0	1.8470145626210304e+18
14275.0	1.847485822874419e+18
14276.0	1.8473156012408827e+18
14277.0	1.8469910560636923e+18
14278.0	1.846657996449382e+18
14279.0	1.8463143990657024e+18
14280.0	1.845967765005926e+18
14281.0	1.8456301554106368e+18
14282.0	1.845287016044953e+18
14283.0	1.844943395173171e+18
14284.0	1.844599646794547e+18
14285.0	1.8442555393835003e+18
14286.0	1.8439109370445821e+18
14287.0	1.843565373371187e+18
14288.0	1.8432035592863741e+18
14289.0	1.8418580450181107e+18
14290.0	1.8424617496477693e+18
14291.0	1.8421341795385341e+18
14292.0	1.8417909093105661e+18
14293.0	1.84144540771287e+18
14294.0	1.8409856901840893e+18
14295.0	1.8407302906249216e+18
14296.0	1.8396521967910915e+18
14297.0	1.8400275584778237e+18
14298.0	1.839510466225766e+18
14299.0	1.8393648701898747e+18
14300.0	1.8390410212671488e+18
14301.0	1.8387037019176952e+18
14302.0	1.8383634834653184e+18
14303.0	1.8379859608731643e+18
14304.0	1.8376633081659387e+18
14305.0	1.8373347079356416e+18
14306.0	1.8369854230757376e+18
14307.0	1.8366416965074941e+18
14308.0	1.8363028521091072e+18
14309.0	1.8359541460631547e+18
14310.0	1.8355853576896507e+18
14311.0	1.8352320429424637e+18
14312.0	1.8348961295237117e+18
14313.0	1.8344892786802688e+18
14314.0	1.8342117197742075e+18
14315.0	1.8338516521975803e+18
14316.0	1.8334707456409597e+18
14317.0	1.8331649389363197e+18
14318.0	1.832834540188467e+18
14319.0	1.8324959893913597e+18
14320.0	1.8321550394523643e+18
14321.0	1.8318108229894141e+18
14322.0	1.831440697471795e+18
14323.0	1.831110399387238e+18
14324.0	1.8307915953733627e+18
14325.0	1.8304414347427837e+18
14326.0	1.8301109604974587e+18
14327.0	1.8297630983454717e+18
14328.0	1.8294235845361656e+18
14329.0	1.8290889394749437e+18
14330.0	1.8287484341321725e+18
14331.0	1.8284076486098941e+18
14332.0	1.8280673261387776e+18
14333.0	1.8277268409286653e+18
14334.0	1.827386146003353e+18
14335.0	1.8270329755402237e+18
14336.0	1.8266616252858365e+18
14337.0	1.8263613735174141e+18
14338.0	1.826022470398771e+18
14339.0	1.8256735412158461e+18
14340.0	1.8253444376690688e+18
14341.0	1.8250038232743933e+18
14342.0	1.8246078843322365e+18
14343.0	1.8242594483994621e+18
14344.0	1.8239163325218813e+18
14345.0	1.8235802647527424e+18
14346.0	1.8232369928470525e+18
14347.0	1.8228868708040704e+18
14348.0	1.822558045759078e+18
14349.0	1.8222200754536445e+18
14350.0	1.821844445331456e+18
14351.0	1.8215000174755837e+18
14352.0	1.821192682366566e+18
14353.0	1.8208623222063104e+18
14354.0	1.8205200552558587e+18
14355.0	1.820173057130496e+18
14356.0	1.819836044804096e+18
14357.0	1.819508061975347e+18
14358.0	1.8191698165235707e+18
14359.0	1.8188150773907453e+18
14360.0	1.8184891782922235e+18
14361.0	1.8181513740812285e+18
14362.0	1.817813876893286e+18
14363.0	1.8174722944532475e+18
14364.0	1.817032650863411e+18
14365.0	1.816751840532889e+18
14366.0	1.8164380176744445e+18
14367.0	1.8161218493612027e+18
14368.0	1.8157840216621053e+18
14369.0	1.815446549639987e+18
14370.0	1.8151086716092413e+18
14371.0	1.814770853976473e+18
14372.0	1.8144273874550781e+18
14373.0	1.8140947053281277e+18
14374.0	1.813710283944755e+18
14375.0	1.8133567192170493e+18
14376.0	1.8130207672107005e+18
14377.0	1.8126822331908093e+18
14378.0	1.812342563353395e+18
14379.0	1.8120070676873208e+18
14380.0	1.8116684212600827e+18
14381.0	1.8113198007779325e+18
14382.0	1.8109925678907387e+18
14383.0	1.8106551445225472e+18
14384.0	1.8103003013709821e+18
14385.0	1.8099819318870013e+18
14386.0	1.80962577172398e+18
14387.0	1.8093068452364285e+18
14388.0	1.8089686501163003e+18
14389.0	1.8086318508605435e+18
14390.0	1.8082936892948475e+18
14391.0	1.8079584788414461e+18
14392.0	1.8076209313218555e+18
14393.0	1.8072846840365053e+18
14394.0	1.8069055642533888e+18
14395.0	1.8065978231357437e+18
14396.0	1.8062714727301117e+18
14397.0	1.805934562744729e+18
14398.0	1.8055971829972987e+18
14399.0	1.8052596036009981e+18
14400.0	1.8049042537775096e+18
14401.0	1.804574148630937e+18
14402.0	1.804228472550195e+18
14403.0	1.8035083575295992e+18
14404.0	1.8007830699180017e+18
14405.0	1.8014812235628513e+18
14406.0	1.8028597017051133e+18
14407.0	1.8021031146946555e+18
14408.0	1.802196239987507e+18
14409.0	1.8018744697618432e+18
14410.0	1.8015505419862008e+18
14411.0	1.801163667773849e+18
14412.0	1.800827016157593e+18
14413.0	1.8004951963795453e+18
14414.0	1.8001573753913341e+18
14415.0	1.7998224602169341e+18
14416.0	1.7994867313475581e+18
14417.0	1.7991458518728704e+18
14418.0	1.7988067423944704e+18
14419.0	1.798477128820326e+18
14420.0	1.7981377492287488e+18
14421.0	1.7978044715106296e+18
14422.0	1.7974567486095352e+18
14423.0	1.797067314194022e+18
14424.0	1.7949388760416246e+18
14425.0	1.7963926050308093e+18
14426.0	1.796121503675187e+18
14427.0	1.7957937708269565e+18
14428.0	1.7954373506170872e+18
14429.0	1.7951238079381504e+18
14430.0	1.7947827523026944e+18
14431.0	1.7942652120989693e+18
14432.0	1.794106508024217e+18
14433.0	1.7934296748654587e+18
14434.0	1.793426361365299e+18
14435.0	1.7930954794336256e+18
14436.0	1.792783701717811e+18
14437.0	1.7924518047645693e+18
14438.0	1.7920942084718587e+18
14439.0	1.7917770553360384e+18
14440.0	1.791449475160473e+18
14441.0	1.791107137745715e+18
14442.0	1.7907669897576443e+18
14443.0	1.7903940473454587e+18
14444.0	1.7901024626868221e+18
14445.0	1.7897634891038717e+18
14446.0	1.7884058532970496e+18
14447.0	1.7890510832140288e+18
14448.0	1.788772980726169e+18
14449.0	1.788443494658867e+18
14450.0	1.7881045093318653e+18
14451.0	1.787769047220224e+18
14452.0	1.787381617682022e+18
14453.0	1.7870450046533627e+18
14454.0	1.78671406064599e+18
14455.0	1.7863717668519933e+18
14456.0	1.7860431162900475e+18
14457.0	1.7857102814904315e+18
14458.0	1.7853751666671616e+18
14459.0	1.7850376661237755e+18
14460.0	1.7846982898876416e+18
14461.0	1.784338554499891e+18
14462.0	1.78399767166976e+18
14463.0	1.7836885145550848e+18
14464.0	1.7833682408570877e+18
14465.0	1.7830182278660096e+18
14466.0	1.782707196736307e+18
14467.0	1.7823575461330941e+18
14468.0	1.782040453395251e+18
14469.0	1.781684271421849e+18
14470.0	1.781350443411046e+18
14471.0	1.7810405246107648e+18
14472.0	1.780712436085555e+18
14473.0	1.780384565664153e+18
14474.0	1.7800554101080061e+18
14475.0	1.779720639217664e+18
14476.0	1.7793699266166781e+18
14477.0	1.7790576623615997e+18
14478.0	1.7787237622087677e+18
14479.0	1.7783914525360125e+18
14480.0	1.778043296782745e+18
14481.0	1.7777300963590144e+18
14482.0	1.777392698156646e+18
14483.0	1.7770556841525243e+18
14484.0	1.7767143097499648e+18
14485.0	1.7763514135347197e+18
14486.0	1.7757796594352125e+18
14487.0	1.7757290257973243e+18
14488.0	1.7753991152664576e+18
14489.0	1.7750574204190715e+18
14490.0	1.7747366920585208e+18
14491.0	1.7744105631121408e+18
14492.0	1.7740809528934397e+18
14493.0	1.7737390130987003e+18
14494.0	1.7733940869595139e+18
14495.0	1.7730757862621181e+18
14496.0	1.7726274520743933e+18
14497.0	1.772418305622016e+18
14498.0	1.7720920911118333e+18
14499.0	1.7717611890475005e+18
14500.0	1.771428787100057e+18
14501.0	1.77104003048407e+18
14502.0	1.7704916403355648e+18
14503.0	1.7703553371996155e+18
14504.0	1.7700351540985853e+18
14505.0	1.7696990527750144e+18
14506.0	1.7693491874234363e+18
14507.0	1.768811157205811e+18
14508.0	1.768712082712166e+18
14509.0	1.7683875576676347e+18
14510.0	1.768053682680627e+18
14511.0	1.7677244130394112e+18
14512.0	1.767380983427891e+18
14513.0	1.7670583256875005e+18
14514.0	1.766697924244275e+18
14515.0	1.7663663410249723e+18
14516.0	1.7635751592198154e+18
14517.0	1.7656444140650493e+18
14518.0	1.7654001663213565e+18
14519.0	1.7650778357366784e+18
14520.0	1.7647486650810365e+18
14521.0	1.764419678974771e+18
14522.0	1.7640878776516605e+18
14523.0	1.7637293099581437e+18
14524.0	1.7634041306021885e+18
14525.0	1.7630929199562747e+18
14526.0	1.7627653313921021e+18
14527.0	1.7624028797730816e+18
14528.0	1.7619823252996093e+18
14529.0	1.7617657364742141e+18
14530.0	1.7614309286739965e+18
14531.0	1.7611158492020733e+18
14532.0	1.7607632038658043e+18
14533.0	1.7604572310667261e+18
14534.0	1.7601305451167741e+18
14535.0	1.7597888217481216e+18
14536.0	1.7594659677143035e+18
14537.0	1.7591276803194877e+18
14538.0	1.758811156329267e+18
14539.0	1.7584819470860285e+18
14540.0	1.7581519862235133e+18
14541.0	1.757797426606899e+18
14542.0	1.7574880077676541e+18
14543.0	1.7571344178741243e+18
14544.0	1.7568243564675072e+18
14545.0	1.756469508282777e+18
14546.0	1.75364560251781e+18
14547.0	1.7533922648784878e+18
14548.0	1.755465341573529e+18
14549.0	1.7550583682564093e+18
14550.0	1.754838350168064e+18
14551.0	1.754526723447193e+18
14552.0	1.7541978195492861e+18
14553.0	1.7538627265363965e+18
14554.0	1.7535419260338176e+18
14555.0	1.7532123644690427e+18
14556.0	1.7528817459396605e+18
14557.0	1.7525308051685368e+18
14558.0	1.7521202985697277e+18
14559.0	1.7499759539388393e+18
14560.0	1.7514580246790141e+18
14561.0	1.7511591889076216e+18
14562.0	1.75081325110231e+18
14563.0	1.7505095415496704e+18
14564.0	1.7501764282482685e+18
14565.0	1.7498571242733565e+18
14566.0	1.7495293176053757e+18
14567.0	1.749199383586406e+18
14568.0	1.7488627302924285e+18
14569.0	1.7485279157813248e+18
14570.0	1.747702352602726e+18
14571.0	1.7478724752506875e+18
14572.0	1.7475164761489405e+18
14573.0	1.747173663938969e+18
14574.0	1.7468803260612603e+18
14575.0	1.7465624447942653e+18
14576.0	1.7462319118286843e+18
14577.0	1.7459075897884672e+18
14578.0	1.7455848565506048e+18
14579.0	1.7452598751657984e+18
14580.0	1.744931868848947e+18
14581.0	1.7445983629606907e+18
14582.0	1.7442694909394941e+18
14583.0	1.743944814900019e+18
14584.0	1.7436026821672957e+18
14585.0	1.7432872637956093e+18
14586.0	1.7429583045328896e+18
14587.0	1.7426327778885632e+18
14588.0	1.74230535709655e+18
14589.0	1.741978942937497e+18
14590.0	1.7416523442290685e+18
14591.0	1.741324186917273e+18
14592.0	1.7409839231664123e+18
14593.0	1.7405584496132093e+18
14594.0	1.7403403256725504e+18
14595.0	1.7400094856839165e+18
14596.0	1.739582310921011e+18
14597.0	1.7392344118591488e+18
14598.0	1.7390232773066752e+18
14599.0	1.7387137863254008e+18
14600.0	1.7383874057207803e+18
14601.0	1.73806123483136e+18
14602.0	1.7377311632392187e+18
14603.0	1.7374065056546813e+18
14604.0	1.7370395359313915e+18
14605.0	1.7367390392156157e+18
14606.0	1.7363472341794813e+18
14607.0	1.7360978106646525e+18
14608.0	1.735773673173811e+18
14609.0	1.7354456064589821e+18
14610.0	1.735113291753062e+18
14611.0	1.7347896491900928e+18
14612.0	1.7344751418212344e+18
14613.0	1.7341477898158075e+18
14614.0	1.733817248461619e+18
14615.0	1.7334952769093627e+18
14616.0	1.7331717719195643e+18
14617.0	1.7328397592035325e+18
14618.0	1.732505392644096e+18
14619.0	1.732060366923366e+18
14620.0	1.731609606750208e+18
14621.0	1.7315351578542075e+18
14622.0	1.7311947212980221e+18
14623.0	1.7308307731513344e+18
14624.0	1.7304528244178941e+18
14625.0	1.730174495437619e+18
14626.0	1.7298518779625467e+18
14627.0	1.7295266465972221e+18
14628.0	1.7292055105503224e+18
14629.0	1.728879638295347e+18
14630.0	1.7285507008430077e+18
14631.0	1.7282243353378813e+18
14632.0	1.727749939422822e+18
14633.0	1.7275426619523072e+18
14634.0	1.7272467403833341e+18
14635.0	1.726906382680064e+18
14636.0	1.7265398156099581e+18
14637.0	1.7262740846411776e+18
14638.0	1.7259410854248448e+18
14639.0	1.7256051552288765e+18
14640.0	1.7252747548033021e+18
14641.0	1.7243813697290235e+18
14642.0	1.7246210775580672e+18
14643.0	1.7243146333192187e+18
14644.0	1.7239777367556093e+18
14645.0	1.7236434138169341e+18
14646.0	1.723326470396313e+18
14647.0	1.7229972628307963e+18
14648.0	1.7226810156646397e+18
