# Flux units: erg / (cm m2 s)
# Wavelength units: Angstrom
wave	flux
14000.0	1.4902555670740987e+18
14001.0	1.489989351243776e+18
14002.0	1.4897832230125568e+18
14003.0	1.489541668012032e+18
14004.0	1.489299983826944e+18
14005.0	1.489058239243878e+18
14006.0	1.4888154829946875e+18
14007.0	1.4885740286574587e+18
14008.0	1.4883211960123392e+18
14009.0	1.4880894808489984e+18
14010.0	1.4878482798477307e+18
14011.0	1.4875203758718973e+18
14012.0	1.487363862901555e+18
14013.0	1.48712617672704e+18
14014.0	1.4868853666349056e+18
14015.0	1.4866441220128765e+18
14016.0	1.486403269977702e+18
14017.0	1.4861623088906237e+18
14018.0	1.4859186684821501e+18
14019.0	1.4856804118822907e+18
14020.0	1.4854394524729341e+18
14021.0	1.4851985668833277e+18
14022.0	1.484957838999552e+18
14023.0	1.4847169248886784e+18
14024.0	1.4844757742190584e+18
14025.0	1.4842358667411453e+18
14026.0	1.483995194222182e+18
14027.0	1.4837547683282941e+18
14028.0	1.4835142384156672e+18
14029.0	1.4832732051865597e+18
14030.0	1.483004420764467e+18
14031.0	1.482785998189363e+18
14032.0	1.4825525902049277e+18
14033.0	1.482308255219712e+18
14034.0	1.482072797059481e+18
14035.0	1.4818328291835901e+18
14036.0	1.4815928562745344e+18
14037.0	1.4813529102090235e+18
14038.0	1.4811130211860477e+18
14039.0	1.480873175783833e+18
14040.0	1.4806333773578235e+18
14041.0	1.4803935621545981e+18
14042.0	1.4801526413328381e+18
14043.0	1.4799093347909632e+18
14044.0	1.4796713902473213e+18
14045.0	1.4794337594376192e+18
14046.0	1.4791957343633403e+18
14047.0	1.478956246315827e+18
14048.0	1.4787169612726267e+18
14049.0	1.4784776711962621e+18
14050.0	1.4782383928639485e+18
14051.0	1.4779983494905853e+18
14052.0	1.4777598982750203e+18
14053.0	1.4775209689087997e+18
14054.0	1.4772819439124477e+18
14055.0	1.4770429541482493e+18
14056.0	1.4768040231043067e+18
14057.0	1.4765651524583421e+18
14058.0	1.476326315366809e+18
14059.0	1.476085112687821e+18
14060.0	1.4758487938564099e+18
14061.0	1.4756092068233213e+18
14062.0	1.4753713428103165e+18
14063.0	1.4751311585083387e+18
14064.0	1.4748860551266304e+18
14065.0	1.474654777848627e+18
14066.0	1.4744175698247677e+18
14067.0	1.4741792712818688e+18
14068.0	1.4739409760944125e+18
14069.0	1.4737026691629053e+18
14070.0	1.473464538392166e+18
14071.0	1.473226025100902e+18
14072.0	1.472988345637273e+18
14073.0	1.4727503289516035e+18
14074.0	1.4725123458203648e+18
14075.0	1.4722723628449792e+18
14076.0	1.472036354392064e+18
14077.0	1.4717919237767163e+18
14078.0	1.4715599200452603e+18
14079.0	1.4713225878700032e+18
14080.0	1.471085539229696e+18
14081.0	1.4708479772065792e+18
14082.0	1.470610351430041e+18
14083.0	1.470372544459571e+18
14084.0	1.4701341788078077e+18
14085.0	1.469871110383206e+18
14086.0	1.4696568653348864e+18
14087.0	1.4694214340182013e+18
14088.0	1.4691861302083584e+18
14089.0	1.4689490983452667e+18
14090.0	1.4687119742074877e+18
14091.0	1.4684749675102205e+18
14092.0	1.4682379876564992e+18
14093.0	1.4680010145136637e+18
14094.0	1.467764090024755e+18
14095.0	1.4675271336591357e+18
14096.0	1.4672895733137403e+18
14097.0	1.4670515465617405e+18
14098.0	1.4668165967511547e+18
14099.0	1.466580175578726e+18
14100.0	1.4663420766846976e+18
14101.0	1.4661071872720893e+18
14102.0	1.465870658725478e+18
14103.0	1.4656319206195197e+18
14104.0	1.4653978885226493e+18
14105.0	1.4651615965347835e+18
14106.0	1.4649253146132475e+18
14107.0	1.4646870076817405e+18
14108.0	1.4644529000873981e+18
14109.0	1.464216312820531e+18
14110.0	1.463980549314969e+18
14111.0	1.4637443613458432e+18
14112.0	1.4635083696701435e+18
14113.0	1.4632726413967357e+18
14114.0	1.4630366832754685e+18
14115.0	1.4628002285486075e+18
14116.0	1.4625607270793216e+18
14117.0	1.462273673946726e+18
14118.0	1.4620915304235005e+18
14119.0	1.4618572047253504e+18
14120.0	1.461621991512473e+18
14121.0	1.461386798432256e+18
14122.0	1.4611509594292221e+18
14123.0	1.4609153301413885e+18
14124.0	1.4606767983951872e+18
14125.0	1.4603934094065664e+18
14126.0	1.460207732601651e+18
14127.0	1.4599748614881277e+18
14128.0	1.4597399284547581e+18
14129.0	1.4595036649881595e+18
14130.0	1.4592680860319741e+18
14131.0	1.4590345622847485e+18
14132.0	1.4587964264808445e+18
14133.0	1.4585040348381181e+18
14134.0	1.4583246796881915e+18
14135.0	1.4580939225038848e+18
14136.0	1.4578608047652864e+18
14137.0	1.4576262894845947e+18
14138.0	1.457391626564403e+18
14139.0	1.4571572723449853e+18
14140.0	1.4569227570642941e+18
14141.0	1.4566874314440701e+18
14142.0	1.4564520471035901e+18
14143.0	1.4562194628804608e+18
14144.0	1.455985469371187e+18
14145.0	1.4557512577581053e+18
14146.0	1.4555169572257792e+18
14147.0	1.4552829184180221e+18
14148.0	1.4550488997429245e+18
14149.0	1.454814906233651e+18
14150.0	1.454580900980326e+18
14151.0	1.4543467245993981e+18
14152.0	1.4541131203215357e+18
14153.0	1.4538792794849277e+18
14154.0	1.453642497602355e+18
14155.0	1.4534106532544507e+18
14156.0	1.4531779834675197e+18
14157.0	1.4529443825451003e+18
14158.0	1.4527104494338048e+18
14159.0	1.4524771488235515e+18
14160.0	1.4522414306164736e+18
14161.0	1.452004093408051e+18
14162.0	1.4517653569798144e+18
14163.0	1.4515423626133501e+18
14164.0	1.451309281784627e+18
14165.0	1.4510758486343675e+18
14166.0	1.4508439589879803e+18
14167.0	1.4506093178781693e+18
14168.0	1.4503778896052221e+18
14169.0	1.4501450117808125e+18
14170.0	1.4499116541280253e+18
14171.0	1.449678702483865e+18
14172.0	1.449446213890867e+18
14173.0	1.4492118277947392e+18
14174.0	1.4489797754093563e+18
14175.0	1.448748008236646e+18
14176.0	1.4485154105917437e+18
14177.0	1.4482828263686141e+18
14178.0	1.4480502455009277e+18
14179.0	1.447817350899302e+18
14180.0	1.4475853253574653e+18
14181.0	1.4473529307168765e+18
14182.0	1.4471204857446397e+18
14183.0	1.4468882253217787e+18
14184.0	1.4466553810518016e+18
14185.0	1.4464231843823616e+18
14186.0	1.4461813290696701e+18
14187.0	1.4459550983782397e+18
14188.0	1.4457272453300221e+18
14189.0	1.4454954462806013e+18
14190.0	1.445263506302566e+18
14191.0	1.4450316133007357e+18
14192.0	1.444799265636352e+18
14193.0	1.4445672333836285e+18
14194.0	1.4443365969952763e+18
14195.0	1.4441051049689085e+18
14196.0	1.4438734736916475e+18
14197.0	1.4436418793242621e+18
14198.0	1.443409729631027e+18
14199.0	1.4431784288649213e+18
14200.0	1.4429418449534973e+18
14201.0	1.4427145992404992e+18
14202.0	1.442484558443315e+18
14203.0	1.442252898644787e+18
14204.0	1.4420217287409664e+18
14205.0	1.4417900337102845e+18
14206.0	1.4415465191309312e+18
14207.0	1.4413272946049021e+18
14208.0	1.4410969585287165e+18
14209.0	1.4408519574880253e+18
14210.0	1.4406231749820413e+18
14211.0	1.4404043111661565e+18
14212.0	1.4401739281137664e+18
14213.0	1.4399433605119997e+18
14214.0	1.4397124858871808e+18
14215.0	1.4394802757959677e+18
14216.0	1.4392514161147904e+18
14217.0	1.4390208871006203e+18
14218.0	1.438790349697843e+18
14219.0	1.4385598710153213e+18
14220.0	1.438329446019891e+18
14221.0	1.4380990143135741e+18
14222.0	1.437868654749286e+18
14223.0	1.4376382985404413e+18
14224.0	1.4374076738961408e+18
14225.0	1.437156909881753e+18
14226.0	1.4369455538700285e+18
14227.0	1.4367168049184763e+18
14228.0	1.4364205394165757e+18
14229.0	1.4362386207080448e+18
14230.0	1.4360272730849277e+18
14231.0	1.4357978245234685e+18
14232.0	1.4355680941047803e+18
14233.0	1.4353383418757115e+18
14234.0	1.4351085678362621e+18
14235.0	1.4348785555603453e+18
14236.0	1.4346490902216701e+18
14237.0	1.4344190695571453e+18
14238.0	1.434188852599193e+18
14239.0	1.433954174579507e+18
14240.0	1.4334897426530301e+18
14241.0	1.4334906301677565e+18
14242.0	1.433268640756531e+18
14243.0	1.4330260019478525e+18
14244.0	1.432813030290227e+18
14245.0	1.432584382001971e+18
14246.0	1.432355196842803e+18
14247.0	1.432126546876825e+18
14248.0	1.4318949793529853e+18
14249.0	1.431668387951411e+18
14250.0	1.4314395265925115e+18
14251.0	1.4312108883705853e+18
14252.0	1.4309820052013053e+18
14253.0	1.4307530029137915e+18
14254.0	1.4305238445981693e+18
14255.0	1.4302899114868736e+18
14256.0	1.4300478431035392e+18
14257.0	1.4298315025809408e+18
14258.0	1.429609258156032e+18
14259.0	1.4293793918418941e+18
14260.0	1.4291509767569403e+18
14261.0	1.428922645558067e+18
14262.0	1.428713411864166e+18
14263.0	1.4284582488637437e+18
14264.0	1.4282429468508157e+18
14265.0	1.4280291614982141e+18
14266.0	1.4278020651024381e+18
14267.0	1.4275742372200448e+18
14268.0	1.4273462616981501e+18
14269.0	1.4271143418527741e+18
14270.0	1.426886537458483e+18
14271.0	1.426658454562406e+18
14272.0	1.4264300159893504e+18
14273.0	1.4261990239240187e+18
14274.0	1.4259272732901373e+18
14275.0	1.4257356724502525e+18
14276.0	1.4255183638822907e+18
14277.0	1.4252914537136125e+18
14278.0	1.425064400938598e+18
14279.0	1.4248367844491264e+18
14280.0	1.4246089766993915e+18
14281.0	1.424382257790976e+18
14282.0	1.424154933225062e+18
14283.0	1.423927581815603e+18
14284.0	1.4237002471833597e+18
14285.0	1.423472909195673e+18
14286.0	1.4232454990659581e+18
14287.0	1.423014470090752e+18
14288.0	1.4227825116577792e+18
14289.0	1.422405936978329e+18
14290.0	1.4223288070832125e+18
14291.0	1.422105705342566e+18
14292.0	1.4218792716468221e+18
14293.0	1.4216516618682365e+18
14294.0	1.421410583340646e+18
14295.0	1.4211932361850875e+18
14296.0	1.4208522577248253e+18
14297.0	1.4207347333267453e+18
14298.0	1.4204965757124608e+18
14299.0	1.4202906018316285e+18
14300.0	1.4200659632979965e+18
14301.0	1.4198396839526397e+18
14302.0	1.4196129600110587e+18
14303.0	1.4193823840206845e+18
14304.0	1.4191588443947008e+18
14305.0	1.418934014600806e+18
14306.0	1.418707686601523e+18
14307.0	1.4184777280126976e+18
14308.0	1.4182515409420285e+18
14309.0	1.4180250384596987e+18
14310.0	1.4177978263011325e+18
14311.0	1.4175709983408125e+18
14312.0	1.4173424054173693e+18
14313.0	1.417090874684211e+18
14314.0	1.4168952926109693e+18
14315.0	1.416669162582835e+18
14316.0	1.4164386553790464e+18
14317.0	1.416217889026867e+18
14318.0	1.4159928461623293e+18
14319.0	1.4157673771565053e+18
14320.0	1.4155417655443453e+18
14321.0	1.4153161438658557e+18
14322.0	1.4150868697874432e+18
14323.0	1.4148624694902781e+18
14324.0	1.4146398593220603e+18
14325.0	1.414414648685363e+18
14326.0	1.4141893742952445e+18
14327.0	1.4139640529289213e+18
14328.0	1.413738095706112e+18
14329.0	1.4135137356742653e+18
14330.0	1.413284963234611e+18
14331.0	1.4130598029295613e+18
14332.0	1.4128347818754045e+18
14333.0	1.4126097792761853e+18
14334.0	1.4123847934541821e+18
14335.0	1.4121581903085565e+18
14336.0	1.411932912562995e+18
14337.0	1.4117100960350203e+18
14338.0	1.4114852142317565e+18
14339.0	1.4112604884566013e+18
14340.0	1.4110360160174077e+18
14341.0	1.4108114026495997e+18
14342.0	1.410586868134707e+18
14343.0	1.4103623336198144e+18
14344.0	1.410136616311193e+18
14345.0	1.4099126622879741e+18
14346.0	1.4096885975351293e+18
14347.0	1.409463423808307e+18
14348.0	1.4092401106747387e+18
14349.0	1.4090159721021437e+18
14350.0	1.4087901188980736e+18
14351.0	1.408566018913075e+18
14352.0	1.408342672225075e+18
14353.0	1.408119107433267e+18
14354.0	1.4078951752204285e+18
14355.0	1.4076684730892285e+18
14356.0	1.4074434025422845e+18
14357.0	1.4072200055226365e+18
14358.0	1.4069961966223355e+18
14359.0	1.4067723189354493e+18
14360.0	1.4065484613812221e+18
14361.0	1.406324813542195e+18
14362.0	1.4061011791249405e+18
14363.0	1.4058773542862845e+18
14364.0	1.4056493720535037e+18
14365.0	1.4054280512143357e+18
14366.0	1.405205831955251e+18
14367.0	1.4049835430707195e+18
14368.0	1.404760161989427e+18
14369.0	1.404536886604595e+18
14370.0	1.4043136011534333e+18
14371.0	1.4040903584841723e+18
14372.0	1.4038671376252923e+18
14373.0	1.403643952837427e+18
14374.0	1.4034207646941181e+18
14375.0	1.4031969767653373e+18
14376.0	1.402974764217139e+18
14377.0	1.4027516884811773e+18
14378.0	1.4025285120819197e+18
14379.0	1.402305906946867e+18
14380.0	1.4020829847224317e+18
14381.0	1.4018599995834365e+18
14382.0	1.401637288751923e+18
14383.0	1.4014116804952061e+18
14384.0	1.4011862525935613e+18
14385.0	1.4009657857146877e+18
14386.0	1.4007413686403072e+18
14387.0	1.4005205796388861e+18
14388.0	1.4002979862478845e+18
14389.0	1.4000755144916987e+18
14390.0	1.3998529529774077e+18
14391.0	1.3996308377370621e+18
14392.0	1.39940847419392e+18
14393.0	1.3991862599679995e+18
14394.0	1.3989590083829757e+18
14395.0	1.3987404918554621e+18
14396.0	1.3985195778637821e+18
14397.0	1.3982974164860925e+18
14398.0	1.398075238331187e+18
14399.0	1.3978530383659005e+18
14400.0	1.3976282404487165e+18
14401.0	1.3974072266326013e+18
14402.0	1.3971844679860221e+18
14403.0	1.396942734308147e+18
14404.0	1.3963676868411387e+18
14405.0	1.3962266030374904e+18
14406.0	1.3962913949679613e+18
14407.0	1.3960568956256253e+18
14408.0	1.3958542025293821e+18
14409.0	1.3956320336019453e+18
14410.0	1.3954132863877117e+18
14411.0	1.3951923363250173e+18
14412.0	1.3949707076239357e+18
14413.0	1.394749964759859e+18
14414.0	1.3945284283334653e+18
14415.0	1.3943049205841917e+18
14416.0	1.3940824320507901e+18
14417.0	1.3938611003064317e+18
14418.0	1.3936396846759936e+18
14419.0	1.3934185802629117e+18
14420.0	1.3931969716944893e+18
14421.0	1.3929764351901693e+18
14422.0	1.3927549239295997e+18
14423.0	1.3925305580257277e+18
14424.0	1.392240981599846e+18
14425.0	1.3920885178105853e+18
14426.0	1.3918715372371965e+18
14427.0	1.3916512456802301e+18
14428.0	1.3914274946613248e+18
14429.0	1.391209565336371e+18
14430.0	1.3909886001741821e+18
14431.0	1.3907596658343933e+18
14432.0	1.3905470171381757e+18
14433.0	1.3903118450294781e+18
14434.0	1.3901043377111037e+18
14435.0	1.3898846744608765e+18
14436.0	1.3896661965209597e+18
14437.0	1.3894460064661501e+18
14438.0	1.3892246503948285e+18
14439.0	1.3890050911633405e+18
14440.0	1.3887851401838587e+18
14441.0	1.3885629100195837e+18
14442.0	1.3883414541238267e+18
14443.0	1.3881161856057341e+18
14444.0	1.3879026493947901e+18
14445.0	1.3876819090472957e+18
14446.0	1.3873387604541437e+18
14447.0	1.3872347920465917e+18
14448.0	1.387023998071603e+18
14449.0	1.3868049329291261e+18
14450.0	1.3865853309157373e+18
14451.0	1.386365663471206e+18
14452.0	1.386142691753984e+18
14453.0	1.3859219388235773e+18
14454.0	1.3857023401656317e+18
14455.0	1.3854821123620861e+18
14456.0	1.3852632141529085e+18
14457.0	1.3850436607934461e+18
14458.0	1.3848240151592957e+18
14459.0	1.3846043049328637e+18
14460.0	1.3843845519245312e+18
14461.0	1.3841629953654781e+18
14462.0	1.3839442892554237e+18
14463.0	1.3837260654903293e+18
14464.0	1.3835074474606587e+18
14465.0	1.3832848624582653e+18
14466.0	1.383069868307251e+18
14467.0	1.3828498678349821e+18
14468.0	1.3826315476008957e+18
14469.0	1.3824093761568765e+18
14470.0	1.382189706195763e+18
14471.0	1.381973460464435e+18
14472.0	1.381756291986227e+18
14473.0	1.381537563226931e+18
14474.0	1.3813188210458621e+18
14475.0	1.3810999790403581e+18
14476.0	1.3808805028560893e+18
14477.0	1.3806626288959485e+18
14478.0	1.3804440947523581e+18
14479.0	1.3802254523957245e+18
14480.0	1.3800053898477568e+18
14481.0	1.379788323710566e+18
14482.0	1.3795691268669437e+18
14483.0	1.3793500944400381e+18
14484.0	1.379130264256512e+18
14485.0	1.3789073353211901e+18
14486.0	1.3786589511548928e+18
14487.0	1.3784763781349373e+18
14488.0	1.3782596257316861e+18
14489.0	1.3780409682755584e+18
14490.0	1.3778233912721405e+18
14491.0	1.3776054309093376e+18
14492.0	1.3773876232191997e+18
14493.0	1.377166972629811e+18
14494.0	1.3769447953137661e+18
14495.0	1.376727996773171e+18
14496.0	1.3764959838142461e+18
14497.0	1.376293148111667e+18
14498.0	1.3760762069647357e+18
14499.0	1.375858471416627e+18
14500.0	1.375640543769395e+18
14501.0	1.3754204736716797e+18
14502.0	1.3751728394469373e+18
14503.0	1.3749855209914365e+18
14504.0	1.374768950620979e+18
14505.0	1.3745517729153021e+18
14506.0	1.374331568599859e+18
14507.0	1.3740867697246205e+18
14508.0	1.3738987063607293e+18
14509.0	1.3736825369657344e+18
14510.0	1.3734653223501821e+18
14511.0	1.3732476732047357e+18
14512.0	1.373028926829363e+18
14513.0	1.3728122004307965e+18
14514.0	1.372591062463283e+18
14515.0	1.3723700452917245e+18
14516.0	1.3717529591545856e+18
14517.0	1.3719210920247293e+18
14518.0	1.371725132464128e+18
14519.0	1.3715102205214717e+18
14520.0	1.3712939101978621e+18
14521.0	1.3710772584579067e+18
14522.0	1.3708604313960445e+18
14523.0	1.3706427059142653e+18
14524.0	1.3704260113924093e+18
14525.0	1.3702095181971453e+18
14526.0	1.3699932800155645e+18
14527.0	1.3697704030896125e+18
14528.0	1.3695413957689341e+18
14529.0	1.3693417695477757e+18
14530.0	1.3691252511866877e+18
14531.0	1.3689103786704893e+18
14532.0	1.3686932361969661e+18
14533.0	1.3684776389050365e+18
14534.0	1.3682614342778877e+18
14535.0	1.3680449771536381e+18
14536.0	1.3678285359677437e+18
14537.0	1.367611123381043e+18
14538.0	1.3673961082585085e+18
14539.0	1.3671799682236413e+18
14540.0	1.3669637594021885e+18
14541.0	1.3667470405533693e+18
14542.0	1.366531056546611e+18
14543.0	1.366308129289011e+18
14544.0	1.3660935621181437e+18
14545.0	1.3658758047596544e+18
14546.0	1.365524440363827e+18
14547.0	1.3652997129109501e+18
14548.0	1.3652248185798653e+18
14549.0	1.3649989796364285e+18
14550.0	1.3647971908321275e+18
14551.0	1.364582734390886e+18
14552.0	1.3643668552417277e+18
14553.0	1.3641498050428925e+18
14554.0	1.363935860306739e+18
14555.0	1.3637200918872061e+18
14556.0	1.3635041288519677e+18
14557.0	1.3632873949036541e+18
14558.0	1.3630636531122173e+18
14559.0	1.3625551751217147e+18
14560.0	1.362631958567321e+18
14561.0	1.362424505774899e+18
14562.0	1.3622078330634237e+18
14563.0	1.3619961817726973e+18
14564.0	1.3617788924985341e+18
14565.0	1.3615660256985085e+18
14566.0	1.3613508511924221e+18
14567.0	1.3611355584069632e+18
14568.0	1.3609200366125053e+18
14569.0	1.360701812847411e+18
14570.0	1.3604080882548733e+18
14571.0	1.3602724922785792e+18
14572.0	1.3600547038822397e+18
14573.0	1.3598383247720445e+18
14574.0	1.3596294962479101e+18
14575.0	1.359415096849203e+18
14576.0	1.359200368617062e+18
14577.0	1.3589857997684733e+18
14578.0	1.358770788840243e+18
14579.0	1.3585562996834301e+18
14580.0	1.3583416133943293e+18
14581.0	1.358126585688883e+18
14582.0	1.3579121837735936e+18
14583.0	1.357697492451328e+18
14584.0	1.3574817248706555e+18
14585.0	1.3572682742235133e+18
14586.0	1.3570535669628928e+18
14587.0	1.356839316881408e+18
14588.0	1.356625008079667e+18
14589.0	1.3564108444008445e+18
14590.0	1.3561967134375936e+18
14591.0	1.3559824725835773e+18
14592.0	1.355767197414195e+18
14593.0	1.3555400775303165e+18
14594.0	1.3553395453394941e+18
14595.0	1.3551258078019581e+18
14596.0	1.354907021161267e+18
14597.0	1.3546920723087357e+18
14598.0	1.3544840356691965e+18
14599.0	1.3542690029305856e+18
14600.0	1.354053815841587e+18
14601.0	1.353840036361011e+18
14602.0	1.353626214937395e+18
14603.0	1.3534123213717501e+18
14604.0	1.353193572479795e+18
14605.0	1.3529820352741373e+18
14606.0	1.3527573220818941e+18
14607.0	1.3525574064537597e+18
14608.0	1.3523424735395837e+18
14609.0	1.352128311538483e+18
14610.0	1.3519144448163837e+18
14611.0	1.351700113365401e+18
14612.0	1.3514909467803645e+18
14613.0	1.3512777419194365e+18
14614.0	1.3510620825518077e+18
14615.0	1.3508497475895293e+18
14616.0	1.3506378932944893e+18
14617.0	1.3504203892719616e+18
14618.0	1.3502080199163901e+18
14619.0	1.3499911265845248e+18
14620.0	1.3497731402170365e+18
14621.0	1.3495713816117245e+18
14622.0	1.3493587446595581e+18
14623.0	1.3491454139695101e+18
14624.0	1.3489261382729728e+18
14625.0	1.3487190965223421e+18
14626.0	1.3485051022934013e+18
14627.0	1.348292024939315e+18
14628.0	1.3480810212491264e+18
14629.0	1.3478681712263165e+18
14630.0	1.3476537584058363e+18
14631.0	1.3474407842316285e+18
14632.0	1.3472198249414653e+18
14633.0	1.3470144349077501e+18
14634.0	1.3468039261454333e+18
14635.0	1.3465902548779005e+18
14636.0	1.3463745208516608e+18
14637.0	1.3461660723314685e+18
14638.0	1.3459530629251067e+18
14639.0	1.3457391676817405e+18
14640.0	1.3455265282129917e+18
14641.0	1.345291835093811e+18
14642.0	1.345101338194739e+18
14643.0	1.3448902271303677e+18
14644.0	1.3446777915047936e+18
14645.0	1.3444612093902843e+18
14646.0	1.3442502082166781e+18
