# Flux units: erg / (cm m2 s)
# Wavelength units: Angstrom
wave	flux
14000.0	1.6381266756632576e+18
14001.0	1.637796172896665e+18
14002.0	1.6374892622512125e+18
14003.0	1.6371708709568507e+18
14004.0	1.63685213405184e+18
14005.0	1.6365334290235395e+18
14006.0	1.6362141149822968e+18
14007.0	1.6358958461616123e+18
14008.0	1.6355691585339392e+18
14009.0	1.6352592900653053e+18
14010.0	1.6349411135193088e+18
14011.0	1.6345628577628157e+18
14012.0	1.6343047084179456e+18
14013.0	1.633986622468915e+18
14014.0	1.6336685952401405e+18
14015.0	1.633350450570854e+18
14016.0	1.633032775663616e+18
14017.0	1.6327149766049792e+18
14018.0	1.6323972295557123e+18
14019.0	1.6320795915583488e+18
14020.0	1.6317619468500992e+18
14021.0	1.6314443726061565e+18
14022.0	1.6311269325799421e+18
14023.0	1.6308092912271352e+18
14024.0	1.630491411637862e+18
14025.0	1.6301751476944893e+18
14026.0	1.6298578318196733e+18
14027.0	1.629540940408422e+18
14028.0	1.6292239416229885e+18
14029.0	1.6289069831028728e+18
14030.0	1.628559822238515e+18
14031.0	1.628272512414515e+18
14032.0	1.627956642735718e+18
14033.0	1.6276391892877312e+18
14034.0	1.6273234018172925e+18
14035.0	1.6270069482913792e+18
14036.0	1.6266905266421757e+18
14037.0	1.6263741771350008e+18
14038.0	1.6260578997698552e+18
14039.0	1.6257416895135741e+18
14040.0	1.6254255581102075e+18
14041.0	1.6251094938157053e+18
14042.0	1.624792963114598e+18
14043.0	1.6244750248050685e+18
14044.0	1.6241605644124157e+18
14045.0	1.6238459698020347e+18
14046.0	1.623530267895398e+18
14047.0	1.6232145240457208e+18
14048.0	1.6228990318542848e+18
14049.0	1.6225784091901947e+18
14050.0	1.6222579727532032e+18
14051.0	1.621941826250342e+18
14052.0	1.621403636649164e+18
14053.0	1.6209053885661181e+18
14054.0	1.6205902017200128e+18
14055.0	1.620275087015936e+18
14056.0	1.6199600343875581e+18
14057.0	1.6196450572566523e+18
14058.0	1.6193301573009405e+18
14059.0	1.6190153210986493e+18
14060.0	1.6187005587161085e+18
14061.0	1.6183852225527805e+18
14062.0	1.6180712570879997e+18
14063.0	1.6177553152671741e+18
14064.0	1.6174361538985981e+18
14065.0	1.6171270135611384e+18
14066.0	1.616813492692582e+18
14067.0	1.6164920412340221e+18
14068.0	1.6161745928191997e+18
14069.0	1.6158603270422528e+18
14070.0	1.615546351511142e+18
14071.0	1.61523209076736e+18
14072.0	1.6149184256147453e+18
14073.0	1.6146045624909821e+18
14074.0	1.614290778220134e+18
14075.0	1.6139770308591608e+18
14076.0	1.6136634126827515e+18
14077.0	1.6133433084346365e+18
14078.0	1.613035820652953e+18
14079.0	1.6127223266279421e+18
14080.0	1.612409528857395e+18
14081.0	1.612096242869862e+18
14082.0	1.611782539129651e+18
14083.0	1.6114697229041661e+18
14084.0	1.6111567741386747e+18
14085.0	1.610820843942707e+18
14086.0	1.6105297693114363e+18
14087.0	1.6102076685746179e+18
14088.0	1.609894758396723e+18
14089.0	1.6095820680003581e+18
14090.0	1.609269276940697e+18
14091.0	1.6089567929040893e+18
14092.0	1.6086442484695037e+18
14093.0	1.6083317744992253e+18
14094.0	1.608019370993254e+18
14095.0	1.6077070379515901e+18
14096.0	1.6073933895761915e+18
14097.0	1.6070825312518141e+18
14098.0	1.6067698240782333e+18
14099.0	1.6064584121057272e+18
14100.0	1.6061452804685821e+18
14101.0	1.605834529518387e+18
14102.0	1.605522664561049e+18
14103.0	1.605209454070988e+18
14104.0	1.6048992148258813e+18
14105.0	1.6045875394510843e+18
14106.0	1.6042760167489539e+18
14107.0	1.6039643849949181e+18
14108.0	1.6036531273727997e+18
14109.0	1.6032171496046592e+18
14110.0	1.6028883614695421e+18
14111.0	1.6025765300666365e+18
14112.0	1.602266497181286e+18
14113.0	1.6019556321460224e+18
14114.0	1.601644688257843e+18
14115.0	1.601333638673203e+18
14116.0	1.6010211227598848e+18
14117.0	1.600658129236787e+18
14118.0	1.6004015166849021e+18
14119.0	1.600090114778726e+18
14120.0	1.5997797077614592e+18
14121.0	1.599469542336102e+18
14122.0	1.599158061577011e+18
14123.0	1.5988482702835707e+18
14124.0	1.5985378615885821e+18
14125.0	1.5981865131311101e+18
14126.0	1.5979185306599424e+18
14127.0	1.5976084726087675e+18
14128.0	1.5972983591927805e+18
14129.0	1.5969885645438976e+18
14130.0	1.5966787212410875e+18
14131.0	1.5963689484025856e+18
14132.0	1.5960592191848443e+18
14133.0	1.5957002320609277e+18
14134.0	1.5954348869681147e+18
14135.0	1.595119201838694e+18
14136.0	1.5948093484695547e+18
14137.0	1.5945015167549437e+18
14138.0	1.5941916700966907e+18
14139.0	1.5938829726777341e+18
14140.0	1.5935729129488381e+18
14141.0	1.5932644873207803e+18
14142.0	1.592951335550976e+18
14143.0	1.5926459633762296e+18
14144.0	1.5923377860509693e+18
14145.0	1.5920289359593472e+18
14146.0	1.5917200019816448e+18
14147.0	1.591411356572057e+18
14148.0	1.5911027413614587e+18
14149.0	1.5907942620463101e+18
14150.0	1.5904857525321725e+18
14151.0	1.5901770869899264e+18
14152.0	1.5898689616740347e+18
14153.0	1.589560655164211e+18
14154.0	1.5892524325404672e+18
14155.0	1.5889369722257405e+18
14156.0	1.588634874963558e+18
14157.0	1.5883281606115323e+18
14158.0	1.5880198289358843e+18
14159.0	1.5877123327655933e+18
14160.0	1.5874037292990464e+18
14161.0	1.5870909113958397e+18
14162.0	1.586769620998553e+18
14163.0	1.5864714244390907e+18
14164.0	1.5861623394664443e+18
14165.0	1.585846598972211e+18
14166.0	1.5855488335871995e+18
14167.0	1.5852416930938875e+18
14168.0	1.5849341533028347e+18
14169.0	1.584627162126745e+18
14170.0	1.584319649179238e+18
14171.0	1.5840126194155515e+18
14172.0	1.5837058765422584e+18
14173.0	1.583393479747174e+18
14174.0	1.5830915217358843e+18
14175.0	1.5827852033261565e+18
14176.0	1.5824784503865341e+18
14177.0	1.5821717528117248e+18
14178.0	1.581864988128051e+18
14179.0	1.5815574835691515e+18
14180.0	1.581252108038963e+18
14181.0	1.58094569064366e+18
14182.0	1.5806392547934205e+18
14183.0	1.580333052146483e+18
14184.0	1.5800263663157248e+18
14185.0	1.579720683762483e+18
14186.0	1.5794034735841277e+18
14187.0	1.5791064396857341e+18
14188.0	1.5788025439059965e+18
14189.0	1.578496584528691e+18
14190.0	1.578190848288358e+18
14191.0	1.5778850952708093e+18
14192.0	1.5775787768610816e+18
14193.0	1.577268529227366e+18
14194.0	1.5769584577544187e+18
14195.0	1.5766531124232192e+18
14196.0	1.5763476513292285e+18
14197.0	1.5760422724435965e+18
14198.0	1.5757365278146557e+18
14199.0	1.5754314693738493e+18
14200.0	1.5751206932578301e+18
14201.0	1.5748210874122237e+18
14202.0	1.5745164349800443e+18
14203.0	1.5742102256222205e+18
14204.0	1.573906299643494e+18
14205.0	1.5736014777614333e+18
14206.0	1.5732860359016443e+18
14207.0	1.5729922416836605e+18
14208.0	1.5726876261613565e+18
14209.0	1.5723715450896381e+18
14210.0	1.5720698437697533e+18
14211.0	1.571774054740787e+18
14212.0	1.5714696556445693e+18
14213.0	1.5711653639225341e+18
14214.0	1.5708611141435392e+18
14215.0	1.570555825854873e+18
14216.0	1.5702529417412605e+18
14217.0	1.5699489016774656e+18
14218.0	1.5696449169784824e+18
14219.0	1.5693410027438077e+18
14220.0	1.5690371757506557e+18
14221.0	1.5687333554683904e+18
14222.0	1.5684296610152443e+18
14223.0	1.5681260303155197e+18
14224.0	1.5678224717578237e+18
14225.0	1.5675001076187133e+18
14226.0	1.567215415040409e+18
14227.0	1.5669121349844992e+18
14228.0	1.5665601624145915e+18
14229.0	1.566292825866239e+18
14230.0	1.565992674761113e+18
14231.0	1.565689528922931e+18
14232.0	1.565386446838169e+18
14233.0	1.5650834385731581e+18
14234.0	1.5647804940615683e+18
14235.0	1.5644773767446525e+18
14236.0	1.5641747795214333e+18
14237.0	1.5638719004409853e+18
14238.0	1.5635691975213053e+18
14239.0	1.5632661338914813e+18
14240.0	1.5628091091058685e+18
14241.0	1.5626615300030464e+18
14242.0	1.5623591357841405e+18
14243.0	1.5620426705141757e+18
14244.0	1.5617545167962107e+18
14245.0	1.5614508542197757e+18
14246.0	1.5611478845423613e+18
14247.0	1.5608479901286397e+18
14248.0	1.560544346007142e+18
14249.0	1.5602438157369341e+18
14250.0	1.5599418912800765e+18
14251.0	1.559640263779942e+18
14252.0	1.5593384785739773e+18
14253.0	1.5590367118229504e+18
14254.0	1.5587349081620477e+18
14255.0	1.5584303765258237e+18
14256.0	1.5581138391138301e+18
14257.0	1.557829607908966e+18
14258.0	1.5575291900461053e+18
14259.0	1.5572278628581373e+18
14260.0	1.5569260558417915e+18
14261.0	1.5566259835895805e+18
14262.0	1.5563405947568125e+18
14263.0	1.5560128484868093e+18
14264.0	1.5557324240322557e+18
14265.0	1.5554375745273853e+18
14266.0	1.555136688580198e+18
14267.0	1.5548358764527613e+18
14268.0	1.554535134789632e+18
14269.0	1.5542342001885181e+18
14270.0	1.5539276703858685e+18
14271.0	1.5536236169003005e+18
14272.0	1.5533232476913664e+18
14273.0	1.5530226838667264e+18
14274.0	1.552681420193792e+18
14275.0	1.552418407134003e+18
14276.0	1.552121064534835e+18
14277.0	1.551821086235033e+18
14278.0	1.5515214183137277e+18
14279.0	1.5512212286210043e+18
14280.0	1.550920713450291e+18
14281.0	1.5506213928173565e+18
14282.0	1.5503215369912315e+18
14283.0	1.5500217147195387e+18
14284.0	1.5497219897556992e+18
14285.0	1.5491448317149181e+18
14286.0	1.548635596233113e+18
14287.0	1.5483360625295357e+18
14288.0	1.548036481849753e+18
14289.0	1.5476380967895037e+18
14290.0	1.5474373322342395e+18
14291.0	1.5471380887764987e+18
14292.0	1.5468388604182525e+18
14293.0	1.546539410600755e+18
14294.0	1.5462278526664701e+18
14295.0	1.5459412827176957e+18
14296.0	1.5455626779951101e+18
14297.0	1.5453429837070333e+18
14298.0	1.5450283169546237e+18
14299.0	1.544745095738163e+18
14300.0	1.5444466525536253e+18
14301.0	1.5441478369148923e+18
14302.0	1.5438489390678013e+18
14303.0	1.5435474575294464e+18
14304.0	1.5432506903887872e+18
14305.0	1.542953279003033e+18
14306.0	1.542652715178393e+18
14307.0	1.542355763488358e+18
14308.0	1.5420583235813373e+18
14309.0	1.5417598971740157e+18
14310.0	1.5414514077925376e+18
14311.0	1.5411554023374848e+18
14312.0	1.5408626281742333e+18
14313.0	1.5405560899829757e+18
14314.0	1.5402695334559741e+18
14315.0	1.5399718586679293e+18
14316.0	1.539669347008512e+18
14317.0	1.5393753430753277e+18
14318.0	1.5390786463989757e+18
14319.0	1.5387735560814587e+18
14320.0	1.5384736868335613e+18
14321.0	1.5381761915617275e+18
14322.0	1.537875228439347e+18
14323.0	1.5375794880643067e+18
14324.0	1.5372839624376315e+18
14325.0	1.5369866701701115e+18
14326.0	1.5366894466891776e+18
14327.0	1.5363922634735613e+18
14328.0	1.5360945450647547e+18
14329.0	1.5357981101129725e+18
14330.0	1.5355011231907837e+18
14331.0	1.535204169823027e+18
14332.0	1.5349073288626173e+18
14333.0	1.5346105164234747e+18
14334.0	1.5343137744486397e+18
14335.0	1.5340155560787965e+18
14336.0	1.5337185490239485e+18
14337.0	1.5334238438031357e+18
14338.0	1.5331271890698235e+18
14339.0	1.5328307440517115e+18
14340.0	1.5325345355923453e+18
14341.0	1.5322380872187896e+18
14342.0	1.5319419542568957e+18
14343.0	1.531645351532953e+18
14344.0	1.5313493745991675e+18
14345.0	1.5310535352385533e+18
14346.0	1.530757259670323e+18
14347.0	1.5304599606919165e+18
14348.0	1.5301656027594747e+18
14349.0	1.5298697885646843e+18
14350.0	1.529572524818432e+18
14351.0	1.529276720689971e+18
14352.0	1.5289825993162747e+18
14353.0	1.5286869881257984e+18
14354.0	1.5283911504429056e+18
14355.0	1.5280954083901437e+18
14356.0	1.5278000958341115e+18
14357.0	1.5275051322441725e+18
14358.0	1.5272098062663675e+18
14359.0	1.5269144970657792e+18
14360.0	1.526619192898355e+18
14361.0	1.5263241588441085e+18
14362.0	1.5260290862022653e+18
14363.0	1.5257339917500413e+18
14364.0	1.525434612396851e+18
14365.0	1.5251431468564477e+18
14366.0	1.5248484349247485e+18
14367.0	1.5245545215885307e+18
14368.0	1.524259745903411e+18
14369.0	1.5239651228909565e+18
14370.0	1.523670511622553e+18
14371.0	1.5233759691407357e+18
14372.0	1.5230814568579072e+18
14373.0	1.5227870066507776e+18
14374.0	1.5224906438410235e+18
14375.0	1.5221887512608763e+18
14376.0	1.5218944587595776e+18
14377.0	1.5216001645805565e+18
14378.0	1.5213057831600125e+18
14379.0	1.521011928544051e+18
14380.0	1.5207178323361787e+18
14381.0	1.5204236019105787e+18
14382.0	1.5201297590386688e+18
14383.0	1.5198353155424253e+18
14384.0	1.5195420649062397e+18
14385.0	1.5192483948396544e+18
14386.0	1.518954659341926e+18
14387.0	1.5186609825644544e+18
14388.0	1.5183672068014077e+18
14389.0	1.5180737732935677e+18
14390.0	1.5177801401368573e+18
14391.0	1.5174868861452285e+18
14392.0	1.517193289898393e+18
14393.0	1.5169002171006976e+18
14394.0	1.5166069480095741e+18
14395.0	1.5163136017432576e+18
14396.0	1.5160205591445501e+18
14397.0	1.515727457825587e+18
14398.0	1.5154342944309243e+18
14399.0	1.5151414028271613e+18
14400.0	1.5148466590187515e+18
14401.0	1.5145549552418813e+18
14402.0	1.5142626239971323e+18
14403.0	1.513770960971366e+18
14404.0	1.5130582681911288e+18
14405.0	1.5132128266158077e+18
14406.0	1.5130918897319936e+18
14407.0	1.5125290091020285e+18
14408.0	1.5125049438633981e+18
14409.0	1.5122124951781376e+18
14410.0	1.5119216336175101e+18
14411.0	1.5116296026849275e+18
14412.0	1.5113370566918141e+18
14413.0	1.5110452002422781e+18
14414.0	1.510752778400563e+18
14415.0	1.5104607608897536e+18
14416.0	1.5101688171986941e+18
14417.0	1.5098764641435643e+18
14418.0	1.509583107810918e+18
14419.0	1.5092927176900605e+18
14420.0	1.5090005055635453e+18
14421.0	1.508709135653273e+18
14422.0	1.5084173765115904e+18
14423.0	1.5081250519777272e+18
14424.0	1.5067106689155062e+18
14425.0	1.5075417736085501e+18
14426.0	1.5072508935929856e+18
14427.0	1.5069594263748603e+18
14428.0	1.5066679222468603e+18
14429.0	1.5063765892464637e+18
14430.0	1.5060852361134077e+18
14431.0	1.5057856067796992e+18
14432.0	1.5055019241897981e+18
14433.0	1.5050074979565565e+18
14434.0	1.5049189645877243e+18
14435.0	1.5046273530855421e+18
14436.0	1.5043382548103163e+18
14437.0	1.504047269098291e+18
14438.0	1.5037505422229501e+18
14439.0	1.5034547146063867e+18
14440.0	1.5031652002562043e+18
14441.0	1.502873434403635e+18
14442.0	1.5025821836115963e+18
14443.0	1.502287530400153e+18
14444.0	1.5020018295111675e+18
14445.0	1.5017117246029821e+18
14446.0	1.5011495905591293e+18
14447.0	1.5011290250477563e+18
14448.0	1.5008402623168507e+18
14449.0	1.5005498688405501e+18
14450.0	1.5002594871083005e+18
14451.0	1.4999691791958013e+18
14452.0	1.499678738743296e+18
14453.0	1.499385493140275e+18
14454.0	1.4990985490595837e+18
14455.0	1.498807927413145e+18
14456.0	1.4985176782209021e+18
14457.0	1.4982273501757437e+18
14458.0	1.4979382418341885e+18
14459.0	1.497648157058662e+18
14460.0	1.497358456481382e+18
14461.0	1.4970667761926144e+18
14462.0	1.4967715240345597e+18
14463.0	1.4964888044568573e+18
14464.0	1.4961995887411197e+18
14465.0	1.4959075712303101e+18
14466.0	1.4956204677660672e+18
14467.0	1.495328049279795e+18
14468.0	1.4950410884218875e+18
14469.0	1.494582796956467e+18
14470.0	1.4938850191212544e+18
14471.0	1.4935970717630464e+18
14472.0	1.4933087670501376e+18
14473.0	1.493019502680473e+18
14474.0	1.4927301846237181e+18
14475.0	1.4924404622360573e+18
14476.0	1.4921386048880637e+18
14477.0	1.4918623009177597e+18
14478.0	1.4915731338559485e+18
14479.0	1.491283817476915e+18
14480.0	1.490994054823936e+18
14481.0	1.4907059279495168e+18
14482.0	1.4904165478170627e+18
14483.0	1.4901269864906744e+18
14484.0	1.4898379385470968e+18
14485.0	1.4895467699634176e+18
14486.0	1.4892322978267136e+18
14487.0	1.4889726066556925e+18
14488.0	1.4886838774792192e+18
14489.0	1.4883944554037245e+18
14490.0	1.4881062597427195e+18
14491.0	1.487817820812083e+18
14492.0	1.487529442279424e+18
14493.0	1.4872408724865021e+18
14494.0	1.486952401679155e+18
14495.0	1.4866640164356093e+18
14496.0	1.4863626003283963e+18
14497.0	1.486087150318387e+18
14498.0	1.4857989563351037e+18
14499.0	1.485510750607769e+18
14500.0	1.4852225146814464e+18
14501.0	1.4849291566710781e+18
14502.0	1.4846202260488187e+18
14503.0	1.4843566173978621e+18
14504.0	1.4840694736683005e+18
14505.0	1.4837767011827707e+18
14506.0	1.4834832072769536e+18
14507.0	1.4831822726758397e+18
14508.0	1.4829183251251197e+18
14509.0	1.4826304381648893e+18
14510.0	1.4823425814036477e+18
14511.0	1.4820547430973437e+18
14512.0	1.481765428396032e+18
14513.0	1.4814791486930941e+18
14514.0	1.4811877687164925e+18
14515.0	1.480903644885811e+18
14516.0	1.4803602241486845e+18
14517.0	1.480318646851993e+18
14518.0	1.4800311038246904e+18
14519.0	1.479743500399411e+18
14520.0	1.4794559204622336e+18
14521.0	1.479168184496947e+18
14522.0	1.4788808394407936e+18
14523.0	1.4785810456903675e+18
14524.0	1.4782933248245757e+18
14525.0	1.4780179738001405e+18
14526.0	1.4777311471599613e+18
14527.0	1.4774407520059392e+18
14528.0	1.4771437348847613e+18
14529.0	1.476868053349171e+18
14530.0	1.476580517032755e+18
14531.0	1.4762945896513536e+18
14532.0	1.4759895345659901e+18
14533.0	1.4757201662967803e+18
14534.0	1.4754333212016637e+18
14535.0	1.4751461707612157e+18
14536.0	1.4748591562162173e+18
14537.0	1.474570995787366e+18
14538.0	1.4742851975905275e+18
14539.0	1.473998258543001e+18
14540.0	1.473711361438515e+18
14541.0	1.4734240348372992e+18
14542.0	1.4731376108503037e+18
14543.0	1.4728432847945725e+18
14544.0	1.4725639357595648e+18
14545.0	1.4722770738872323e+18
14546.0	1.470377171615743e+18
14547.0	1.4702384609492982e+18
14548.0	1.4714160503848957e+18
14549.0	1.4711190903062525e+18
14550.0	1.4708436369407995e+18
14551.0	1.4705570049163264e+18
14552.0	1.4702701078118395e+18
14553.0	1.4699827761774592e+18
14554.0	1.469697023279104e+18
14555.0	1.4694103342120957e+18
14556.0	1.4691234689843197e+18
14557.0	1.468837194314547e+18
14558.0	1.4685505908113403e+18
14559.0	1.4680778826842104e+18
14560.0	1.4679770683932672e+18
14561.0	1.4676903289946107e+18
14562.0	1.4674043277934592e+18
14563.0	1.4671180413796347e+18
14564.0	1.4668308775174141e+18
14565.0	1.4665451900502016e+18
14566.0	1.466258762707763e+18
14567.0	1.4659722967777275e+18
14568.0	1.4656850825838587e+18
14569.0	1.465399475647283e+18
14570.0	1.4650614852091904e+18
14571.0	1.4648263944699901e+18
14572.0	1.4645363466043387e+18
14573.0	1.464250627260416e+18
14574.0	1.4639658105307136e+18
14575.0	1.4636811598954493e+18
14576.0	1.4633948281831421e+18
14577.0	1.4631086961197053e+18
14578.0	1.462822205023846e+18
14579.0	1.4625361249697787e+18
14580.0	1.4622498737881085e+18
14581.0	1.4619632014983163e+18
14582.0	1.4614545498636288e+18
14583.0	1.460715870853529e+18
14584.0	1.4604281415991293e+18
14585.0	1.460142658813952e+18
14586.0	1.4598557231218685e+18
14587.0	1.4595692269928448e+18
14588.0	1.4592836099899392e+18
14589.0	1.4590039203774464e+18
14590.0	1.4587252994736128e+18
14591.0	1.458446577906483e+18
14592.0	1.458167874794291e+18
14593.0	1.457877875582566e+18
14594.0	1.4576105088352253e+18
14595.0	1.4573312017432573e+18
14596.0	1.4570477087358973e+18
14597.0	1.4567688328183808e+18
14598.0	1.456494719952486e+18
14599.0	1.4562164966686715e+18
14600.0	1.4559375804858365e+18
14601.0	1.4556589612597248e+18
14602.0	1.4553795803480064e+18
14603.0	1.4551011523821563e+18
14604.0	1.4548179865305088e+18
14605.0	1.4545421724549115e+18
14606.0	1.4542576392601597e+18
14607.0	1.4539775067291645e+18
14608.0	1.4536967081426941e+18
14609.0	1.4534167970709501e+18
14610.0	1.4531365269667835e+18
14611.0	1.4528590955675645e+18
14612.0	1.4525803840667645e+18
14613.0	1.4523012783013888e+18
14614.0	1.4520217279397885e+18
14615.0	1.451742813434675e+18
14616.0	1.4514636170723325e+18
14617.0	1.4511843032694781e+18
14618.0	1.4509048854478845e+18
14619.0	1.4506222363344893e+18
14620.0	1.4503354432487421e+18
14621.0	1.4500666353385472e+18
14622.0	1.4497871453749245e+18
14623.0	1.4495076168237053e+18
14624.0	1.4492224192511997e+18
14625.0	1.4489484271812603e+18
14626.0	1.4486684573892603e+18
14627.0	1.4483882661380093e+18
14628.0	1.448109380154163e+18
14629.0	1.4478296167219197e+18
14630.0	1.4475496855175163e+18
14631.0	1.4472698650427392e+18
14632.0	1.4469022191976445e+18
14633.0	1.4466971848409085e+18
14634.0	1.4464296855535616e+18
14635.0	1.4461380321083392e+18
14636.0	1.445844799927091e+18
14637.0	1.4455897677889536e+18
14638.0	1.4453091252305915e+18
14639.0	1.4450277310529536e+18
14640.0	1.4447479038672893e+18
14641.0	1.4441170453135355e+18
14642.0	1.4441864425897981e+18
14643.0	1.4439061238317053e+18
14644.0	1.4436252380037115e+18
14645.0	1.4433421728153597e+18
14646.0	1.4430628405575677e+18
