# Flux units: erg / (cm m2 s)
# Wavelength units: Angstrom
wave	flux
14000.0	1.6839902289199094e+18
14001.0	1.6836135250558976e+18
14002.0	1.6834624529367032e+18
14003.0	1.68315505910743e+18
14004.0	1.6828428753829885e+18
14005.0	1.682530547374489e+18
14006.0	1.6822090606837752e+18
14007.0	1.6818960615866365e+18
14008.0	1.6814790236176384e+18
14009.0	1.6812797824335867e+18
14010.0	1.6809554385829885e+18
14011.0	1.6799050590322685e+18
14012.0	1.6803453888102397e+18
14013.0	1.680033946638745e+18
14014.0	1.67971602342871e+18
14015.0	1.6794078830133243e+18
14016.0	1.6790988701827067e+18
14017.0	1.6787873944567803e+18
14018.0	1.6784708922769403e+18
14019.0	1.6781644430049275e+18
14020.0	1.6778523045789693e+18
14021.0	1.677540174541619e+18
14022.0	1.6772149935079424e+18
14023.0	1.6768773872680957e+18
14024.0	1.676571953017651e+18
14025.0	1.676293929382707e+18
14026.0	1.6759840391036925e+18
14027.0	1.6756753181966328e+18
14028.0	1.6753578211278843e+18
14029.0	1.675049266315264e+18
14030.0	1.6709881666994207e+18
14031.0	1.6743128555847672e+18
14032.0	1.6741174849044477e+18
14033.0	1.673729112486707e+18
14034.0	1.673494909262233e+18
14035.0	1.673190427957657e+18
14036.0	1.6728712246460416e+18
14037.0	1.6725692817342456e+18
14038.0	1.6722604870074365e+18
14039.0	1.6719460836573181e+18
14040.0	1.6716321165148157e+18
14041.0	1.6713265681793021e+18
14042.0	1.671006463931187e+18
14043.0	1.6706633245655037e+18
14044.0	1.6703837440049147e+18
14045.0	1.6700841213820923e+18
14046.0	1.6697778835030013e+18
14047.0	1.6694513770692603e+18
14048.0	1.6691549555392507e+18
14049.0	1.6688537407586304e+18
14050.0	1.66854457861079e+18
14051.0	1.6682255514599424e+18
14052.0	1.6679224794415096e+18
14053.0	1.6676167532675067e+18
14054.0	1.6673081464455168e+18
14055.0	1.6669991822688253e+18
14056.0	1.6666902701015035e+18
14057.0	1.6663815038959613e+18
14058.0	1.666072720913203e+18
14059.0	1.665759745304166e+18
14060.0	1.665455490492006e+18
14061.0	1.6651387785969661e+18
14062.0	1.664838436231577e+18
14063.0	1.6645122468872187e+18
14064.0	1.6634567838400512e+18
14065.0	1.6639031500603387e+18
14066.0	1.6636048360603643e+18
14067.0	1.6632595794100221e+18
14068.0	1.6629890837118979e+18
14069.0	1.6626724355702781e+18
14070.0	1.6623708080701435e+18
14071.0	1.662061828793958e+18
14072.0	1.6617574649298941e+18
14073.0	1.661449754011238e+18
14074.0	1.661142096779673e+18
14075.0	1.6608127499632637e+18
14076.0	1.6604855573413888e+18
14077.0	1.6593518487142403e+18
14078.0	1.659849657234227e+18
14079.0	1.6595936385957885e+18
14080.0	1.659297661662003e+18
14081.0	1.6589905362681853e+18
14082.0	1.6586795873468413e+18
14083.0	1.6583736162254848e+18
14084.0	1.658068856419123e+18
14085.0	1.6570896844062715e+18
14086.0	1.6573859230646267e+18
14087.0	1.657145606222643e+18
14088.0	1.6568186619035648e+18
14089.0	1.6565057164935163e+18
14090.0	1.6562131990216704e+18
14091.0	1.6559223894704123e+18
14092.0	1.65561609790423e+18
14093.0	1.6553097224519677e+18
14094.0	1.6550033503551485e+18
14095.0	1.6546967366664192e+18
14096.0	1.6542218609229821e+18
14097.0	1.6540480539983872e+18
14098.0	1.6537021413588992e+18
14099.0	1.653472627366297e+18
14100.0	1.6531524962746363e+18
14101.0	1.6528613947998205e+18
14102.0	1.6525554186452984e+18
14103.0	1.6522311402258432e+18
14104.0	1.6519413440184315e+18
14105.0	1.6516384129286141e+18
14106.0	1.6513331615498237e+18
14107.0	1.6510228921057277e+18
14108.0	1.6507039270305787e+18
14109.0	1.6504108139675648e+18
14110.0	1.6501042472550397e+18
14111.0	1.6497946455441403e+18
14112.0	1.6494912967016448e+18
14113.0	1.6490162481528832e+18
14114.0	1.648482170647347e+18
14115.0	1.6481864604712952e+18
14116.0	1.647786887584153e+18
14117.0	1.641173666391655e+18
14118.0	1.6472743084031997e+18
14119.0	1.64687030297559e+18
14120.0	1.646583384060723e+18
14121.0	1.6463419213348861e+18
14122.0	1.6459080574959616e+18
14123.0	1.6456774412402685e+18
14124.0	1.6453507469017085e+18
14125.0	1.6446201729646587e+18
14126.0	1.6448274554683387e+18
14127.0	1.644540263084851e+18
14128.0	1.6442350419050493e+18
14129.0	1.64391966212096e+18
14130.0	1.643607240160051e+18
14131.0	1.643325520504422e+18
14132.0	1.6430159372484603e+18
14133.0	1.6421019145207798e+18
14134.0	1.6424105498640381e+18
14135.0	1.642077384553267e+18
14136.0	1.6416585732325376e+18
14137.0	1.641491040986726e+18
14138.0	1.6411258379042813e+18
14139.0	1.6408971057299456e+18
14140.0	1.6405865594617853e+18
14141.0	1.6402607459270653e+18
14142.0	1.639495191494656e+18
14143.0	1.639678920464793e+18
14144.0	1.6393827556261885e+18
14145.0	1.6390784857145341e+18
14146.0	1.638765728209305e+18
14147.0	1.6384677598199803e+18
14148.0	1.6381540040703997e+18
14149.0	1.6378547706789888e+18
14150.0	1.6375677880107003e+18
14151.0	1.6372393958178813e+18
14152.0	1.6369631539232763e+18
14153.0	1.63666073789399e+18
14154.0	1.6363316343472125e+18
14155.0	1.635461572958617e+18
14156.0	1.6356496925261816e+18
14157.0	1.635451858950553e+18
14158.0	1.6351445238415357e+18
14159.0	1.6348482986049539e+18
14160.0	1.6345374117593085e+18
14161.0	1.6341799832387581e+18
14162.0	1.6338235076640765e+18
14163.0	1.6336359769767933e+18
14164.0	1.6331380946370557e+18
14165.0	1.6329535066734592e+18
14166.0	1.6327351461740541e+18
14167.0	1.6324204878102525e+18
14168.0	1.6321184995999741e+18
14169.0	1.631833498320896e+18
14170.0	1.6315200361725947e+18
14171.0	1.631226626152857e+18
14172.0	1.630930348906905e+18
14173.0	1.6305779652952061e+18
14174.0	1.6303187069763581e+18
14175.0	1.6300263455326205e+18
14176.0	1.6297246710562813e+18
14177.0	1.6294253437124603e+18
14178.0	1.6291245047414781e+18
14179.0	1.6288147486801915e+18
14180.0	1.628524731013529e+18
14181.0	1.628224294695731e+18
14182.0	1.627922950730547e+18
14183.0	1.6276235478892541e+18
14184.0	1.6273173720858624e+18
14185.0	1.6270219588665344e+18
14186.0	1.625580089691341e+18
14187.0	1.6263928149442552e+18
14188.0	1.6261183078137853e+18
14189.0	1.6258121856974848e+18
14190.0	1.625513856598016e+18
14191.0	1.6252089877397504e+18
14192.0	1.6249137607475197e+18
14193.0	1.6244291525410813e+18
14194.0	1.624313045817753e+18
14195.0	1.6240249256542205e+18
14196.0	1.623725232567091e+18
14197.0	1.6234258364366843e+18
14198.0	1.6231207964508157e+18
14199.0	1.6228242390253565e+18
14200.0	1.6217960255324163e+18
14201.0	1.6221792003686395e+18
14202.0	1.621925723478425e+18
14203.0	1.6216187121696763e+18
14204.0	1.6213287532232696e+18
14205.0	1.621030038247833e+18
14206.0	1.6205913794805757e+18
14207.0	1.6204350795808765e+18
14208.0	1.6201369518079997e+18
14209.0	1.6196891209367544e+18
14210.0	1.6194085052219387e+18
14211.0	1.619213268759347e+18
14212.0	1.6189191574519803e+18
14213.0	1.6186135889838077e+18
14214.0	1.6183222274621437e+18
14215.0	1.6180055424106493e+18
14216.0	1.6177266128060413e+18
14217.0	1.6174287903784957e+18
14218.0	1.6171181904232443e+18
14219.0	1.6168325532876797e+18
14220.0	1.6165270619947003e+18
14221.0	1.616226285099417e+18
14222.0	1.6158715526774784e+18
14223.0	1.6156378376699901e+18
14224.0	1.6153425234362365e+18
14225.0	1.612708109615106e+18
14226.0	1.6147342705033216e+18
14227.0	1.614449311167283e+18
14228.0	1.6081075637846031e+18
14229.0	1.6124221772005327e+18
14230.0	1.6135351458332672e+18
14231.0	1.6131761771642877e+18
14232.0	1.6129408800653307e+18
14233.0	1.612638764348211e+18
14234.0	1.612346731737907e+18
14235.0	1.6120466242535421e+18
14236.0	1.6117524458373115e+18
14237.0	1.6114517142405115e+18
14238.0	1.6111556802641915e+18
14239.0	1.610844592091955e+18
14240.0	1.6086051592339456e+18
14241.0	1.6102503682670587e+18
14242.0	1.609962885637734e+18
14243.0	1.6094976282722307e+18
14244.0	1.609377884248473e+18
14245.0	1.6090629792595965e+18
14246.0	1.6087620496916477e+18
14247.0	1.6084812980813824e+18
14248.0	1.6081498390134781e+18
14249.0	1.607871845577523e+18
14250.0	1.6075753317728253e+18
14251.0	1.6072819116867581e+18
14252.0	1.6069856059195387e+18
14253.0	1.6066884747132925e+18
14254.0	1.6063903972720635e+18
14255.0	1.6060556515475453e+18
14256.0	1.60351563640996e+18
14257.0	1.605377654049996e+18
14258.0	1.6052090296074237e+18
14259.0	1.6048927925075965e+18
14260.0	1.6045416520876032e+18
14261.0	1.6043015030177792e+18
14262.0	1.6040443535949821e+18
14263.0	1.6004480885587988e+18
14264.0	1.6027689848668147e+18
14265.0	1.6031511362928635e+18
14266.0	1.6028637409050621e+18
14267.0	1.602570637908377e+18
14268.0	1.6022728758788093e+18
14269.0	1.601970485015347e+18
14270.0	1.6016799338332157e+18
14271.0	1.6013673273229307e+18
14272.0	1.601072635523891e+18
14273.0	1.6007723736891392e+18
14274.0	1.5954240757301266e+18
14275.0	1.5997211569553405e+18
14276.0	1.599874968793907e+18
14277.0	1.5995813054382077e+18
14278.0	1.5993043857440765e+18
14279.0	1.599008568193843e+18
14280.0	1.5987077292228603e+18
14281.0	1.5984212582596603e+18
14282.0	1.598127197283942e+18
14283.0	1.5978328208965632e+18
14284.0	1.5975383975329787e+18
14285.0	1.5972431873179643e+18
14286.0	1.5969402662944768e+18
14287.0	1.596655546872627e+18
14288.0	1.5963613265133563e+18
14289.0	1.5948112526835697e+18
14290.0	1.595771832185651e+18
14291.0	1.5954787358998523e+18
14292.0	1.5951860405895163e+18
14293.0	1.5948895435620347e+18
14294.0	1.594439139065856e+18
14295.0	1.594289254773555e+18
14296.0	1.592977833485927e+18
14297.0	1.5936931971989496e+18
14298.0	1.5926566521405435e+18
14299.0	1.5930856824635392e+18
14300.0	1.5928078484111357e+18
14301.0	1.5925191762771965e+18
14302.0	1.5922272460079101e+18
14303.0	1.5918977750401021e+18
14304.0	1.5916215297900541e+18
14305.0	1.591346108301312e+18
14306.0	1.5910027759976448e+18
14307.0	1.590724910068531e+18
14308.0	1.5904579459743741e+18
14309.0	1.5901466866745341e+18
14310.0	1.5896755270844416e+18
14311.0	1.5886354839764992e+18
14312.0	1.5891267930030075e+18
14313.0	1.5888223435751421e+18
14314.0	1.5886744859705341e+18
14315.0	1.5884127043584e+18
14316.0	1.5880663789993981e+18
14317.0	1.5877496704598013e+18
14318.0	1.5875439817916416e+18
14319.0	1.5872532863254528e+18
14320.0	1.5869607554318333e+18
14321.0	1.586666600503705e+18
14322.0	1.5863335257899005e+18
14323.0	1.5860575305203707e+18
14324.0	1.585771898417971e+18
14325.0	1.585471359759155e+18
14326.0	1.5851895562174464e+18
14327.0	1.5848905962946557e+18
14328.0	1.584598062045593e+18
14329.0	1.5843141730959357e+18
14330.0	1.5840223871107072e+18
14331.0	1.5837242274611197e+18
14332.0	1.5834391288741888e+18
14333.0	1.5831476079689725e+18
14334.0	1.5828560988078075e+18
14335.0	1.5821688973295616e+18
14336.0	1.581566108735897e+18
14337.0	1.5815122085740541e+18
14338.0	1.5812204477546493e+18
14339.0	1.580917444522803e+18
14340.0	1.5806404761747453e+18
14341.0	1.580334397679206e+18
14342.0	1.580058081964851e+18
14343.0	1.5797649789681664e+18
14344.0	1.5794699700797437e+18
14345.0	1.5791862740680704e+18
14346.0	1.5788877671301123e+18
14347.0	1.5784908098109437e+18
14348.0	1.578311441239245e+18
14349.0	1.5780251112046587e+18
14350.0	1.5775483245363195e+18
14351.0	1.5772386003517435e+18
14352.0	1.57714395168768e+18
14353.0	1.576861617985945e+18
14354.0	1.576549793293926e+18
14355.0	1.5762113129611264e+18
14356.0	1.575921515075993e+18
14357.0	1.5756833792720893e+18
14358.0	1.575392950563635e+18
14359.0	1.575087940776755e+18
14360.0	1.574796810780672e+18
14361.0	1.5745162403643387e+18
14362.0	1.5742334721327101e+18
14363.0	1.5739430585237501e+18
14364.0	1.5730939502002176e+18
14365.0	1.5732398129938424e+18
14366.0	1.572963079526809e+18
14367.0	1.572785673889382e+18
14368.0	1.572495537104486e+18
14369.0	1.572087880954675e+18
14370.0	1.5715966172266493e+18
14371.0	1.5713078310076413e+18
14372.0	1.5710108356968443e+18
14373.0	1.5707229168599037e+18
14374.0	1.5704384876838907e+18
14375.0	1.5701470120771584e+18
14376.0	1.569860848137011e+18
14377.0	1.569570837181235e+18
14378.0	1.5692792055463933e+18
14379.0	1.5689932295110653e+18
14380.0	1.568702440092467e+18
14381.0	1.5684027587493885e+18
14382.0	1.5681242217316347e+18
14383.0	1.5678309811617787e+18
14384.0	1.5675281289248763e+18
14385.0	1.5672593780572152e+18
14386.0	1.5669516302286848e+18
14387.0	1.566681587515392e+18
14388.0	1.5663907427319803e+18
14389.0	1.5661040503095293e+18
14390.0	1.5658134437625853e+18
14391.0	1.5655271321829376e+18
14392.0	1.5652258687483901e+18
14393.0	1.564930027710054e+18
14394.0	1.5645996994265088e+18
14395.0	1.5643312237051904e+18
14396.0	1.5640643065872381e+18
14397.0	1.5637768843558907e+18
14398.0	1.5634877810475003e+18
14399.0	1.5631997984571387e+18
14400.0	1.562885326320435e+18
14401.0	1.5626159161081853e+18
14402.0	1.562334072301158e+18
14403.0	1.5604361447079913e+18
14404.0	1.5557735919648748e+18
14405.0	1.559284046574383e+18
14406.0	1.5611824858726397e+18
14407.0	1.5586494181801992e+18
14408.0	1.5605523940376568e+18
14409.0	1.560296053276672e+18
14410.0	1.5599881729081341e+18
14411.0	1.5597424353476603e+18
14412.0	1.5594536994603005e+18
14413.0	1.5591710251810816e+18
14414.0	1.5588805645959165e+18
14415.0	1.5585944811864056e+18
14416.0	1.5582927446343672e+18
14417.0	1.5579775460442107e+18
14418.0	1.5576508080848893e+18
14419.0	1.5574440121204733e+18
14420.0	1.5571524996038653e+18
14421.0	1.5568708906778621e+18
14422.0	1.5565785745326077e+18
14423.0	1.556271492759552e+18
14424.0	1.5467759710240722e+18
14425.0	1.5557119625396221e+18
14426.0	1.5554362306723835e+18
14427.0	1.555148784952934e+18
14428.0	1.5548401730977792e+18
14429.0	1.5545702209814525e+18
14430.0	1.5542893334757373e+18
14431.0	1.5529622942777341e+18
14432.0	1.5537099037999096e+18
14433.0	1.551715089462066e+18
14434.0	1.5531023437660157e+18
14435.0	1.5527009237073915e+18
14436.0	1.5525497492471805e+18
14437.0	1.552264363769856e+18
14438.0	1.5518381687963643e+18
14439.0	1.5516706701049853e+18
14440.0	1.5514046119804928e+18
14441.0	1.551105883583283e+18
14442.0	1.5508129752023037e+18
14443.0	1.5504767732154365e+18
14444.0	1.550254028829491e+18
14445.0	1.5499739902509053e+18
14446.0	1.5471276365709322e+18
14447.0	1.5493849321308157e+18
14448.0	1.5491166678024187e+18
14449.0	1.5488308830273533e+18
14450.0	1.548539055099084e+18
14451.0	1.5482569965436925e+18
14452.0	1.5479711966691325e+18
14453.0	1.5476600095113213e+18
14454.0	1.5473978000801792e+18
14455.0	1.5471038733221885e+18
14456.0	1.5468131594010621e+18
14457.0	1.5465328490315776e+18
14458.0	1.546249629492838e+18
14459.0	1.5459603584122875e+18
14460.0	1.545663067822489e+18
14461.0	1.5452618943889403e+18
14462.0	1.5442395512438784e+18
14463.0	1.5447718419759101e+18
14464.0	1.5445303238852605e+18
14465.0	1.5442225676681213e+18
14466.0	1.543969157886771e+18
14467.0	1.5436494277705725e+18
14468.0	1.5433980983640064e+18
14469.0	1.5430132088963067e+18
14470.0	1.542796495919513e+18
14471.0	1.5425360598401021e+18
14472.0	1.542256519544832e+18
14473.0	1.5419767292690432e+18
14474.0	1.5416957863985147e+18
14475.0	1.5414068877721597e+18
14476.0	1.5410159450849277e+18
14477.0	1.5408373633646592e+18
14478.0	1.5405548283363325e+18
14479.0	1.540266149491507e+18
14480.0	1.5399661275709437e+18
14481.0	1.539704758678323e+18
14482.0	1.5393594600849405e+18
14483.0	1.5388285585063933e+18
14484.0	1.5385430639771643e+18
14485.0	1.538228887119462e+18
14486.0	1.537619823847014e+18
14487.0	1.5376956988063744e+18
14488.0	1.5373499354841088e+18
14489.0	1.537035587498803e+18
14490.0	1.5368272027320315e+18
14491.0	1.5365649748459515e+18
14492.0	1.5362810003324925e+18
14493.0	1.535980043920998e+18
14494.0	1.5356844075646976e+18
14495.0	1.5354301874438141e+18
14496.0	1.5349815579770877e+18
14497.0	1.5348611529310205e+18
14498.0	1.534578745409536e+18
14499.0	1.5342952037482493e+18
14500.0	1.5340109456998397e+18
14501.0	1.5336760288477181e+18
14502.0	1.5331011239870467e+18
14503.0	1.5331199832555515e+18
14504.0	1.5328682914611197e+18
14505.0	1.532547086627635e+18
14506.0	1.5322167734435835e+18
14507.0	1.5317212768239613e+18
14508.0	1.5317413289525248e+18
14509.0	1.5314578980208635e+18
14510.0	1.531170167088742e+18
14511.0	1.530890333192192e+18
14512.0	1.5305881671434237e+18
14513.0	1.5303235552149501e+18
14514.0	1.5299972534632443e+18
14515.0	1.5297553662738432e+18
14516.0	1.526247325905717e+18
14517.0	1.5291872645742584e+18
14518.0	1.5289061790973947e+18
14519.0	1.5286204647866365e+18
14520.0	1.5283383760322557e+18
14521.0	1.528054877991731e+18
14522.0	1.5277662763220987e+18
14523.0	1.5272989184491512e+18
14524.0	1.5270983954857981e+18
14525.0	1.5269163677253632e+18
14526.0	1.5266340357013504e+18
14527.0	1.5263200819806205e+18
14528.0	1.525898267538227e+18
14529.0	1.5257762351022075e+18
14530.0	1.5254860110757885e+18
14531.0	1.525221186076672e+18
14532.0	1.5247922010521597e+18
14533.0	1.5246562770812923e+18
14534.0	1.5243756965986304e+18
14535.0	1.5240798958256125e+18
14536.0	1.5238052712546296e+18
14537.0	1.5235117521829888e+18
14538.0	1.5232438569533437e+18
14539.0	1.5229424374906883e+18
14540.0	1.5226588975071232e+18
14541.0	1.5223501648560125e+18
14542.0	1.5220907907743741e+18
14543.0	1.5217330367758336e+18
14544.0	1.5215264287162368e+18
14545.0	1.5212305021140984e+18
14546.0	1.5086090041950154e+18
14547.0	1.50936439498997e+18
14548.0	1.5203777984331768e+18
14549.0	1.5199634817286144e+18
14550.0	1.5198203653652477e+18
14551.0	1.519547846334873e+18
14552.0	1.5192628098236416e+18
14553.0	1.5189712469753853e+18
14554.0	1.5187000785108987e+18
14555.0	1.5184169780903936e+18
14556.0	1.5181320707637248e+18
14557.0	1.5178517704605693e+18
14558.0	1.5175677003169792e+18
14559.0	1.514883740021552e+18
14560.0	1.5169706763747323e+18
14561.0	1.516711449932595e+18
14562.0	1.5163891042484221e+18
14563.0	1.516149320921907e+18
14564.0	1.5157779824115712e+18
14565.0	1.515590597686067e+18
14566.0	1.515308106278502e+18
14567.0	1.515020873629696e+18
14568.0	1.5146557879877632e+18
14569.0	1.5144581507055613e+18
14570.0	1.513460183177625e+18
14571.0	1.5138899684753405e+18
14572.0	1.5135235171680253e+18
14573.0	1.513259240783872e+18
14574.0	1.5127999175196672e+18
14575.0	1.5123043571466237e+18
14576.0	1.5120133362024443e+18
14577.0	1.5117546030104573e+18
14578.0	1.5114707509706747e+18
14579.0	1.5111956146946043e+18
14580.0	1.5109116485697536e+18
14581.0	1.5106171731967997e+18
14582.0	1.510332884949401e+18
14583.0	1.5100639864422395e+18
14584.0	1.5097309301833725e+18
14585.0	1.5094987033149437e+18
14586.0	1.509212762511769e+18
14587.0	1.5089317944754173e+18
14588.0	1.508650865026662e+18
14589.0	1.5083746466201597e+18
14590.0	1.5080985775308797e+18
14591.0	1.5078105144098813e+18
14592.0	1.5075359384928253e+18
14593.0	1.507123197168844e+18
14594.0	1.506991053104742e+18
14595.0	1.5067047398473725e+18
14596.0	1.5058691086614515e+18
14597.0	1.505483361878015e+18
14598.0	1.505820996639129e+18
14599.0	1.505606355648512e+18
14600.0	1.5053127594016765e+18
14601.0	1.5050466173911037e+18
14602.0	1.5047229328850941e+18
14603.0	1.5044907144052736e+18
14604.0	1.5040978641485821e+18
14605.0	1.5037841167876093e+18
14606.0	1.5035424896450557e+18
14607.0	1.5033510448332797e+18
14608.0	1.5030843827290107e+18
14609.0	1.502791486092083e+18
14610.0	1.5022876444852221e+18
14611.0	1.502221966717747e+18
14612.0	1.5019814032506883e+18
14613.0	1.501708422846873e+18
14614.0	1.5014239567609856e+18
14615.0	1.5011468709724157e+18
14616.0	1.5008784573267963e+18
14617.0	1.5005929527312381e+18
14618.0	1.5002826145005563e+18
14619.0	1.4996289657765875e+18
14620.0	1.49842269569024e+18
14621.0	1.4994906963509243e+18
14622.0	1.4992101158682621e+18
14623.0	1.4989361422532603e+18
14624.0	1.4985863440105472e+18
14625.0	1.498377098572595e+18
14626.0	1.4980946155536381e+18
14627.0	1.4978136173182968e+18
14628.0	1.497546894816051e+18
14629.0	1.4972685893238781e+18
14630.0	1.4969738002169856e+18
14631.0	1.4967088896540672e+18
14632.0	1.4956843453382659e+18
14633.0	1.496023313888051e+18
14634.0	1.495856521517465e+18
14635.0	1.494638381550794e+18
14636.0	1.493261118078975e+18
14637.0	1.4950419457376253e+18
14638.0	1.4947309028638715e+18
14639.0	1.494441133500006e+18
14640.0	1.4942003519291387e+18
14641.0	1.4910092868583404e+18
14642.0	1.493639145665331e+18
14643.0	1.4933609844572157e+18
14644.0	1.4930636619907067e+18
14645.0	1.4927721394077693e+18
14646.0	1.4924733371908093e+18
14647.0	1.492128758339993e+18
