# Flux units: erg / (cm m2 s)
# Wavelength units: Angstrom
wave	flux
14000.0	2.4161646402338806e+18
14001.0	2.4156216942919675e+18
14002.0	2.415140555613798e+18
14003.0	2.414575282552832e+18
14004.0	2.4139917793689595e+18
14005.0	2.4134305731051515e+18
14006.0	2.412842043467366e+18
14007.0	2.412259243248845e+18
14008.0	2.4114664107409403e+18
14009.0	2.4111358744199163e+18
14010.0	2.4105278932779003e+18
14011.0	2.408739725587251e+18
14012.0	2.4094104166072315e+18
14013.0	2.408846901798502e+18
14014.0	2.408256972940902e+18
14015.0	2.4076972179062784e+18
14016.0	2.407125457095884e+18
14017.0	2.4065561726025723e+18
14018.0	2.405981717371289e+18
14019.0	2.4053452468387835e+18
14020.0	2.4047689947676667e+18
14021.0	2.4041979738324987e+18
14022.0	2.4035778627633147e+18
14023.0	2.4027777187446774e+18
14024.0	2.4023474787844086e+18
14025.0	2.401903189583462e+18
14026.0	2.401341701462425e+18
14027.0	2.400772094846566e+18
14028.0	2.4001883500707835e+18
14029.0	2.399620107442585e+18
14030.0	2.3855791379316854e+18
14031.0	2.398333263098674e+18
14032.0	2.3978906130317307e+18
14033.0	2.3971134085005307e+18
14034.0	2.3967390568022006e+18
14035.0	2.396200862167858e+18
14036.0	2.3955769577701376e+18
14037.0	2.394986421577318e+18
14038.0	2.3944348672458747e+18
14039.0	2.3938614169698304e+18
14040.0	2.3932801518665723e+18
14041.0	2.3927297031536635e+18
14042.0	2.392142020765286e+18
14043.0	2.391517198653849e+18
14044.0	2.391014662314393e+18
14045.0	2.3904574926487547e+18
14046.0	2.389883597776486e+18
14047.0	2.3892526586920955e+18
14048.0	2.3887425843494907e+18
14049.0	2.3881977459376123e+18
14050.0	2.387630140843622e+18
14051.0	2.3870294628237307e+18
14052.0	2.3864794587070464e+18
14053.0	2.3859297968455675e+18
14054.0	2.3853673289351163e+18
14055.0	2.3847940128767995e+18
14056.0	2.384191402121625e+18
14057.0	2.3835972806377467e+18
14058.0	2.3830329252904955e+18
14059.0	2.3824472695898107e+18
14060.0	2.3819042582167547e+18
14061.0	2.3813253033361403e+18
14062.0	2.380774722083225e+18
14063.0	2.380169878280601e+18
14064.0	2.37786870191227e+18
14065.0	2.379062452840038e+18
14066.0	2.3785087912902656e+18
14067.0	2.3775329982087163e+18
14068.0	2.3773827532062715e+18
14069.0	2.3767767719084027e+18
14070.0	2.3762483231588347e+18
14071.0	2.375688801327513e+18
14072.0	2.3751280161718267e+18
14073.0	2.3745626156040187e+18
14074.0	2.374002590456217e+18
14075.0	2.3733810633900027e+18
14076.0	2.37243951260631e+18
14077.0	2.368890418390631e+18
14078.0	2.371475128031641e+18
14079.0	2.3710942231527424e+18
14080.0	2.3705621740126203e+18
14081.0	2.3700004879204347e+18
14082.0	2.369394874043597e+18
14083.0	2.368867542656614e+18
14084.0	2.3683106078719995e+18
14085.0	2.364904433726258e+18
14086.0	2.3669039876276224e+18
14087.0	2.366628715456102e+18
14088.0	2.365992660998553e+18
14089.0	2.3651325015228416e+18
14090.0	2.3648833531543547e+18
14091.0	2.3643841403813883e+18
14092.0	2.363821454367129e+18
14093.0	2.3632650598088704e+18
14094.0	2.362703444180992e+18
14095.0	2.3621374614437883e+18
14096.0	2.3608618830004224e+18
14097.0	2.3606905356156923e+18
14098.0	2.360108225291878e+18
14099.0	2.359900083794739e+18
14100.0	2.3592809088942075e+18
14101.0	2.3587894438395904e+18
14102.0	2.358225221032345e+18
14103.0	2.357629735560806e+18
14104.0	2.3570399442763776e+18
14105.0	2.356481432433459e+18
14106.0	2.355929839514418e+18
14107.0	2.355351463447757e+18
14108.0	2.3547412039598075e+18
14109.0	2.3542384662937595e+18
14110.0	2.353634463029657e+18
14111.0	2.3530293608579067e+18
14112.0	2.352534463184895e+18
14113.0	2.351761627440742e+18
14114.0	2.3514027929894907e+18
14115.0	2.350847641622937e+18
14116.0	2.3494246451380214e+18
14117.0	2.3290129741250627e+18
14118.0	2.3491879051984896e+18
14119.0	2.348220581255576e+18
14120.0	2.3477138606784507e+18
14121.0	2.347422515934002e+18
14122.0	2.3466904723128315e+18
14123.0	2.345727268854169e+18
14124.0	2.3451101273522176e+18
14125.0	2.344224431276031e+18
14126.0	2.3445838764179456e+18
14127.0	2.344210918906265e+18
14128.0	2.343668419238297e+18
14129.0	2.343087732948992e+18
14130.0	2.3425065886416886e+18
14131.0	2.341919473323213e+18
14132.0	2.341371430463078e+18
14133.0	2.339571191565513e+18
14134.0	2.340280294021529e+18
14135.0	2.339523651646258e+18
14136.0	2.337704996398695e+18
14137.0	2.338552895084953e+18
14138.0	2.337726880599245e+18
14139.0	2.337505629385523e+18
14140.0	2.336870366812569e+18
14141.0	2.3362116698243067e+18
14142.0	2.333712780676302e+18
14143.0	2.3351948866486267e+18
14144.0	2.334747528894873e+18
14145.0	2.3341969023434747e+18
14146.0	2.333604453548032e+18
14147.0	2.3330621635952635e+18
14148.0	2.3324087866621947e+18
14149.0	2.331795955227033e+18
14150.0	2.3314368707952635e+18
14151.0	2.330608437035008e+18
14152.0	2.330333329280204e+18
14153.0	2.3297865916874747e+18
14154.0	2.3291604424982523e+18
14155.0	2.326848169679258e+18
14156.0	2.3279761723752433e+18
14157.0	2.327556698354482e+18
14158.0	2.326978587367833e+18
14159.0	2.3264639999541243e+18
14160.0	2.3259071205343227e+18
14161.0	2.325204150150758e+18
14162.0	2.3245391298297846e+18
14163.0	2.3241794716172283e+18
14164.0	2.3227992654217206e+18
14165.0	2.322264182960947e+18
14166.0	2.3225234798673915e+18
14167.0	2.321957586049433e+18
14168.0	2.321296322147123e+18
14169.0	2.3208755780911104e+18
14170.0	2.3202591529762816e+18
14171.0	2.319768218081689e+18
14172.0	2.3192561019518976e+18
14173.0	2.3183268488675323e+18
14174.0	2.3181139946504187e+18
14175.0	2.3175973067292667e+18
14176.0	2.317022306238464e+18
14177.0	2.3165028215554043e+18
14178.0	2.315956308777369e+18
14179.0	2.315339969226342e+18
14180.0	2.3148716886065147e+18
14181.0	2.3143216056369147e+18
14182.0	2.313774270775296e+18
14183.0	2.3132274006425595e+18
14184.0	2.3126661574688763e+18
14185.0	2.312120572470886e+18
14186.0	2.307070786482997e+18
14187.0	2.310959783739392e+18
14188.0	2.310479844632166e+18
14189.0	2.309894331537817e+18
14190.0	2.309363445058765e+18
14191.0	2.3087962979827707e+18
14192.0	2.3082809790824443e+18
14193.0	2.306974460097331e+18
14194.0	2.3071724211798016e+18
14195.0	2.3066722588164096e+18
14196.0	2.306127579788083e+18
14197.0	2.3055790671659005e+18
14198.0	2.3050244744806395e+18
14199.0	2.3044049892016123e+18
14200.0	2.3012662824665108e+18
14201.0	2.3032772398415864e+18
14202.0	2.302789227538022e+18
14203.0	2.3021600584499195e+18
14204.0	2.3016639930826747e+18
14205.0	2.301155378357862e+18
14206.0	2.3003217956700157e+18
14207.0	2.3000750246330365e+18
14208.0	2.299531716303257e+18
14209.0	2.2986556285386742e+18
14210.0	2.298241273246514e+18
14211.0	2.2978836937310203e+18
14212.0	2.2973558019850237e+18
14213.0	2.296729495089971e+18
14214.0	2.296270535891353e+18
14215.0	2.295688406761472e+18
14216.0	2.295178706550784e+18
14217.0	2.2946454460956667e+18
14218.0	2.2940715512233981e+18
14219.0	2.293555881679257e+18
14220.0	2.2929997203243005e+18
14221.0	2.2923851742576632e+18
14222.0	2.291276896534528e+18
14223.0	2.2913723706376187e+18
14224.0	2.2908469216542717e+18
14225.0	2.2834423846142013e+18
14226.0	2.2897448783446008e+18
14227.0	2.289221362096537e+18
14228.0	2.274786208540268e+18
14229.0	2.286155572497601e+18
14230.0	2.28760212251607e+18
14231.0	2.2864243233652739e+18
14232.0	2.286524761846579e+18
14233.0	2.2859645303390205e+18
14234.0	2.2854443762450427e+18
14235.0	2.284899254298214e+18
14236.0	2.284361380108697e+18
14237.0	2.2838060945244155e+18
14238.0	2.2832713559965688e+18
14239.0	2.2826291241680888e+18
14240.0	2.279168194222491e+18
14241.0	2.28153058394112e+18
14242.0	2.281038647446732e+18
14243.0	2.2801592830918656e+18
14244.0	2.2799907089809398e+18
14245.0	2.2794041892536315e+18
14246.0	2.2788318596956152e+18
14247.0	2.278360513878425e+18
14248.0	2.2778032099950584e+18
14249.0	2.2772850758778875e+18
14250.0	2.2767540065271803e+18
14251.0	2.2762150216859643e+18
14252.0	2.2756816857333757e+18
14253.0	2.2751379579731965e+18
14254.0	2.2746005820669947e+18
14255.0	2.2739957114208256e+18
14256.0	2.2664460413960248e+18
14257.0	2.2728122935803894e+18
14258.0	2.2724535983800315e+18
14259.0	2.2718344452898808e+18
14260.0	2.2711713761591293e+18
14261.0	2.2707837100621821e+18
14262.0	2.2703061415755773e+18
14263.0	2.259570063835144e+18
14264.0	2.267559674406501e+18
14265.0	2.2686289887231995e+18
14266.0	2.2681699892592637e+18
14267.0	2.2676381850664955e+18
14268.0	2.2670903972200443e+18
14269.0	2.2665457114808312e+18
14270.0	2.2660318622646272e+18
14271.0	2.265478739263488e+18
14272.0	2.2649501026091005e+18
14273.0	2.2643960551833592e+18
14274.0	2.2492091095449705e+18
14275.0	2.2618819172237325e+18
14276.0	2.2627154562908155e+18
14277.0	2.262223538251366e+18
14278.0	2.2617535580995581e+18
14279.0	2.2612190343200765e+18
14280.0	2.260668083968409e+18
14281.0	2.2601524915994621e+18
14282.0	2.259619135514214e+18
14283.0	2.2590848835256317e+18
14284.0	2.2585499671592955e+18
14285.0	2.2580108531335165e+18
14286.0	2.2574601661841405e+18
14287.0	2.2569440788873208e+18
14288.0	2.2563379868598267e+18
14289.0	2.2538878825005002e+18
14290.0	2.2552452498718717e+18
14291.0	2.254729904128e+18
14292.0	2.2541938133565432e+18
14293.0	2.253661519269068e+18
14294.0	2.2527957578809344e+18
14295.0	2.252551431284326e+18
14296.0	2.250505594077185e+18
14297.0	2.251531049395814e+18
14298.0	2.2482434448687086e+18
14299.0	2.250332110952857e+18
14300.0	2.2499137308065787e+18
14301.0	2.249383072497664e+18
14302.0	2.2488583046692861e+18
14303.0	2.2482257432281085e+18
14304.0	2.2477461463760893e+18
14305.0	2.247222848231833e+18
14306.0	2.2463562832150523e+18
14307.0	2.2459595507105787e+18
14308.0	2.2454854769180667e+18
14309.0	2.244801489954406e+18
14310.0	2.2429482266656758e+18
14311.0	2.2419694505951224e+18
14312.0	2.242471985256857e+18
14313.0	2.2425612366905336e+18
14314.0	2.2422199109419005e+18
14315.0	2.2418442975969277e+18
14316.0	2.2412606920720381e+18
14317.0	2.2403909796495355e+18
14318.0	2.2403597438287872e+18
14319.0	2.239847636087603e+18
14320.0	2.2393259519115261e+18
14321.0	2.2387901731962877e+18
14322.0	2.238169060527308e+18
14323.0	2.237716441438617e+18
14324.0	2.2372035619454968e+18
14325.0	2.2366744622399483e+18
14326.0	2.2361762242232315e+18
14327.0	2.2356301996621814e+18
14328.0	2.2351018532536315e+18
14329.0	2.2345958423527421e+18
14330.0	2.2340665950076928e+18
14331.0	2.2334581155823613e+18
14332.0	2.2330116923195387e+18
14333.0	2.232486864093184e+18
14334.0	2.2319608916606973e+18
14335.0	2.2313956102111227e+18
14336.0	2.2300821857239043e+18
14337.0	2.2303699451772928e+18
14338.0	2.2298432160923643e+18
14339.0	2.2292556008128504e+18
14340.0	2.228792254372249e+18
14341.0	2.228201062190284e+18
14342.0	2.2277346992062461e+18
14343.0	2.2271580948135933e+18
14344.0	2.226601614691532e+18
14345.0	2.2261036199444475e+18
14346.0	2.2255421838327805e+18
14347.0	2.2247523963895803e+18
14348.0	2.2244972082233336e+18
14349.0	2.224005540164403e+18
14350.0	2.2228618356719606e+18
14351.0	2.222284471271423e+18
14352.0	2.222393467810611e+18
14353.0	2.2218924347097083e+18
14354.0	2.2212922264518653e+18
14355.0	2.2206201831882742e+18
14356.0	2.2201632473219062e+18
14357.0	2.2197990793936893e+18
14358.0	2.2192734659936253e+18
14359.0	2.2187080352268285e+18
14360.0	2.2181709344669693e+18
14361.0	2.2176838683983864e+18
14362.0	2.2171764800880632e+18
14363.0	2.2166527155372027e+18
14364.0	2.2139212186779656e+18
14365.0	2.2152788746174446e+18
14366.0	2.2147568028876795e+18
14367.0	2.2145607040761853e+18
14368.0	2.2140368438951936e+18
14369.0	2.213518305447116e+18
14370.0	2.2129928614969347e+18
14371.0	2.2124776868806648e+18
14372.0	2.2119329541652477e+18
14373.0	2.211424812557926e+18
14374.0	2.2109063445741563e+18
14375.0	2.2103804761604093e+18
14376.0	2.2098609881219064e+18
14377.0	2.2093393576329208e+18
14378.0	2.208812103421132e+18
14379.0	2.2082958936506363e+18
14380.0	2.2077724713549821e+18
14381.0	2.2072191587713021e+18
14382.0	2.206724599998054e+18
14383.0	2.2061472691519485e+18
14384.0	2.205625209166233e+18
14385.0	2.2051637149302781e+18
14386.0	2.2045926101090301e+18
14387.0	2.2041148923052035e+18
14388.0	2.203587017336422e+18
14389.0	2.2030765101416443e+18
14390.0	2.202551054447411e+18
14391.0	2.202003152515891e+18
14392.0	2.201498208645939e+18
14393.0	2.2009916424191995e+18
14394.0	2.200366281759129e+18
14395.0	2.1995098048823293e+18
14396.0	2.1994030598455293e+18
14397.0	2.198907429008179e+18
14398.0	2.198370212485529e+18
14399.0	2.197825783437721e+18
14400.0	2.1971121846878205e+18
14401.0	2.1967916895305723e+18
14402.0	2.196288648196915e+18
14403.0	2.1848554771316564e+18
14404.0	2.167067049669421e+18
14405.0	2.1918408136195994e+18
14406.0	2.1942155580801014e+18
14407.0	2.1768229353422925e+18
14408.0	2.1926775990779896e+18
14409.0	2.1925725804167168e+18
14410.0	2.1919404551831552e+18
14411.0	2.1915590335660027e+18
14412.0	2.1910478502494203e+18
14413.0	2.1905360361095163e+18
14414.0	2.1900126238801917e+18
14415.0	2.189496657379328e+18
14416.0	2.1888498587926518e+18
14417.0	2.1879880232730614e+18
14418.0	2.1875737636110333e+18
14419.0	2.1874122006986747e+18
14420.0	2.186884657918771e+18
14421.0	2.1863758469005312e+18
14422.0	2.185831382620569e+18
14423.0	2.1851528499298301e+18
14424.0	2.1259067372601034e+18
14425.0	2.1842295309467643e+18
14426.0	2.1837796113121277e+18
14427.0	2.1832713354870781e+18
14428.0	2.1826885335908352e+18
14429.0	2.1822326127460352e+18
14430.0	2.1817173961867261e+18
14431.0	2.1779088188375055e+18
14432.0	2.1806189734002685e+18
14433.0	2.1674868307132337e+18
14434.0	2.1795988297482232e+18
14435.0	2.1786115392405496e+18
14436.0	2.1786060530909181e+18
14437.0	2.1780974333329403e+18
14438.0	2.1768927252054019e+18
14439.0	2.1769404010201083e+18
14440.0	2.1765488610639867e+18
14441.0	2.1760233533603832e+18
14442.0	2.1754975168233464e+18
14443.0	2.1748887656071165e+18
14444.0	2.1744703250628605e+18
14445.0	2.1739629552074747e+18
14446.0	2.1597441287520315e+18
14447.0	2.1728882117836792e+18
14448.0	2.1724132823531517e+18
14449.0	2.171893240666521e+18
14450.0	2.17136394970071e+18
14451.0	2.1708479513231357e+18
14452.0	2.170321752398233e+18
14453.0	2.1695380718616579e+18
14454.0	2.169284740933222e+18
14455.0	2.1687550020157437e+18
14456.0	2.1681612731187195e+18
14457.0	2.1676033937768443e+18
14458.0	2.166995142521651e+18
14459.0	2.166550974116659e+18
14460.0	2.165938053762252e+18
14461.0	2.1648317423288315e+18
14462.0	2.163021816266752e+18
14463.0	2.1641371102216187e+18
14464.0	2.163946096584294e+18
14465.0	2.163491048154726e+18
14466.0	2.1630470609436667e+18
14467.0	2.16234271482839e+18
14468.0	2.1620322541240315e+18
14469.0	2.1612625221648384e+18
14470.0	2.1609653406269432e+18
14471.0	2.160506621342515e+18
14472.0	2.1600049741955072e+18
14473.0	2.1595128179195901e+18
14474.0	2.159011920714137e+18
14475.0	2.1584800561233915e+18
14476.0	2.1571234403713027e+18
14477.0	2.157455525229363e+18
14478.0	2.156949791152537e+18
14479.0	2.156411066358169e+18
14480.0	2.1558844429697021e+18
14481.0	2.1554221081952253e+18
14482.0	2.1549005196492792e+18
14483.0	2.154367217251123e+18
14484.0	2.153869303034675e+18
14485.0	2.1532262373785603e+18
14486.0	2.1520976122478592e+18
14487.0	2.1522518770712568e+18
14488.0	2.1508494427422725e+18
14489.0	2.1508986352173048e+18
14490.0	2.1506840865013757e+18
14491.0	2.15023724045271e+18
14492.0	2.1497176232296443e+18
14493.0	2.1491360662028283e+18
14494.0	2.1486260086374395e+18
14495.0	2.1481818989527032e+18
14496.0	2.1473487877046272e+18
14497.0	2.1471536485498875e+18
14498.0	2.1466418461540347e+18
14499.0	2.1461361842192376e+18
14500.0	2.1456224776093693e+18
14501.0	2.1446721120763901e+18
14502.0	2.1433195262115845e+18
14503.0	2.1438313705504758e+18
14504.0	2.1435518923309053e+18
14505.0	2.142636379786444e+18
14506.0	2.141621935354675e+18
14507.0	2.1414487592534019e+18
14508.0	2.1415160308563963e+18
14509.0	2.1410019685695488e+18
14510.0	2.1404862168170496e+18
14511.0	2.139978900648755e+18
14512.0	2.139421232699801e+18
14513.0	2.1389513095905277e+18
14514.0	2.1383031218503677e+18
14515.0	2.1378963330826237e+18
14516.0	2.1328093352296484e+18
14517.0	2.1368751207219195e+18
14518.0	2.136363803187609e+18
14519.0	2.135847199152537e+18
14520.0	2.1353369100615677e+18
14521.0	2.1348208630300667e+18
14522.0	2.1342353633574902e+18
14523.0	2.1323820681920502e+18
14524.0	2.132255933726719e+18
14525.0	2.1327566950367227e+18
14526.0	2.1322411748098043e+18
14527.0	2.131679721920921e+18
14528.0	2.130790162051891e+18
14529.0	2.130694723180953e+18
14530.0	2.1301577851600896e+18
14531.0	2.12968754160599e+18
14532.0	2.1278335803850742e+18
14533.0	2.1286635375165437e+18
14534.0	2.1281563756986363e+18
14535.0	2.127612720080486e+18
14536.0	2.1271181797621752e+18
14537.0	2.1265781329231867e+18
14538.0	2.1261014754394104e+18
14539.0	2.1255872084705275e+18
14540.0	2.1250753322549243e+18
14541.0	2.1244935822901243e+18
14542.0	2.1240177083023355e+18
14543.0	2.122880046963097e+18
14544.0	2.1229935515402235e+18
14545.0	2.1224503556177917e+18
14546.0	2.0725703083294502e+18
14547.0	2.0766771141148396e+18
14548.0	2.120906543045017e+18
14549.0	2.1201423106572283e+18
14550.0	2.1198954171465725e+18
14551.0	2.1194067085885437e+18
14552.0	2.1188797832101888e+18
14553.0	2.118352643083468e+18
14554.0	2.117862109164339e+18
14555.0	2.117344980002406e+18
14556.0	2.1168060438151168e+18
14557.0	2.1163065609289728e+18
14558.0	2.1157362345705467e+18
14559.0	2.1111959608885153e+18
14560.0	2.1140907151589366e+18
14561.0	2.114181731555737e+18
14562.0	2.1135577952813053e+18
14563.0	2.1131567308996608e+18
14564.0	2.1123051764580352e+18
14565.0	2.1121696048087037e+18
14566.0	2.1116556800950267e+18
14567.0	2.1110913197146104e+18
14568.0	2.1098612729577472e+18
14569.0	2.1100522698178552e+18
14570.0	2.108090043544371e+18
14571.0	2.109057401041715e+18
14572.0	2.1080991149850621e+18
14573.0	2.1078028377391101e+18
14574.0	2.1066053001936893e+18
14575.0	2.106816694793011e+18
14576.0	2.1063133078487037e+18
14577.0	2.1059214726135803e+18
14578.0	2.1054234745110528e+18
14579.0	2.1049148530753533e+18
14580.0	2.1043932947283963e+18
14581.0	2.1038245957599227e+18
14582.0	2.103315616969523e+18
14583.0	2.1028547149692925e+18
14584.0	2.1021932379963392e+18
14585.0	2.101823114156441e+18
14586.0	2.1012996901830653e+18
14587.0	2.1007723218862077e+18
14588.0	2.1002661851561984e+18
14589.0	2.099772854475161e+18
14590.0	2.0992762404929533e+18
14591.0	2.098721594120601e+18
14592.0	2.0982393481461755e+18
14593.0	2.0974838986309627e+18
14594.0	2.0972626792939515e+18
14595.0	2.0967455031558144e+18
14596.0	2.0946178736652255e+18
14597.0	2.0938442812686305e+18
14598.0	2.0950939741454323e+18
14599.0	2.0947411140607997e+18
14600.0	2.0941767805239293e+18
14601.0	2.0936878538620925e+18
14602.0	2.0930731081465853e+18
14603.0	2.0926405025988605e+18
14604.0	2.0919489675657208e+18
14605.0	2.0912849320673275e+18
14606.0	2.0909061763497981e+18
14607.0	2.0906748537733115e+18
14608.0	2.0901563052589053e+18
14609.0	2.0895014368313344e+18
14610.0	2.0886433157873661e+18
14611.0	2.088493926422937e+18
14612.0	2.088146042460569e+18
14613.0	2.0876853719859197e+18
14614.0	2.0871876372856827e+18
14615.0	2.086615765745664e+18
14616.0	2.0862005262942203e+18
14617.0	2.0856953425100797e+18
14618.0	2.0847599036661763e+18
14619.0	2.083549310091259e+18
14620.0	2.0792474658144266e+18
14621.0	2.083675800233574e+18
14622.0	2.0831648501202944e+18
14623.0	2.0826669107380221e+18
14624.0	2.0820173019676672e+18
14625.0	2.081641218860646e+18
14626.0	2.0811130217693181e+18
14627.0	2.080580642118041e+18
14628.0	2.0801286303645693e+18
14629.0	2.0796171651907581e+18
14630.0	2.0790668188188667e+18
14631.0	2.0785909431533565e+18
14632.0	2.0725109522169884e+18
14633.0	2.0766674252726246e+18
14634.0	2.0769880915574776e+18
14635.0	2.0747869459840922e+18
14636.0	2.0703372155813868e+18
14637.0	2.0755316916355067e+18
14638.0	2.0748915234045947e+18
14639.0	2.0743924867923958e+18
14640.0	2.0739777103921152e+18
14641.0	2.053101407803787e+18
14642.0	2.072945101268582e+18
14643.0	2.0724276181073915e+18
14644.0	2.071860843485593e+18
14645.0	2.0713327437021176e+18
14646.0	2.0704043043127293e+18
14647.0	2.0698712384733184e+18
14648.0	2.069736817741004e+18
14649.0	2.069317644032409e+18
