# Flux units: erg / (cm m2 s)
# Wavelength units: Angstrom
wave	flux
14000.0	1.849729468491366e+18
14001.0	1.8492587232985083e+18
14002.0	1.8488164372971517e+18
14003.0	1.848363724256051e+18
14004.0	1.8479109424283643e+18
14005.0	1.8474564828790784e+18
14006.0	1.8469989346443261e+18
14007.0	1.8465428242169856e+18
14008.0	1.8460540451946493e+18
14009.0	1.8456378074988541e+18
14010.0	1.8451777208713216e+18
14011.0	1.8445308954411008e+18
14012.0	1.844275870013849e+18
14013.0	1.843823009333248e+18
14014.0	1.8433664090112e+18
14015.0	1.8429126490718205e+18
14016.0	1.8424603051294723e+18
14017.0	1.84200711897088e+18
14018.0	1.8415503592652797e+18
14019.0	1.8411012684251133e+18
14020.0	1.840647780276633e+18
14021.0	1.8401954279456768e+18
14022.0	1.83974319137751e+18
14023.0	1.8392839905869821e+18
14024.0	1.838832805950259e+18
14025.0	1.8383869363355645e+18
14026.0	1.837934276981555e+18
14027.0	1.8374824430665725e+18
14028.0	1.8370291528892413e+18
14029.0	1.8365753845612544e+18
14030.0	1.83598539866112e+18
14031.0	1.8356699047919608e+18
14032.0	1.8352264611627003e+18
14033.0	1.8347576050843645e+18
14034.0	1.834324757944729e+18
14035.0	1.8338741420556285e+18
14036.0	1.8334237123936253e+18
14037.0	1.8329712929538045e+18
14038.0	1.8325224286060544e+18
14039.0	1.8320696954322941e+18
14040.0	1.8316152274944e+18
14041.0	1.8311692119179261e+18
14042.0	1.8307175021543421e+18
14043.0	1.8302575983984637e+18
14044.0	1.8298187265605632e+18
14045.0	1.8293713537073147e+18
14046.0	1.828921412262297e+18
14047.0	1.828471370153984e+18
14048.0	1.8280253092790272e+18
14049.0	1.8275772133277693e+18
14050.0	1.8271286358704123e+18
14051.0	1.8266759127629821e+18
14052.0	1.8262297797459963e+18
14053.0	1.8257823951486976e+18
14054.0	1.8253356682182653e+18
14055.0	1.8248835423797245e+18
14056.0	1.8244399192342528e+18
14057.0	1.8239914072080381e+18
14058.0	1.8235442843353085e+18
14059.0	1.823097538949939e+18
14060.0	1.8226503238025216e+18
14061.0	1.8222005518073853e+18
14062.0	1.8217563045494784e+18
14063.0	1.8213034086367232e+18
14064.0	1.8208444997697528e+18
14065.0	1.8204134746357755e+18
14066.0	1.8199672208228352e+18
14067.0	1.819516333142835e+18
14068.0	1.8190751024283643e+18
14069.0	1.818628457706291e+18
14070.0	1.8181831987822587e+18
14071.0	1.8177366077472763e+18
14072.0	1.8172919259594747e+18
14073.0	1.816846484163788e+18
14074.0	1.8164012084625405e+18
14075.0	1.815949131277926e+18
14076.0	1.8155053252607992e+18
14077.0	1.8150296475664381e+18
14078.0	1.814618696371404e+18
14079.0	1.814172771391897e+18
14080.0	1.8137322100883453e+18
14081.0	1.8132876725846013e+18
14082.0	1.8128283845525504e+18
14083.0	1.8123985556340733e+18
14084.0	1.8119555851223037e+18
14085.0	1.8114042103070717e+18
14086.0	1.81106546657198e+18
14087.0	1.8106245697241085e+18
14088.0	1.8101767942176763e+18
14089.0	1.809729285468979e+18
14090.0	1.8092934452740093e+18
14091.0	1.808851749830656e+18
14092.0	1.8084088816599037e+18
14093.0	1.807965949735731e+18
14094.0	1.8075234607300605e+18
14095.0	1.807081114330726e+18
14096.0	1.806630869218099e+18
14097.0	1.8061878315974653e+18
14098.0	1.8057418294427643e+18
14099.0	1.8053091819519997e+18
14100.0	1.8048628375420923e+18
14101.0	1.8044267859542016e+18
14102.0	1.803983750011289e+18
14103.0	1.8035391537872896e+18
14104.0	1.80310148990894e+18
14105.0	1.8026525232201723e+18
14106.0	1.802220441121587e+18
14107.0	1.8017525161787387e+18
14108.0	1.801334251795251e+18
14109.0	1.8008965057085437e+18
14110.0	1.8004438832644093e+18
14111.0	1.799987329918566e+18
14112.0	1.7995741725196285e+18
14113.0	1.799134028968755e+18
14114.0	1.7986902816718843e+18
14115.0	1.7982567600881661e+18
14116.0	1.797778747005337e+18
14117.0	1.7971517153345533e+18
14118.0	1.7969369871024125e+18
14119.0	1.7964939595481088e+18
14120.0	1.7960569768247293e+18
14121.0	1.795611222972825e+18
14122.0	1.795179327101337e+18
14123.0	1.7947256695029755e+18
14124.0	1.7942951141310461e+18
14125.0	1.7936987294007293e+18
14126.0	1.7934265358483453e+18
14127.0	1.7929908080607227e+18
14128.0	1.7925522784780285e+18
14129.0	1.7921104404283387e+18
14130.0	1.7916683960188925e+18
14131.0	1.791239454615142e+18
14132.0	1.7907998680678395e+18
14133.0	1.7901693953900536e+18
14134.0	1.789925082215219e+18
14135.0	1.7894825445556216e+18
14136.0	1.789030638498611e+18
14137.0	1.7886137045483517e+18
14138.0	1.7881737975562237e+18
14139.0	1.7877405561520128e+18
14140.0	1.7872801138475005e+18
14141.0	1.7868677936316413e+18
14142.0	1.7863985047011325e+18
14143.0	1.7858974464344061e+18
14144.0	1.785559964345958e+18
14145.0	1.7851238322274304e+18
14146.0	1.7846878662033405e+18
14147.0	1.7842525779787776e+18
14148.0	1.7838161807802365e+18
14149.0	1.7833800419508221e+18
14150.0	1.7829462200549376e+18
14151.0	1.7825081619120125e+18
14152.0	1.7820767458689021e+18
14153.0	1.7816427176132603e+18
14154.0	1.781198260640153e+18
14155.0	1.7805915562442747e+18
14156.0	1.780332749232537e+18
14157.0	1.7799046601113597e+18
14158.0	1.7794644041531387e+18
14159.0	1.7790358486253565e+18
14160.0	1.7786028588793853e+18
14161.0	1.7781453777534976e+18
14162.0	1.7776974881619965e+18
14163.0	1.7773023494930427e+18
14164.0	1.7768572835069947e+18
14165.0	1.776190033494016e+18
14166.0	1.7760004979294205e+18
14167.0	1.775565041932697e+18
14168.0	1.7751334530842621e+18
14169.0	1.7747048774238203e+18
14170.0	1.7742701311033341e+18
14171.0	1.773836772258611e+18
14172.0	1.7734081999536125e+18
14173.0	1.7728674769928187e+18
14174.0	1.7725407826542587e+18
14175.0	1.7721100058230781e+18
14176.0	1.7716746723000315e+18
14177.0	1.7712447846612987e+18
14178.0	1.7708124492267517e+18
14179.0	1.770360150582886e+18
14180.0	1.769952821588787e+18
14181.0	1.76952177632215e+18
14182.0	1.769090606904115e+18
14183.0	1.7686600683094013e+18
14184.0	1.7682275516809213e+18
14185.0	1.7677988837457915e+18
14186.0	1.7673173608693757e+18
14187.0	1.7669294280146936e+18
14188.0	1.7665065649963003e+18
14189.0	1.7660749056835581e+18
14190.0	1.765647757764198e+18
14191.0	1.7652179154239485e+18
14192.0	1.7647850129195005e+18
14193.0	1.7643519006998523e+18
14194.0	1.7639292020981752e+18
14195.0	1.7635006918688763e+18
14196.0	1.7630715692711939e+18
14197.0	1.762641976911462e+18
14198.0	1.7622119785431037e+18
14199.0	1.7617777439277053e+18
14200.0	1.7613308861349888e+18
14201.0	1.7609278168760317e+18
14202.0	1.7604991237750781e+18
14203.0	1.7600452027744253e+18
14204.0	1.75964210331648e+18
14205.0	1.7592145275781117e+18
14206.0	1.7587424871841784e+18
14207.0	1.7583601008771064e+18
14208.0	1.7579326660673533e+18
14209.0	1.7574527286378488e+18
14210.0	1.7570480605102072e+18
14211.0	1.7566480228941821e+18
14212.0	1.7562233932349435e+18
14213.0	1.7557926835126264e+18
14214.0	1.755369553736499e+18
14215.0	1.7549335088594944e+18
14216.0	1.7545159424081915e+18
14217.0	1.754090044391424e+18
14218.0	1.7536594655313915e+18
14219.0	1.75323613275095e+18
14220.0	1.7528116507312128e+18
14221.0	1.752384903787315e+18
14222.0	1.7519495400652795e+18
14223.0	1.751531060933427e+18
14224.0	1.7511069295575037e+18
14225.0	1.7506116107763707e+18
14226.0	1.75025650925568e+18
14227.0	1.7498314719100923e+18
14228.0	1.749245482342809e+18
14229.0	1.7489573588238333e+18
14230.0	1.7485569705639939e+18
14231.0	1.748124318040064e+18
14232.0	1.7477079209607165e+18
14233.0	1.7472806690226176e+18
14234.0	1.7468594132615163e+18
14235.0	1.7464339648741376e+18
14236.0	1.7460079544500221e+18
14237.0	1.7455866114473981e+18
14238.0	1.7451625673129981e+18
14239.0	1.7447368655896576e+18
14240.0	1.7438391117283325e+18
14241.0	1.7438934631972856e+18
14242.0	1.7434705699799037e+18
14243.0	1.7429914848329725e+18
14244.0	1.7426246057066493e+18
14245.0	1.7421939899367421e+18
14246.0	1.7417649277370368e+18
14247.0	1.7413534061166587e+18
14248.0	1.7409292596412413e+18
14249.0	1.7405089685700605e+18
14250.0	1.7400876758990848e+18
14251.0	1.739666509057228e+18
14252.0	1.7392441090899965e+18
14253.0	1.7388226385805307e+18
14254.0	1.7384001631158272e+18
14255.0	1.737969428227686e+18
14256.0	1.7375209464004605e+18
14257.0	1.7371350301671421e+18
14258.0	1.7367159353114621e+18
14259.0	1.7362873764282365e+18
14260.0	1.7358722560950272e+18
14261.0	1.735444515939942e+18
14262.0	1.7350337291616253e+18
14263.0	1.7345562781155325e+18
14264.0	1.7341827367567352e+18
14265.0	1.7337658330054653e+18
14266.0	1.7333517612482552e+18
14267.0	1.732930780633497e+18
14268.0	1.7325112915132413e+18
14269.0	1.7320887590060032e+18
14270.0	1.7316732494413821e+18
14271.0	1.7312490610229243e+18
14272.0	1.7308337863393277e+18
14273.0	1.7304149397864448e+18
14274.0	1.7299113682927613e+18
14275.0	1.7295698546393085e+18
14276.0	1.7291306757783547e+18
14277.0	1.7287246906392568e+18
14278.0	1.7283188028080123e+18
14279.0	1.727899370730291e+18
14280.0	1.7274787189489661e+18
14281.0	1.727063348635238e+18
14282.0	1.7266453275213821e+18
14283.0	1.7262273449951224e+18
14284.0	1.7258094765539323e+18
14285.0	1.7253917372973053e+18
14286.0	1.7249731893788667e+18
14287.0	1.7245549602275323e+18
14288.0	1.7241387376312315e+18
14289.0	1.72341741129564e+18
14290.0	1.723299477533491e+18
14291.0	1.7228866321907707e+18
14292.0	1.7224701831020541e+18
14293.0	1.7220535947624443e+18
14294.0	1.7215874683371515e+18
14295.0	1.7212141249495037e+18
14296.0	1.7205579143446528e+18
14297.0	1.7203886825668603e+18
14298.0	1.7199096192303104e+18
14299.0	1.7195493587156987e+18
14300.0	1.7191365569937403e+18
14301.0	1.7187120313532413e+18
14302.0	1.718306804544307e+18
14303.0	1.7178790140575736e+18
14304.0	1.7174721397260288e+18
14305.0	1.7170597305909243e+18
14306.0	1.7165918962450432e+18
14307.0	1.716220284266086e+18
14308.0	1.7158172502392832e+18
14309.0	1.7154000780525565e+18
14310.0	1.7147414649503736e+18
14311.0	1.714519473861427e+18
14312.0	1.7141451842387965e+18
14313.0	1.713726002141593e+18
14314.0	1.7133302376824827e+18
14315.0	1.712917508102553e+18
14316.0	1.7124844982239227e+18
14317.0	1.7120108052742141e+18
14318.0	1.7116752106225661e+18
14319.0	1.7112621840859133e+18
14320.0	1.7108493957857277e+18
14321.0	1.7104351596118008e+18
14322.0	1.7100059363508221e+18
14323.0	1.70960496927703e+18
14324.0	1.7091957494906877e+18
14325.0	1.70878036911063e+18
14326.0	1.708371734849126e+18
14327.0	1.7079541163884544e+18
14328.0	1.7075438463483904e+18
14329.0	1.7071348161445885e+18
14330.0	1.7067223902322688e+18
14331.0	1.7063097244057597e+18
14332.0	1.705897536729907e+18
14333.0	1.7054866727763963e+18
14334.0	1.7050753071841277e+18
14335.0	1.7046461862641656e+18
14336.0	1.7042358138830848e+18
14337.0	1.703839643415347e+18
14338.0	1.7034285999456253e+18
14339.0	1.7030141926440952e+18
14340.0	1.7026079306809341e+18
14341.0	1.7021954510815227e+18
14342.0	1.7017830016811005e+18
14343.0	1.7013618281283584e+18
14344.0	1.700954970574028e+18
14345.0	1.700553258591846e+18
14346.0	1.7001422855864315e+18
14347.0	1.699727212229427e+18
14348.0	1.6993192155021307e+18
14349.0	1.6989132286853123e+18
14350.0	1.6984981368733693e+18
14351.0	1.6980864575471613e+18
14352.0	1.6976806619906043e+18
14353.0	1.697274743960371e+18
14354.0	1.6968645980717053e+18
14355.0	1.6964556685311997e+18
14356.0	1.6960471215112187e+18
14357.0	1.6956390090211325e+18
14358.0	1.6952302740963328e+18
14359.0	1.694815351734272e+18
14360.0	1.694412670029004e+18
14361.0	1.69400475886551e+18
14362.0	1.6935965826220032e+18
14363.0	1.6931882369286136e+18
14364.0	1.6927592200273923e+18
14365.0	1.6923701178007547e+18
14366.0	1.6919610540425213e+18
14367.0	1.6915570972688381e+18
14368.0	1.6911495082278907e+18
14369.0	1.690742308418355e+18
14370.0	1.690334828429312e+18
14371.0	1.6899277057949688e+18
14372.0	1.689518435676979e+18
14373.0	1.6891138329804797e+18
14374.0	1.688705123221504e+18
14375.0	1.6883001984024576e+18
14376.0	1.6878936914919421e+18
14377.0	1.6874873036996603e+18
14378.0	1.687080127378227e+18
14379.0	1.6866750280761341e+18
14380.0	1.686268855032217e+18
14381.0	1.68585820414935e+18
14382.0	1.6854556163964923e+18
14383.0	1.6850323490471933e+18
14384.0	1.6846365896212475e+18
14385.0	1.6842404006985728e+18
14386.0	1.6838280234401787e+18
14387.0	1.6834297205882875e+18
14388.0	1.6830228798111741e+18
14389.0	1.6826190958428157e+18
14390.0	1.6822139864743933e+18
14391.0	1.6818081791737853e+18
14392.0	1.6813860124098557e+18
14393.0	1.6810009501368315e+18
14394.0	1.6805824038961147e+18
14395.0	1.6801607203160061e+18
14396.0	1.6797867326832637e+18
14397.0	1.679384091243315e+18
14398.0	1.6789634579169277e+18
14399.0	1.678575914293657e+18
14400.0	1.6781444948951037e+18
14401.0	1.6777668347297787e+18
14402.0	1.6773634517368832e+18
14403.0	1.6733981819011e+18
14404.0	1.6675172224335857e+18
14405.0	1.6757322802003948e+18
14406.0	1.675752922886963e+18
14407.0	1.6699198137171994e+18
14408.0	1.674932943165849e+18
14409.0	1.674535324824371e+18
14410.0	1.6741351865450493e+18
14411.0	1.6737385798696957e+18
14412.0	1.673336646428262e+18
14413.0	1.6729344932052987e+18
14414.0	1.6725327359246333e+18
14415.0	1.672131282311577e+18
14416.0	1.671727999981977e+18
14417.0	1.6713149633789947e+18
14418.0	1.6709009822187515e+18
14419.0	1.6705228522913787e+18
14420.0	1.670120027979776e+18
14421.0	1.669720287320473e+18
14422.0	1.6693179579367421e+18
14423.0	1.668915928865177e+18
14424.0	1.647533081860491e+18
14425.0	1.668114635607244e+18
14426.0	1.6677152825016315e+18
14427.0	1.6673158639648765e+18
14428.0	1.6668940293898237e+18
14429.0	1.666514454944153e+18
14430.0	1.6661153031651323e+18
14431.0	1.6656826489634816e+18
14432.0	1.6652961421721597e+18
14433.0	1.6608475626864607e+18
14434.0	1.6645104131375096e+18
14435.0	1.6641081944834048e+18
14436.0	1.6637170135597053e+18
14437.0	1.6633176889753597e+18
14438.0	1.6627928741707776e+18
14439.0	1.6624900840095741e+18
14440.0	1.662120065866137e+18
14441.0	1.6617183689834493e+18
14442.0	1.6613192390148096e+18
14443.0	1.6609077392048128e+18
14444.0	1.6605239989764093e+18
14445.0	1.6601265786060795e+18
14446.0	1.6555007008571407e+18
14447.0	1.6593249363820544e+18
14448.0	1.6589328964648957e+18
14449.0	1.6585350080102397e+18
14450.0	1.6581347673899003e+18
14451.0	1.657737974487449e+18
14452.0	1.657339451854028e+18
14453.0	1.6568581823135744e+18
14454.0	1.656544481928806e+18
14455.0	1.6561464978440187e+18
14456.0	1.6557343001018365e+18
14457.0	1.655325628930457e+18
14458.0	1.6549297017323515e+18
14459.0	1.654525869110067e+18
14460.0	1.654164508010086e+18
14461.0	1.6537616266559488e+18
14462.0	1.6533305981665277e+18
14463.0	1.6529745202118653e+18
14464.0	1.6525798613712893e+18
14465.0	1.6521771410784253e+18
14466.0	1.6517839535996925e+18
14467.0	1.6513305443041277e+18
14468.0	1.6509892504322043e+18
14469.0	1.6505939272138747e+18
14470.0	1.6501940926021632e+18
14471.0	1.6498003481198587e+18
14472.0	1.6494082746482685e+18
14473.0	1.6490181792104443e+18
14474.0	1.6486236277440507e+18
14475.0	1.648224933983027e+18
14476.0	1.6475672117510141e+18
14477.0	1.6474392116592635e+18
14478.0	1.6470428583198715e+18
14479.0	1.6466449413439485e+18
14480.0	1.6462501130534907e+18
14481.0	1.64586233790464e+18
14482.0	1.645466741217689e+18
14483.0	1.6450686698913792e+18
14484.0	1.644678354672025e+18
14485.0	1.64426988650496e+18
14486.0	1.6437856071319547e+18
14487.0	1.6434989029654525e+18
14488.0	1.6430946274246653e+18
14489.0	1.6427084310118397e+18
14490.0	1.6423070696734715e+18
14491.0	1.6419257067765757e+18
14492.0	1.6415324958097405e+18
14493.0	1.641135813636915e+18
14494.0	1.640739594515251e+18
14495.0	1.6403550120706048e+18
14496.0	1.639913130400153e+18
14497.0	1.639569064932147e+18
14498.0	1.639176268362547e+18
14499.0	1.6387854783479805e+18
14500.0	1.6383932303933435e+18
14501.0	1.6378729571811325e+18
14502.0	1.6374077082042365e+18
14503.0	1.6372055310073853e+18
14504.0	1.6368236295618557e+18
14505.0	1.6363129931825147e+18
14506.0	1.6357615244148733e+18
14507.0	1.6355642293878784e+18
14508.0	1.6352605718446077e+18
14509.0	1.6348674028208123e+18
14510.0	1.634475700125696e+18
14511.0	1.634085779170918e+18
14512.0	1.6336889090932733e+18
14513.0	1.63330428806103e+18
14514.0	1.6328484645240832e+18
14515.0	1.632516785674649e+18
14516.0	1.631397800732263e+18
14517.0	1.6317426765398013e+18
14518.0	1.631352161671577e+18
14519.0	1.6309626148487165e+18
14520.0	1.6305725110222843e+18
14521.0	1.6301776592437248e+18
14522.0	1.6297925382504443e+18
14523.0	1.6291199346278397e+18
14524.0	1.628710780272639e+18
14525.0	1.6286229968453632e+18
14526.0	1.6282346210721787e+18
14527.0	1.627802065856102e+18
14528.0	1.6273996978847744e+18
14529.0	1.627064804520755e+18
14530.0	1.626672418992947e+18
14531.0	1.6262901518041085e+18
14532.0	1.6253272604016637e+18
14533.0	1.625513413679513e+18
14534.0	1.625125750938009e+18
14535.0	1.6247319376691197e+18
14536.0	1.6243472277176315e+18
14537.0	1.6239551760564224e+18
14538.0	1.623570080228966e+18
14539.0	1.6231854692630525e+18
14540.0	1.622797620294451e+18
14541.0	1.6224008324251648e+18
14542.0	1.6220213687091195e+18
14543.0	1.6214499786751997e+18
14544.0	1.6212476588720128e+18
14545.0	1.6208519497777147e+18
14546.0	1.5995628421119875e+18
14547.0	1.6015093129019238e+18
14548.0	1.6196931927670781e+18
14549.0	1.6192695227645944e+18
14550.0	1.61892274274304e+18
14551.0	1.6185397474230272e+18
14552.0	1.6181442379775997e+18
14553.0	1.617754999855513e+18
14554.0	1.617380721976934e+18
14555.0	1.6169931196334077e+18
14556.0	1.6166005931769856e+18
14557.0	1.6162225236475901e+18
14558.0	1.6158366376132603e+18
14559.0	1.6148837336874988e+18
14560.0	1.615039791995289e+18
14561.0	1.6146772833337341e+18
14562.0	1.6142835573063677e+18
14563.0	1.6139086821588987e+18
14564.0	1.6135204540252157e+18
14565.0	1.613139084417433e+18
14566.0	1.6127540808646653e+18
14567.0	1.6123684028678141e+18
14568.0	1.6119633891295224e+18
14569.0	1.6115996540534781e+18
14570.0	1.6110576543465472e+18
14571.0	1.610829279526912e+18
14572.0	1.610428809058713e+18
14573.0	1.6100436964540416e+18
14574.0	1.6096666536902653e+18
14575.0	1.6092923372240893e+18
14576.0	1.6089089375731712e+18
14577.0	1.6085221942231037e+18
14578.0	1.6081411651928061e+18
14579.0	1.6077566901223424e+18
14580.0	1.6073747266011128e+18
14581.0	1.6069641377939453e+18
14582.0	1.6066078132142075e+18
14583.0	1.6062245695913981e+18
14584.0	1.6058377591324672e+18
14585.0	1.6054578155880448e+18
14586.0	1.6050738840993784e+18
14587.0	1.6046861307609085e+18
14588.0	1.6043085762920448e+18
14589.0	1.6039426920546301e+18
14590.0	1.6035766366896125e+18
14591.0	1.6032091686830075e+18
14592.0	1.6028414892834816e+18
14593.0	1.6024359420297213e+18
14594.0	1.6021114371178488e+18
14595.0	1.6017440211206141e+18
14596.0	1.6013435925954557e+18
14597.0	1.6009986178023421e+18
14598.0	1.6006486266216443e+18
14599.0	1.6002855089471485e+18
14600.0	1.599919596188467e+18
14601.0	1.599554255532851e+18
14602.0	1.5991690858856443e+18
14603.0	1.598819688618393e+18
14604.0	1.598443620610867e+18
14605.0	1.5980892472213504e+18
14606.0	1.5977008177610755e+18
14607.0	1.597364474845593e+18
14608.0	1.596994352683417e+18
14609.0	1.5965921541619712e+18
14610.0	1.596260673283686e+18
14611.0	1.5959061639987195e+18
14612.0	1.5955426352824315e+18
14613.0	1.5951773080485885e+18
14614.0	1.5948111889301501e+18
14615.0	1.594441398956851e+18
14616.0	1.5940839821803515e+18
14617.0	1.593720049133158e+18
14618.0	1.5933376947027965e+18
14619.0	1.5929836535021563e+18
14620.0	1.592580057438617e+18
14621.0	1.5922634931830784e+18
14622.0	1.591898722952806e+18
14623.0	1.5915364911153155e+18
14624.0	1.591151452330393e+18
14625.0	1.5908082626330621e+18
14626.0	1.590435748039884e+18
14627.0	1.590066426150912e+18
14628.0	1.589720092403302e+18
14629.0	1.5893570233827325e+18
14630.0	1.588993702703923e+18
14631.0	1.5886253874479101e+18
14632.0	1.5864716022775816e+18
14633.0	1.5877289455648758e+18
14634.0	1.587537784288051e+18
14635.0	1.5870196619149297e+18
14636.0	1.5862258529730557e+18
14637.0	1.586455023032729e+18
14638.0	1.586089012966195e+18
14639.0	1.5857266938871803e+18
14640.0	1.5853656934973435e+18
14641.0	1.5782391045947338e+18
14642.0	1.5846409446096893e+18
14643.0	1.5842809357533181e+18
14644.0	1.583914299896627e+18
14645.0	1.583547528144486e+18
14646.0	1.5831862895181824e+18
14647.0	1.5828260290035707e+18
14648.0	1.5824705063747581e+18
