# Flux units: erg / (cm m2 s)
# Wavelength units: Angstrom
wave	flux
14000.0	1.8281819363344381e+18
14001.0	1.827748560712499e+18
14002.0	1.8274520603295741e+18
14003.0	1.8270824985264123e+18
14004.0	1.8267097188532221e+18
14005.0	1.8261637597233147e+18
14006.0	1.82575451644887e+18
14007.0	1.825381085819699e+18
14008.0	1.8249377730527227e+18
14009.0	1.824639698966937e+18
14010.0	1.8242589182394368e+18
14011.0	1.8234081892368381e+18
14012.0	1.8235804442689533e+18
14013.0	1.8232716495421437e+18
14014.0	1.8228952124358656e+18
14015.0	1.8225258754473981e+18
14016.0	1.8221558120054781e+18
14017.0	1.8217841413062656e+18
14018.0	1.821412265925017e+18
14019.0	1.8210408888270843e+18
14020.0	1.8206688372850685e+18
14021.0	1.8202823774699515e+18
14022.0	1.8198620075458555e+18
14023.0	1.819480320848691e+18
14024.0	1.8191084723109885e+18
14025.0	1.8187505438294013e+18
14026.0	1.8183831194435581e+18
14027.0	1.8180138210426875e+18
14028.0	1.817643140199219e+18
14029.0	1.8172720885792765e+18
14030.0	1.816474976203571e+18
14031.0	1.8165041903697915e+18
14032.0	1.8161579186978813e+18
14033.0	1.8157561798721533e+18
14034.0	1.8154194611470333e+18
14035.0	1.8150502348881917e+18
14036.0	1.814681575699251e+18
14037.0	1.8143147385159675e+18
14038.0	1.8139448596234235e+18
14039.0	1.8135668622360568e+18
14040.0	1.8131831790501885e+18
14041.0	1.8128169911451643e+18
14042.0	1.8124408291852285e+18
14043.0	1.8120519249297405e+18
14044.0	1.8117081346080765e+18
14045.0	1.811344708232806e+18
14046.0	1.810975656457011e+18
14047.0	1.8106042793590781e+18
14048.0	1.8102390561439741e+18
14049.0	1.8098717592649725e+18
14050.0	1.8095029373370365e+18
14051.0	1.8091273994895355e+18
14052.0	1.808765350523699e+18
14053.0	1.8083969983578107e+18
14054.0	1.8080281177096187e+18
14055.0	1.8076595440844797e+18
14056.0	1.807291195274035e+18
14057.0	1.8069229823590397e+18
14058.0	1.8065548399083515e+18
14059.0	1.806174419890995e+18
14060.0	1.8058038699098112e+18
14061.0	1.805430660739891e+18
14062.0	1.8050681017466877e+18
14063.0	1.8046917367824381e+18
14064.0	1.804261409580646e+18
14065.0	1.803963630773862e+18
14066.0	1.8036027864121341e+18
14067.0	1.8032295671758843e+18
14068.0	1.8028681423224827e+18
14069.0	1.8024994848112637e+18
14070.0	1.8021334965551104e+18
14071.0	1.8017644716228605e+18
14072.0	1.8013998389657597e+18
14073.0	1.8010329799720955e+18
14074.0	1.8006657552351227e+18
14075.0	1.8002856388853755e+18
14076.0	1.7999252441530365e+18
14077.0	1.79947682440151e+18
14078.0	1.799210095188377e+18
14079.0	1.7988447226560507e+18
14080.0	1.7984849738465275e+18
14081.0	1.7981145698271232e+18
14082.0	1.7977332673282043e+18
14083.0	1.797370892884377e+18
14084.0	1.797005998502707e+18
14085.0	1.796413964104499e+18
14086.0	1.7962714718535677e+18
14087.0	1.79591388898263e+18
14088.0	1.7955387353333755e+18
14089.0	1.7951774631526397e+18
14090.0	1.794816034943795e+18
14091.0	1.794452011299635e+18
14092.0	1.7940867847290877e+18
14093.0	1.7937216235896832e+18
14094.0	1.7933565396254715e+18
14095.0	1.7929916704096253e+18
14096.0	1.7926032090726397e+18
14097.0	1.7922493591322621e+18
14098.0	1.791885545203302e+18
14099.0	1.791530192024371e+18
14100.0	1.791156202713907e+18
14101.0	1.7908012605767675e+18
14102.0	1.79043667321815e+18
14103.0	1.790060826669875e+18
14104.0	1.789708172944998e+18
14105.0	1.7893436728279035e+18
14106.0	1.7889741714227197e+18
14107.0	1.7886001368137728e+18
14108.0	1.7882290264735741e+18
14109.0	1.7878701836337147e+18
14110.0	1.7875053026738176e+18
14111.0	1.787138918475366e+18
14112.0	1.7867821744652285e+18
14113.0	1.7864244724760576e+18
14114.0	1.7860510619795453e+18
14115.0	1.7856966751682555e+18
14116.0	1.7853075561644027e+18
14117.0	1.7842320326000637e+18
14118.0	1.784608087185817e+18
14119.0	1.784229885116416e+18
14120.0	1.7838726579224579e+18
14121.0	1.783508781917798e+18
14122.0	1.7831389969776637e+18
14123.0	1.7827804846489595e+18
14124.0	1.782416227801497e+18
14125.0	1.7817065029107707e+18
14126.0	1.7817064425127933e+18
14127.0	1.7813443331489787e+18
14128.0	1.780981134943846e+18
14129.0	1.7806105732186107e+18
14130.0	1.7802277238603776e+18
14131.0	1.7798772461404155e+18
14132.0	1.7795112075526141e+18
14133.0	1.7787292315811835e+18
14134.0	1.778777351992115e+18
14135.0	1.7784030590140416e+18
14136.0	1.778035517187686e+18
14137.0	1.7776999107919864e+18
14138.0	1.77733563884503e+18
14139.0	1.7769833156313085e+18
14140.0	1.7766129736876027e+18
14141.0	1.7762569578086397e+18
14142.0	1.7758393980682237e+18
14143.0	1.7755314052923387e+18
14144.0	1.7751673816481787e+18
14145.0	1.7747860153958397e+18
14146.0	1.774424640874086e+18
14147.0	1.7740641974878205e+18
14148.0	1.7736116757069821e+18
14149.0	1.7732322874884096e+18
14150.0	1.7728744428929021e+18
14151.0	1.7725081560023037e+18
14152.0	1.7721539470295037e+18
14153.0	1.7717936328278013e+18
14154.0	1.7714142244765693e+18
14155.0	1.7710001996955643e+18
14156.0	1.7706987282235387e+18
14157.0	1.7703538423496696e+18
14158.0	1.7699907666182136e+18
14159.0	1.7696340410630141e+18
14160.0	1.769267269310873e+18
14161.0	1.7688712313831424e+18
14162.0	1.7684729402753021e+18
14163.0	1.7681953562034176e+18
14164.0	1.767806332829696e+18
14165.0	1.7673735041449981e+18
14166.0	1.7671023323250685e+18
14167.0	1.7666423262281725e+18
14168.0	1.766026112506265e+18
14169.0	1.765691073180467e+18
14170.0	1.765365786450329e+18
14171.0	1.7650083126312957e+18
14172.0	1.764651845445222e+18
14173.0	1.7642405368954877e+18
14174.0	1.7639296064290816e+18
14175.0	1.7635761507532795e+18
14176.0	1.7632178833719293e+18
14177.0	1.7628630486089725e+18
14178.0	1.7625079051452413e+18
14179.0	1.762140880057139e+18
14180.0	1.7617932511084536e+18
14181.0	1.7614350676131837e+18
14182.0	1.7610765720616957e+18
14183.0	1.7607194270760957e+18
14184.0	1.760357711976857e+18
14185.0	1.7600039962542077e+18
14186.0	1.7594999734534144e+18
14187.0	1.7592702614896637e+18
14188.0	1.7589306352730107e+18
14189.0	1.7585722487734264e+18
14190.0	1.7582094347665403e+18
14191.0	1.757839889740595e+18
14192.0	1.7574778357415933e+18
14193.0	1.7571050225139707e+18
14194.0	1.7567685386698747e+18
14195.0	1.7564170811604987e+18
14196.0	1.7560457527164925e+18
14197.0	1.7556778250141693e+18
14198.0	1.755315588143513e+18
14199.0	1.754960132623565e+18
14200.0	1.754526527153766e+18
14201.0	1.754200430084096e+18
14202.0	1.7536392791851005e+18
14203.0	1.7532710897582077e+18
14204.0	1.7529245949493243e+18
14205.0	1.752568681411379e+18
14206.0	1.7521216743014397e+18
14207.0	1.751863667562905e+18
14208.0	1.7515079972945912e+18
14209.0	1.751051088271769e+18
14210.0	1.7507215267069947e+18
14211.0	1.750480771979673e+18
14212.0	1.7501336799019003e+18
14213.0	1.7497777831411707e+18
14214.0	1.7494229584445435e+18
14215.0	1.7490588710469624e+18
14216.0	1.7487009895415805e+18
14217.0	1.7483452639084541e+18
14218.0	1.7479814348799997e+18
14219.0	1.747635148108595e+18
14220.0	1.7472803183788027e+18
14221.0	1.746923421696e+18
14222.0	1.7465553983635456e+18
14223.0	1.7462155288772605e+18
14224.0	1.745861402112819e+18
14225.0	1.745257289796813e+18
14226.0	1.745150470940262e+18
14227.0	1.7447981343047677e+18
14228.0	1.7438464450494467e+18
14229.0	1.7439363558277112e+18
14230.0	1.7437360543236093e+18
14231.0	1.743372384678707e+18
14232.0	1.7430278477709307e+18
14233.0	1.74266984211415e+18
14234.0	1.74232041464791e+18
14235.0	1.7419643769585661e+18
14236.0	1.741610860884787e+18
14237.0	1.7412563046236152e+18
14238.0	1.7409098114924541e+18
14239.0	1.740553656362598e+18
14240.0	1.7389608123760635e+18
14241.0	1.7398512580820987e+18
14242.0	1.7394872092721147e+18
14243.0	1.738998510780416e+18
14244.0	1.738760577980825e+18
14245.0	1.7383925580038141e+18
14246.0	1.738038521836339e+18
14247.0	1.7377030244925435e+18
14248.0	1.7373414972981243e+18
14249.0	1.737000092696576e+18
14250.0	1.7366473164980216e+18
14251.0	1.736296728048435e+18
14252.0	1.7359441951195133e+18
14253.0	1.7355911085424637e+18
14254.0	1.7352376931319805e+18
14255.0	1.7348613130682365e+18
14256.0	1.7342876799205376e+18
14257.0	1.7341645636763648e+18
14258.0	1.7338299202928637e+18
14259.0	1.7334617073778685e+18
14260.0	1.7331141992251387e+18
14261.0	1.7327582588436475e+18
14262.0	1.7324356245913597e+18
14263.0	1.731728483391897e+18
14264.0	1.7316548700012541e+18
14265.0	1.7313852534292475e+18
14266.0	1.7310368376291325e+18
14267.0	1.730686292800307e+18
14268.0	1.7303351674798075e+18
14269.0	1.7299827972898816e+18
14270.0	1.7296329487155197e+18
14271.0	1.729280907359027e+18
14272.0	1.7289314480160763e+18
14273.0	1.7285794167259133e+18
14274.0	1.7276679844003837e+18
14275.0	1.727814566936576e+18
14276.0	1.7274950062702587e+18
14277.0	1.7271457012776957e+18
14278.0	1.726809697261977e+18
14279.0	1.7264582565298176e+18
14280.0	1.7261036952354813e+18
14281.0	1.725758752319078e+18
14282.0	1.7254087846264832e+18
14283.0	1.725125390604697e+18
14284.0	1.7248555609620477e+18
14285.0	1.724505472473497e+18
14286.0	1.7241526291660797e+18
14287.0	1.7238037754806272e+18
14288.0	1.7234538514087933e+18
14289.0	1.722289257604709e+18
14290.0	1.7227521913257981e+18
14291.0	1.7223984504373243e+18
14292.0	1.722050202409369e+18
14293.0	1.7216990468898813e+18
14294.0	1.7212433240162296e+18
14295.0	1.7209959188004861e+18
14296.0	1.7200157082779653e+18
14297.0	1.720306061488947e+18
14298.0	1.7197936551133184e+18
14299.0	1.719600730551091e+18
14300.0	1.7192587202920443e+18
14301.0	1.718911505740595e+18
14302.0	1.7185647072641021e+18
14303.0	1.7181906038685693e+18
14304.0	1.717855460524032e+18
14305.0	1.7175189380923387e+18
14306.0	1.71714729255895e+18
14307.0	1.716813011563315e+18
14308.0	1.7164741419991037e+18
14309.0	1.716122902593536e+18
14310.0	1.7156645893177341e+18
14311.0	1.715314888382873e+18
14312.0	1.7150215018512374e+18
14313.0	1.7146369244397565e+18
14314.0	1.7143631655731197e+18
14315.0	1.7140189340106752e+18
14316.0	1.7136312024825853e+18
14317.0	1.71331193709527e+18
14318.0	1.71297740947456e+18
14319.0	1.712630382827929e+18
14320.0	1.7122826817372157e+18
14321.0	1.7119363815440381e+18
14322.0	1.7115584311328763e+18
14323.0	1.711232657863475e+18
14324.0	1.7109024705085437e+18
14325.0	1.7105480602091523e+18
14326.0	1.7102085229117437e+18
14327.0	1.7098565536972795e+18
14328.0	1.7095096579129336e+18
14329.0	1.709168152648089e+18
14330.0	1.7088215085219837e+18
14331.0	1.7084746664247293e+18
14332.0	1.7081283779756027e+18
14333.0	1.7077818714226685e+18
14334.0	1.7074261256568827e+18
14335.0	1.70709030619054e+18
14336.0	1.7067259889451003e+18
14337.0	1.7064096578928637e+18
14338.0	1.7060623477112832e+18
14339.0	1.7057093987074048e+18
14340.0	1.705371617984512e+18
14341.0	1.705024223916851e+18
14342.0	1.7046808127602688e+18
14343.0	1.704329232777216e+18
14344.0	1.7039819813158907e+18
14345.0	1.7036415296602112e+18
14346.0	1.703286037230387e+18
14347.0	1.7029193275539453e+18
14348.0	1.7025906082054136e+18
14349.0	1.7022549196013565e+18
14350.0	1.7018924512051197e+18
14351.0	1.7015442350538747e+18
14352.0	1.7009508131799037e+18
14353.0	1.7004537059475453e+18
14354.0	1.7001069863239677e+18
14355.0	1.6997578658807805e+18
14356.0	1.6994150318604285e+18
14357.0	1.699075945870131e+18
14358.0	1.698730736195993e+18
14359.0	1.6983779583197181e+18
14360.0	1.698047561249587e+18
14361.0	1.6977038967570432e+18
14362.0	1.697296529175347e+18
14363.0	1.6968743221460987e+18
14364.0	1.696468674229043e+18
14365.0	1.696170744427315e+18
14366.0	1.6958297944883195e+18
14367.0	1.6954974177067003e+18
14368.0	1.695152870732595e+18
14369.0	1.6948092565716984e+18
14370.0	1.6944653504872443e+18
14371.0	1.694121508156211e+18
14372.0	1.693773345692057e+18
14373.0	1.6934336808878075e+18
14374.0	1.6930897278271485e+18
14375.0	1.6927451858862075e+18
14376.0	1.6924029894000637e+18
14377.0	1.6920589625196544e+18
14378.0	1.691713858541977e+18
14379.0	1.691372578091827e+18
14380.0	1.6910265077465085e+18
14381.0	1.6906756072407037e+18
14382.0	1.6903395898032128e+18
14383.0	1.689990915633971e+18
14384.0	1.6896397768916987e+18
14385.0	1.6893115893809147e+18
14386.0	1.6889573921521661e+18
14387.0	1.6886256461938688e+18
14388.0	1.688281282091417e+18
14389.0	1.687939917755187e+18
14390.0	1.6875960016044032e+18
14391.0	1.687254521505382e+18
14392.0	1.68691157172224e+18
14393.0	1.6865777990762496e+18
14394.0	1.6862063280259067e+18
14395.0	1.6858823801176061e+18
14396.0	1.6855505083301885e+18
14397.0	1.685208409151897e+18
14398.0	1.684865162412032e+18
14399.0	1.684523940682137e+18
14400.0	1.6841708088066043e+18
14401.0	1.6838336907837437e+18
14402.0	1.683486779899904e+18
14403.0	1.6812355442704356e+18
14404.0	1.67734525684613e+18
14405.0	1.6810752329383916e+18
14406.0	1.682118668399411e+18
14407.0	1.679211599652455e+18
14408.0	1.6814053817057275e+18
14409.0	1.681077244526592e+18
14410.0	1.6807392725434365e+18
14411.0	1.6803965324754941e+18
14412.0	1.6800532018495485e+18
14413.0	1.6797149480091648e+18
14414.0	1.6793730350579707e+18
14415.0	1.6790358935470077e+18
14416.0	1.6786933329952765e+18
14417.0	1.6783455027199997e+18
14418.0	1.6779946458349568e+18
14419.0	1.677671320361369e+18
14420.0	1.6773274243432448e+18
14421.0	1.6769888383139835e+18
14422.0	1.6766439591510013e+18
14423.0	1.6762993987551232e+18
14424.0	1.6655534342012884e+18
14425.0	1.6756170375036925e+18
14426.0	1.6752840886190077e+18
14427.0	1.674943734271181e+18
14428.0	1.6745874130468861e+18
14429.0	1.6742352727048187e+18
14430.0	1.6738840366546944e+18
14431.0	1.6734313387130877e+18
14432.0	1.6731955953401853e+18
14433.0	1.6709346608021494e+18
14434.0	1.6725092176232443e+18
14435.0	1.6721613420494843e+18
14436.0	1.6718442392453115e+18
14437.0	1.671504428479283e+18
14438.0	1.671108523091558e+18
14439.0	1.6708098181824512e+18
14440.0	1.6704844609880061e+18
14441.0	1.6701378621603837e+18
14442.0	1.669794855334707e+18
14443.0	1.6694224883810304e+18
14444.0	1.669122280233369e+18
14445.0	1.6687870060265472e+18
14446.0	1.6659754248044554e+18
14447.0	1.6680898976022525e+18
14448.0	1.667769576928051e+18
14449.0	1.6674321485266936e+18
14450.0	1.667094443301273e+18
14451.0	1.6667578923483133e+18
14452.0	1.66641786683392e+18
14453.0	1.666048662385459e+18
14454.0	1.6657419882987523e+18
14455.0	1.6653985804976123e+18
14456.0	1.6650569259155453e+18
14457.0	1.6647050540089341e+18
14458.0	1.6643676289630203e+18
14459.0	1.6640272611934203e+18
14460.0	1.6637789617520637e+18
14461.0	1.663510781309747e+18
14462.0	1.6631009877426176e+18
14463.0	1.6628513377353728e+18
14464.0	1.66251983840215e+18
14465.0	1.6621447183073277e+18
14466.0	1.6617835199463421e+18
14467.0	1.6614096094887933e+18
14468.0	1.6611023834316797e+18
14469.0	1.660744308988313e+18
14470.0	1.660406667516313e+18
14471.0	1.6600808271380477e+18
14472.0	1.6597470293262333e+18
14473.0	1.6594147011985403e+18
14474.0	1.6590769540300797e+18
14475.0	1.6587338314416123e+18
14476.0	1.658278544775577e+18
14477.0	1.6580640984006653e+18
14478.0	1.6577272974671867e+18
14479.0	1.6573873524834304e+18
14480.0	1.6570375139753981e+18
14481.0	1.6567144082833405e+18
14482.0	1.6563736848367613e+18
14483.0	1.65603192120279e+18
14484.0	1.6556927278383104e+18
14485.0	1.6553360375152635e+18
14486.0	1.6547804868509693e+18
14487.0	1.6546914937864192e+18
14488.0	1.6540714598924288e+18
14489.0	1.653515050234675e+18
14490.0	1.653184035762995e+18
14491.0	1.6528494074789888e+18
14492.0	1.6524923010809853e+18
14493.0	1.6521378404499453e+18
14494.0	1.6517873560190976e+18
14495.0	1.65146721821655e+18
14496.0	1.65101931855872e+18
14497.0	1.6507923731578872e+18
14498.0	1.650456286933811e+18
14499.0	1.6501198047674365e+18
14500.0	1.6497826699673595e+18
14501.0	1.649388495988326e+18
14502.0	1.6488842500505597e+18
14503.0	1.6487579276804093e+18
14504.0	1.6484299213635581e+18
14505.0	1.648044473214566e+18
14506.0	1.6476602783236093e+18
14507.0	1.6472295568572413e+18
14508.0	1.6470962350325757e+18
14509.0	1.6467605011300347e+18
14510.0	1.64642151244759e+18
14511.0	1.6460872129970176e+18
14512.0	1.6457379868573693e+18
14513.0	1.6454145942749181e+18
14514.0	1.645046842733363e+18
14515.0	1.6447406367309821e+18
14516.0	1.642388204290049e+18
14517.0	1.644067875402547e+18
14518.0	1.6437330759909376e+18
14519.0	1.6433970400985085e+18
14520.0	1.6430610964807683e+18
14521.0	1.64272226214871e+18
14522.0	1.6423709958995965e+18
14523.0	1.6419081175433213e+18
14524.0	1.6415734322167803e+18
14525.0	1.641358690562867e+18
14526.0	1.6410274210775035e+18
14527.0	1.640662293492531e+18
14528.0	1.640249370974617e+18
14529.0	1.6400074233872381e+18
14530.0	1.6396670421958653e+18
14531.0	1.6393431546855421e+18
14532.0	1.638834605391872e+18
14533.0	1.6386712154406907e+18
14534.0	1.6383380299972603e+18
14535.0	1.6379931072135163e+18
14536.0	1.637666822239027e+18
14537.0	1.6373202972311552e+18
14538.0	1.6369948074967037e+18
14539.0	1.6366594930245632e+18
14540.0	1.6363239453491197e+18
14541.0	1.635971516438937e+18
14542.0	1.6356523852693504e+18
14543.0	1.6352319364923392e+18
14544.0	1.6349808033791997e+18
14545.0	1.634636529873715e+18
14546.0	1.6211084247564232e+18
14547.0	1.6219119510618048e+18
14548.0	1.633623583647334e+18
14549.0	1.6332001451704315e+18
14550.0	1.632959689077555e+18
14551.0	1.632629547021107e+18
14552.0	1.6322923216240635e+18
14553.0	1.6319522860433405e+18
14554.0	1.631623559983923e+18
14555.0	1.6312876734087168e+18
14556.0	1.6309499530838013e+18
14557.0	1.6306176534773752e+18
14558.0	1.63028178871255e+18
14559.0	1.6284610698674156e+18
14560.0	1.6296042525884413e+18
14561.0	1.6292703021039616e+18
14562.0	1.628920277368832e+18
14563.0	1.628604068790272e+18
14564.0	1.6282597449531387e+18
14565.0	1.6279348927528957e+18
14566.0	1.627599618546073e+18
14567.0	1.6272637437149184e+18
14568.0	1.6269114641219581e+18
14569.0	1.6265933580402688e+18
14570.0	1.6258433275658237e+18
14571.0	1.6260579769450496e+18
14572.0	1.625779666419712e+18
14573.0	1.6254419796492285e+18
14574.0	1.6251116161335293e+18
14575.0	1.6247581487136765e+18
14576.0	1.6244213813346304e+18
14577.0	1.6238311051886592e+18
14578.0	1.6234625231749115e+18
14579.0	1.6231229523230715e+18
14580.0	1.6227878676987901e+18
14581.0	1.6224482968469501e+18
14582.0	1.6221174870573053e+18
14583.0	1.6217858216296443e+18
14584.0	1.6214391154278397e+18
14585.0	1.6211163821899776e+18
14586.0	1.6207864079056893e+18
14587.0	1.6204514289778685e+18
14588.0	1.620118152937472e+18
14589.0	1.6197920592232443e+18
14590.0	1.6194659957080061e+18
14591.0	1.6191376790126587e+18
14592.0	1.6188072198668285e+18
14593.0	1.618387994148864e+18
14594.0	1.6181582972846075e+18
14595.0	1.6178275529261056e+18
14596.0	1.6174387057131515e+18
14597.0	1.6171091290488832e+18
14598.0	1.6168458056105981e+18
14599.0	1.616526875767603e+18
14600.0	1.616183603861913e+18
14601.0	1.615855100939469e+18
14602.0	1.6155225429639163e+18
14603.0	1.6152017776934907e+18
14604.0	1.6148370074632192e+18
14605.0	1.6145341636149248e+18
14606.0	1.6141685763342333e+18
14607.0	1.6138837763817467e+18
14608.0	1.613566760819097e+18
14609.0	1.6132325620318205e+18
14610.0	1.6128890502119421e+18
14611.0	1.6125834716774397e+18
14612.0	1.6122623138201597e+18
14613.0	1.6119360439451648e+18
14614.0	1.6116062407884797e+18
14615.0	1.6112805748932605e+18
14616.0	1.610955091869696e+18
14617.0	1.6106277365088253e+18
14618.0	1.6102948178231293e+18
14619.0	1.6099252375650301e+18
14620.0	1.6094998344761344e+18
14621.0	1.6093187412066304e+18
14622.0	1.6089893507694587e+18
14623.0	1.608664678085427e+18
14624.0	1.6082880715292667e+18
14625.0	1.6080067511713787e+18
14626.0	1.6076780318228475e+18
14627.0	1.6073455912878083e+18
14628.0	1.607025450129817e+18
14629.0	1.6066973750263803e+18
14630.0	1.6063675265712125e+18
14631.0	1.606039882642227e+18
14632.0	1.6048855850156035e+18
14633.0	1.6052500398342141e+18
14634.0	1.6050496410222587e+18
14635.0	1.6046007011770363e+18
14636.0	1.6041441293762557e+18
14637.0	1.6040666941358075e+18
14638.0	1.6037344465387515e+18
14639.0	1.6033981975756797e+18
14640.0	1.6030757898158077e+18
14641.0	1.5994412593053678e+18
14642.0	1.6024161298153467e+18
14643.0	1.6020908497960957e+18
14644.0	1.601752087606067e+18
14645.0	1.6014080909246461e+18
14646.0	1.601087944733491e+18
14647.0	1.6007529238626304e+18
14648.0	1.6006191003992061e+18
