# Flux units: erg / (cm m2 s)
# Wavelength units: Angstrom
wave	flux
14000.0	2.0754946156658683e+18
14001.0	2.075019114132275e+18
14002.0	2.0746317449920507e+18
14003.0	2.0741950223155197e+18
14004.0	2.0737572057645053e+18
14005.0	2.073319350625894e+18
14006.0	2.072876633450086e+18
14007.0	2.0724375586078715e+18
14008.0	2.0719368006533117e+18
14009.0	2.071567676735488e+18
14010.0	2.0711218020876283e+18
14011.0	2.070283288576e+18
14012.0	2.0702569114370043e+18
14013.0	2.0698202978123773e+18
14014.0	2.0693792986234872e+18
14015.0	2.0689449784442877e+18
14016.0	2.0685099670437883e+18
14017.0	2.0680734574379003e+18
14018.0	2.067636828713779e+18
14019.0	2.06720064290816e+18
14020.0	2.066763901776691e+18
14021.0	2.0663272076214267e+18
14022.0	2.065890642650726e+18
14023.0	2.0654453149401088e+18
14024.0	2.0650087952678907e+18
14025.0	2.0645844357218301e+18
14026.0	2.064147778476441e+18
14027.0	2.0637136965337088e+18
14028.0	2.0632783261007872e+18
14029.0	2.062842687232409e+18
14030.0	2.062019435954176e+18
14031.0	2.0619507164774392e+18
14032.0	2.0615357018406907e+18
14033.0	2.061071140729651e+18
14034.0	2.0606672930078717e+18
14035.0	2.0602336372064248e+18
14036.0	2.0597992482406397e+18
14037.0	2.0593648894738427e+18
14038.0	2.0589306229817344e+18
14039.0	2.0584964386979835e+18
14040.0	2.0580563974881275e+18
14041.0	2.0576255904579581e+18
14042.0	2.0571860643086333e+18
14043.0	2.0567341901283325e+18
14044.0	2.056319623443251e+18
14045.0	2.0558916081418237e+18
14046.0	2.0554567309590525e+18
14047.0	2.055021392402841e+18
14048.0	2.0545922563833848e+18
14049.0	2.0541605031182328e+18
14050.0	2.0537275351826424e+18
14051.0	2.0532884989280253e+18
14052.0	2.052861755339571e+18
14053.0	2.052429121270579e+18
14054.0	2.051996629807923e+18
14055.0	2.0515641651888125e+18
14056.0	2.0511317894889467e+18
14057.0	2.0506995597508605e+18
14058.0	2.0502674122211325e+18
14059.0	2.0498353720655867e+18
14060.0	2.0494034510282747e+18
14061.0	2.0489671679148027e+18
14062.0	2.048539885777715e+18
14063.0	2.0480971048484861e+18
14064.0	2.0476148571963387e+18
14065.0	2.047239663281766e+18
14066.0	2.0468140739657725e+18
14067.0	2.0463773999431677e+18
14068.0	2.0459518559256573e+18
14069.0	2.0455195976663037e+18
14070.0	2.0450897268047872e+18
14071.0	2.0446573511049216e+18
14072.0	2.044228572440166e+18
14073.0	2.043798037200896e+18
14074.0	2.0433676378570747e+18
14075.0	2.0429246539235325e+18
14076.0	2.0425005812678653e+18
14077.0	2.0419880322859e+18
14078.0	2.041640037593907e+18
14079.0	2.041212393068953e+18
14080.0	2.04078725506007e+18
14081.0	2.0403575687479293e+18
14082.0	2.039923765306982e+18
14083.0	2.0394974461820925e+18
14084.0	2.0390688671662077e+18
14085.0	2.0384350424006653e+18
14086.0	2.0382028641861627e+18
14087.0	2.0377815849369597e+18
14088.0	2.0373439697125373e+18
14089.0	2.0369187830497277e+18
14090.0	2.0364936349745147e+18
14091.0	2.0360664820219896e+18
14092.0	2.0356380087025661e+18
14093.0	2.0352095873925117e+18
14094.0	2.0347812315135997e+18
14095.0	2.0343528940896253e+18
14096.0	2.0339046689538043e+18
14097.0	2.033486199888281e+18
14098.0	2.0330602632839165e+18
14099.0	2.0326411264851963e+18
14100.0	2.0322055547256827e+18
14101.0	2.0317860555390973e+18
14102.0	2.0313583170617344e+18
14103.0	2.0309216262619133e+18
14104.0	2.0305039104933883e+18
14105.0	2.0300762626129915e+18
14106.0	2.029649607943782e+18
14107.0	2.0292213091074045e+18
14108.0	2.0287874150694912e+18
14109.0	2.028365605660262e+18
14110.0	2.027937056843366e+18
14111.0	2.027504645911347e+18
14112.0	2.027083754215833e+18
14113.0	2.0266630571360248e+18
14114.0	2.0262273343815677e+18
14115.0	2.0258095800254461e+18
14116.0	2.025360878416691e+18
14117.0	2.0242944581697533e+18
14118.0	2.0245321225338877e+18
14119.0	2.024092292716953e+18
14120.0	2.0236719110488064e+18
14121.0	2.023245135583641e+18
14122.0	2.0228188516909053e+18
14123.0	2.022392728859443e+18
14124.0	2.021907870672486e+18
14125.0	2.0211501327450102e+18
14126.0	2.0210492077244416e+18
14127.0	2.0206246116196347e+18
14128.0	2.020198839431987e+18
14129.0	2.0197661785194493e+18
14130.0	2.0193350057459712e+18
14131.0	2.0189255359791101e+18
14132.0	2.018496703627264e+18
14133.0	2.0176969790390264e+18
14134.0	2.017651519494553e+18
14135.0	2.0172160483983355e+18
14136.0	2.0167823321989112e+18
14137.0	2.0163778469429243e+18
14138.0	2.015934715369881e+18
14139.0	2.01544501863383e+18
14140.0	2.0150133995864061e+18
14141.0	2.0142665148399616e+18
14142.0	2.013685899014963e+18
14143.0	2.0132955837956093e+18
14144.0	2.0128791783276544e+18
14145.0	2.0124558623244288e+18
14146.0	2.0120314658684925e+18
14147.0	2.011608418300723e+18
14148.0	2.0111840654655488e+18
14149.0	2.0107610699071488e+18
14150.0	2.0103407217934333e+18
14151.0	2.0099125101985787e+18
14152.0	2.0094954118316027e+18
14153.0	2.0090727585284096e+18
14154.0	2.008632118371942e+18
14155.0	2.0081933035765755e+18
14156.0	2.0077995305730045e+18
14157.0	2.007383661975961e+18
14158.0	2.0069586548293624e+18
14159.0	2.0065396874805243e+18
14160.0	2.006112234215833e+18
14161.0	2.005649506854502e+18
14162.0	2.0051176808513533e+18
14163.0	2.0047691627102203e+18
14164.0	2.0043199728844797e+18
14165.0	2.0038406864109565e+18
14166.0	2.0035031892230136e+18
14167.0	2.0030741186347e+18
14168.0	2.0026606022033405e+18
14169.0	2.0022421281046525e+18
14170.0	2.0018180890034173e+18
14171.0	2.0013982257512445e+18
14172.0	2.0009792080707584e+18
14173.0	2.0005117461790715e+18
14174.0	2.0001336095408125e+18
14175.0	1.99971725943767e+18
14176.0	1.9992968156938237e+18
14177.0	1.9988764373811192e+18
14178.0	1.9984548141989888e+18
14179.0	1.998026691523379e+18
14180.0	1.9976159953420288e+18
14181.0	1.9971960129716221e+18
14182.0	1.9967755742609405e+18
14183.0	1.9963563250548733e+18
14184.0	1.995904509594828e+18
14185.0	1.9954351904653307e+18
14186.0	1.9948788227506173e+18
14187.0	1.9945785508495352e+18
14188.0	1.9941757366042621e+18
14189.0	1.993755163675852e+18
14190.0	1.9933366224683003e+18
14191.0	1.992917022618419e+18
14192.0	1.9924933828149243e+18
14193.0	1.992059369658777e+18
14194.0	1.991659669264793e+18
14195.0	1.9912425742532605e+18
14196.0	1.9908236438142973e+18
14197.0	1.9904049784553464e+18
14198.0	1.9899831958896637e+18
14199.0	1.9895657938550781e+18
14200.0	1.9890763621990397e+18
14201.0	1.9887268122591227e+18
14202.0	1.988313175031808e+18
14203.0	1.9878846966792187e+18
14204.0	1.987474995386777e+18
14205.0	1.9870572259311616e+18
14206.0	1.98655314273239e+18
14207.0	1.9862234905706493e+18
14208.0	1.9858061220904955e+18
14209.0	1.985272814659174e+18
14210.0	1.9848240006430712e+18
14211.0	1.984469534978867e+18
14212.0	1.9840550270140416e+18
14213.0	1.983637324667289e+18
14214.0	1.9832205232570365e+18
14215.0	1.9827958784983035e+18
14216.0	1.982387049621094e+18
14217.0	1.981970023396147e+18
14218.0	1.981544585075097e+18
14219.0	1.981136271258419e+18
14220.0	1.980719684596531e+18
14221.0	1.9803012708958205e+18
14222.0	1.9798720744783872e+18
14223.0	1.9794697971040256e+18
14224.0	1.979053735568998e+18
14225.0	1.978419818528768e+18
14226.0	1.97822006731735e+18
14227.0	1.9778054117130237e+18
14228.0	1.9768932613226493e+18
14229.0	1.97686325191639e+18
14230.0	1.9765580257034235e+18
14231.0	1.976133703067238e+18
14232.0	1.9757267767263227e+18
14233.0	1.9753076550270973e+18
14234.0	1.9748961216626688e+18
14235.0	1.9744791306698747e+18
14236.0	1.9740655269969915e+18
14237.0	1.9735950619836408e+18
14238.0	1.9731559267434493e+18
14239.0	1.972736880541696e+18
14240.0	1.971291853894451e+18
14241.0	1.9719101597351933e+18
14242.0	1.9714958564524032e+18
14243.0	1.9709724559671293e+18
14244.0	1.9706666660397053e+18
14245.0	1.970239570129715e+18
14246.0	1.969821649679155e+18
14247.0	1.9694198672326648e+18
14248.0	1.968998760788787e+18
14249.0	1.9685934047952893e+18
14250.0	1.9681791401000955e+18
14251.0	1.9677668735713277e+18
14252.0	1.9673528588566525e+18
14253.0	1.9669384314224635e+18
14254.0	1.966523547648e+18
14255.0	1.966089321421209e+18
14256.0	1.9654673145266173e+18
14257.0	1.9652715579703293e+18
14258.0	1.9648709834833915e+18
14259.0	1.964443629204275e+18
14260.0	1.9640356475764733e+18
14261.0	1.9636168194785277e+18
14262.0	1.9632363088642045e+18
14263.0	1.9624867632513024e+18
14264.0	1.962336462884044e+18
14265.0	1.9619949945290752e+18
14266.0	1.9615859022495741e+18
14267.0	1.9611733924511741e+18
14268.0	1.9607609698942973e+18
14269.0	1.9598943780339702e+18
14270.0	1.9594037015085053e+18
14271.0	1.9589899032199165e+18
14272.0	1.9585785678266368e+18
14273.0	1.958164642031206e+18
14274.0	1.9572380280029181e+18
14275.0	1.9572877976141824e+18
14276.0	1.9568614382239744e+18
14277.0	1.9564518644383741e+18
14278.0	1.956052504621875e+18
14279.0	1.9556399730130936e+18
14280.0	1.955224320842137e+18
14281.0	1.954817652870348e+18
14282.0	1.954406347676057e+18
14283.0	1.9539949082640384e+18
14284.0	1.9535835510603773e+18
14285.0	1.9531721233924093e+18
14286.0	1.952760323270246e+18
14287.0	1.9523499861213181e+18
14288.0	1.9519385769082877e+18
14289.0	1.9508656538124275e+18
14290.0	1.9511151662465024e+18
14291.0	1.950705790432051e+18
14292.0	1.9502959045902333e+18
14293.0	1.9498837353693181e+18
14294.0	1.9493779358613501e+18
14295.0	1.9490545852219387e+18
14296.0	1.948118065925325e+18
14297.0	1.9482421686697984e+18
14298.0	1.9476879434055677e+18
14299.0	1.9474132852801536e+18
14300.0	1.947008246376038e+18
14301.0	1.9466001405968381e+18
14302.0	1.9461923854614528e+18
14303.0	1.9457587917357053e+18
14304.0	1.9453623075340283e+18
14305.0	1.944933530546995e+18
14306.0	1.9444535092314107e+18
14307.0	1.9440558992785405e+18
14308.0	1.9436538030981115e+18
14309.0	1.9432401155391488e+18
14310.0	1.942733232223027e+18
14311.0	1.9423573487648763e+18
14312.0	1.941981076075315e+18
14313.0	1.9415539113787387e+18
14314.0	1.9411963301855227e+18
14315.0	1.9407912157839355e+18
14316.0	1.9403465742614525e+18
14317.0	1.9399626863935488e+18
14318.0	1.9395664353951741e+18
14319.0	1.9391585074544637e+18
14320.0	1.9387497859514363e+18
14321.0	1.938341829489459e+18
14322.0	1.9379056050962427e+18
14323.0	1.9375112096579581e+18
14324.0	1.9371173041143805e+18
14325.0	1.9367019891654653e+18
14326.0	1.9363013123375104e+18
14327.0	1.9358885659803643e+18
14328.0	1.9354810490814461e+18
14329.0	1.9350778523156475e+18
14330.0	1.9346701793886203e+18
14331.0	1.9342623504334843e+18
14332.0	1.933855011373056e+18
14333.0	1.93344760184832e+18
14334.0	1.9330402426552323e+18
14335.0	1.9326236341829627e+18
14336.0	1.9321990464667645e+18
14337.0	1.931818183530905e+18
14338.0	1.931410052585881e+18
14339.0	1.9309961821552637e+18
14340.0	1.9305973105557496e+18
14341.0	1.9301890604924925e+18
14342.0	1.9297840098443261e+18
14343.0	1.9293731844784125e+18
14344.0	1.92896592594862e+18
14345.0	1.928564232421376e+18
14346.0	1.928102374119833e+18
14347.0	1.9276606535106555e+18
14348.0	1.92726724289495e+18
14349.0	1.926861652020428e+18
14350.0	1.9264371515457533e+18
14351.0	1.926025480608153e+18
14352.0	1.925636943773696e+18
14353.0	1.9252358173163515e+18
14354.0	1.9248280605032443e+18
14355.0	1.924418152851046e+18
14356.0	1.9240139494522877e+18
14357.0	1.9236135075053563e+18
14358.0	1.9232076129632253e+18
14359.0	1.9227909860360187e+18
14360.0	1.922394736715366e+18
14361.0	1.921990422586982e+18
14362.0	1.92158572258263e+18
14363.0	1.9211801434521597e+18
14364.0	1.9207165034102781e+18
14365.0	1.9203568284205053e+18
14366.0	1.91995468358615e+18
14367.0	1.9195599039496187e+18
14368.0	1.9191545731219453e+18
14369.0	1.9187500425674747e+18
14370.0	1.918345240222105e+18
14371.0	1.9179405251182587e+18
14372.0	1.9175320217190397e+18
14373.0	1.917130922105241e+18
14374.0	1.9167265526120445e+18
14375.0	1.9163220270907387e+18
14376.0	1.9159175904886781e+18
14377.0	1.9155127780769787e+18
14378.0	1.9151070261411835e+18
14379.0	1.9147046581698555e+18
14380.0	1.9142994565267453e+18
14381.0	1.913888122811187e+18
14382.0	1.9134912225345533e+18
14383.0	1.9130824020459515e+18
14384.0	1.9126704173744125e+18
14385.0	1.9122807598219261e+18
14386.0	1.9118661696487421e+18
14387.0	1.9114732069847037e+18
14388.0	1.9109838894137341e+18
14389.0	1.910393968944742e+18
14390.0	1.9099893847031803e+18
14391.0	1.9095872029589504e+18
14392.0	1.9091824928882683e+18
14393.0	1.90878093190103e+18
14394.0	1.908350725495193e+18
14395.0	1.9079233947041787e+18
14396.0	1.9074958206435325e+18
14397.0	1.907092769839513e+18
14398.0	1.9066886771703805e+18
14399.0	1.9062862219575293e+18
14400.0	1.9058701839106045e+18
14401.0	1.9054753187102717e+18
14402.0	1.905075333103616e+18
14403.0	1.9031616466714598e+18
14404.0	1.8997618814222326e+18
14405.0	1.9027503112781804e+18
14406.0	1.903464136520499e+18
14407.0	1.9009885458923528e+18
14408.0	1.9026393954254843e+18
14409.0	1.902245345597849e+18
14410.0	1.9018517420441597e+18
14411.0	1.9014537109831675e+18
14412.0	1.9010498380955645e+18
14413.0	1.9006502383648765e+18
14414.0	1.9002462480367616e+18
14415.0	1.8998450762809341e+18
14416.0	1.8994419483017208e+18
14417.0	1.8990334298030077e+18
14418.0	1.8986239902351355e+18
14419.0	1.8982369532837883e+18
14420.0	1.8978325821128696e+18
14421.0	1.897433918550835e+18
14422.0	1.89702861792215e+18
14423.0	1.8966179620061181e+18
14424.0	1.887777300309602e+18
14425.0	1.8958152477179904e+18
14426.0	1.8954259844300797e+18
14427.0	1.895025777364172e+18
14428.0	1.894608987697971e+18
14429.0	1.8942194173870077e+18
14430.0	1.8938222704852987e+18
14431.0	1.893321051157299e+18
14432.0	1.893012264819097e+18
14433.0	1.8910527195447283e+18
14434.0	1.8922044485795835e+18
14435.0	1.8917970726092797e+18
14436.0	1.891416337180262e+18
14437.0	1.8910156519636987e+18
14438.0	1.8905660242526203e+18
14439.0	1.8902008245256187e+18
14440.0	1.8898130074337277e+18
14441.0	1.8894077034496e+18
14442.0	1.8890043036794877e+18
14443.0	1.888575603867648e+18
14444.0	1.8882078590369787e+18
14445.0	1.887810277605376e+18
14446.0	1.8853991047757827e+18
14447.0	1.8869959299956733e+18
14448.0	1.8866103811833853e+18
14449.0	1.886210481140531e+18
14450.0	1.8858063750496253e+18
14451.0	1.885359216944742e+18
14452.0	1.8849353556819965e+18
14453.0	1.8845094845087736e+18
14454.0	1.8841370303135741e+18
14455.0	1.8837332731887613e+18
14456.0	1.88333032472576e+18
14457.0	1.8829273410306045e+18
14458.0	1.8825340226895872e+18
14459.0	1.8821319852294141e+18
14460.0	1.8817315617374203e+18
14461.0	1.8813085108142077e+18
14462.0	1.8808714525933565e+18
14463.0	1.880525504721715e+18
14464.0	1.8801348103372797e+18
14465.0	1.8797217536016384e+18
14466.0	1.8793384378368e+18
14467.0	1.878907130845593e+18
14468.0	1.8785365104001021e+18
14469.0	1.8781190630670333e+18
14470.0	1.8777200018849787e+18
14471.0	1.8773330689523712e+18
14472.0	1.8769367726555133e+18
14473.0	1.8765436891955197e+18
14474.0	1.8761439468584955e+18
14475.0	1.875740688016998e+18
14476.0	1.8752460923338752e+18
14477.0	1.874946516687257e+18
14478.0	1.8745476366991355e+18
14479.0	1.8741476947132416e+18
14480.0	1.8737369180012541e+18
14481.0	1.87335094304768e+18
14482.0	1.8729490549047293e+18
14483.0	1.872545270936371e+18
14484.0	1.872145380959846e+18
14485.0	1.8717272424054781e+18
14486.0	1.8711365636063227e+18
14487.0	1.8709559451320317e+18
14488.0	1.8705482386505725e+18
14489.0	1.8701507109060605e+18
14490.0	1.8697585636147192e+18
14491.0	1.8693612908838907e+18
14492.0	1.8689639258783744e+18
14493.0	1.8685616032055296e+18
14494.0	1.8681509690998784e+18
14495.0	1.8677676717899776e+18
14496.0	1.8672698649477117e+18
14497.0	1.8669698598043645e+18
14498.0	1.8665721089228797e+18
14499.0	1.8661739805540347e+18
14500.0	1.8657752532385787e+18
14501.0	1.8653270515908605e+18
14502.0	1.8647885415448568e+18
14503.0	1.864566948075929e+18
14504.0	1.8641771210735613e+18
14505.0	1.8637359373352955e+18
14506.0	1.8632899016261632e+18
14507.0	1.862806331929395e+18
14508.0	1.8625886660067325e+18
14509.0	1.8621905795809275e+18
14510.0	1.8617902315864061e+18
14511.0	1.8613937826168827e+18
14512.0	1.86098381792215e+18
14513.0	1.8605973815951355e+18
14514.0	1.860172082524979e+18
14515.0	1.8597858122924027e+18
14516.0	1.8576682776526853e+18
14517.0	1.8589343165710333e+18
14518.0	1.8585378776678397e+18
14519.0	1.8581398264741883e+18
14520.0	1.8577415940866043e+18
14521.0	1.8573427090653184e+18
14522.0	1.8569447400800253e+18
14523.0	1.85643706655703e+18
14524.0	1.8560393995616253e+18
14525.0	1.8557461757689853e+18
14526.0	1.8553523474006008e+18
14527.0	1.8549338682687483e+18
14528.0	1.8544654282653693e+18
14529.0	1.8541491290898432e+18
14530.0	1.8537464893276155e+18
14531.0	1.853359588271718e+18
14532.0	1.8528186203635707e+18
14533.0	1.8525640563097592e+18
14534.0	1.852167957984051e+18
14535.0	1.851761613812531e+18
14536.0	1.8513716458815483e+18
14537.0	1.850964568545689e+18
14538.0	1.850575800185651e+18
14539.0	1.8501778966315003e+18
14540.0	1.8497797934284792e+18
14541.0	1.849364228499046e+18
14542.0	1.8489816207327227e+18
14543.0	1.8485110969991168e+18
14544.0	1.848185910932275e+18
14545.0	1.8477820548218875e+18
14546.0	1.8375124004634575e+18
14547.0	1.8380006459703235e+18
14548.0	1.846581210487193e+18
14549.0	1.8461059555786747e+18
14550.0	1.8457921394311163e+18
14551.0	1.845398883165798e+18
14552.0	1.8449992867905533e+18
14553.0	1.8445971318898683e+18
14554.0	1.8442038856908797e+18
14555.0	1.8438049671151616e+18
14556.0	1.8434042013679616e+18
14557.0	1.8430082171273213e+18
14558.0	1.8426087197376507e+18
14559.0	1.8409828581900268e+18
14560.0	1.841806260463206e+18
14561.0	1.8414088065384445e+18
14562.0	1.840996404114227e+18
14563.0	1.840615418704691e+18
14564.0	1.840208703756697e+18
14565.0	1.8398194555682813e+18
14566.0	1.8394207735513083e+18
14567.0	1.8390211704651776e+18
14568.0	1.838608455984742e+18
14569.0	1.8382235967160317e+18
14570.0	1.8374790574243835e+18
14571.0	1.8374238872272893e+18
14572.0	1.8369959004471293e+18
14573.0	1.8365933059833853e+18
14574.0	1.8362073360629755e+18
14575.0	1.8358269412114427e+18
14576.0	1.8354268129984507e+18
14577.0	1.8350275035135997e+18
14578.0	1.8346322977357821e+18
14579.0	1.8342346743611387e+18
14580.0	1.8338357054537725e+18
14581.0	1.8334324365459453e+18
14582.0	1.833036485859737e+18
14583.0	1.8326374229999613e+18
14584.0	1.832227632788275e+18
14585.0	1.8318378997383163e+18
14586.0	1.8314356626292728e+18
14587.0	1.8310363816656893e+18
14588.0	1.8306384412016635e+18
14589.0	1.8302479095562237e+18
14590.0	1.8298576748675072e+18
14591.0	1.8294661399445504e+18
14592.0	1.8290722444673021e+18
14593.0	1.8285984793755643e+18
14594.0	1.8282316908462075e+18
14595.0	1.8278366545182717e+18
14596.0	1.8273918167023613e+18
14597.0	1.8269971712835581e+18
14598.0	1.8266611504906237e+18
14599.0	1.8262762073358333e+18
14600.0	1.8258832748707837e+18
14601.0	1.8254922298425341e+18
14602.0	1.8250965643689984e+18
14603.0	1.8247081835626493e+18
14604.0	1.8242828928811005e+18
14605.0	1.823912945201971e+18
14606.0	1.8234865606459387e+18
14607.0	1.8231322510098427e+18
14608.0	1.822746366653235e+18
14609.0	1.822346834031411e+18
14610.0	1.821946494425497e+18
14611.0	1.8215651466280955e+18
14612.0	1.821178329458278e+18
14613.0	1.8207865395216381e+18
14614.0	1.8203913706536955e+18
14615.0	1.8199998961287168e+18
14616.0	1.8196079182872579e+18
14617.0	1.8192144388849661e+18
14618.0	1.8188154917879803e+18
14619.0	1.818385265249484e+18
14620.0	1.8178956456886272e+18
14621.0	1.8176402696175613e+18
14622.0	1.817243834069811e+18
14623.0	1.8168517421432832e+18
14624.0	1.8164131454517243e+18
14625.0	1.8160596109230075e+18
14626.0	1.8156641803304955e+18
14627.0	1.8152648658124797e+18
14628.0	1.8148765168828413e+18
14629.0	1.8144809285844987e+18
14630.0	1.8140838253035515e+18
14631.0	1.8136885507391485e+18
14632.0	1.812622316719309e+18
14633.0	1.812797668825497e+18
14634.0	1.8124971821760507e+18
14635.0	1.812052082635571e+18
14636.0	1.8115895784112123e+18
14637.0	1.8113107712802813e+18
14638.0	1.8109106413895677e+18
14639.0	1.8105070537146365e+18
14640.0	1.8101141564817403e+18
14641.0	1.807067660681214e+18
14642.0	1.8093174350151675e+18
14643.0	1.8089241602949115e+18
14644.0	1.8085173933375488e+18
14645.0	1.808110144874086e+18
14646.0	1.8077184438566907e+18
14647.0	1.8073147471298552e+18
14648.0	1.8069275105296381e+18
