# Flux units: erg / (cm m2 s)
# Wavelength units: Angstrom
wave	flux
14000.0	2.03641746138071e+18
14001.0	2.035933546073292e+18
14002.0	2.0354967462215675e+18
14003.0	2.0350353727815677e+18
14004.0	2.0345740127633405e+18
14005.0	2.0341126175129597e+18
14006.0	2.0336486654148605e+18
14007.0	2.0331865252560893e+18
14008.0	2.0326906192723963e+18
14009.0	2.032268019656294e+18
14010.0	2.0318020375150587e+18
14011.0	2.0311276789956605e+18
14012.0	2.0308860031991805e+18
14013.0	2.0304256632356861e+18
14014.0	2.0299631002910723e+18
14015.0	2.0295042316894203e+18
14016.0	2.029045113107251e+18
14017.0	2.0285851858632701e+18
14018.0	2.0281250841362427e+18
14019.0	2.027665685374566e+18
14020.0	2.0272058202062845e+18
14021.0	2.026746126165606e+18
14022.0	2.0262864925229053e+18
14023.0	2.025820599300915e+18
14024.0	2.0253622004613115e+18
14025.0	2.0249099638931453e+18
14026.0	2.024450528221593e+18
14027.0	2.0239926142435325e+18
14028.0	2.023534061053542e+18
14029.0	2.0230752914374653e+18
14030.0	2.0223947891015677e+18
14031.0	2.0221501923917821e+18
14032.0	2.0217004304629755e+18
14033.0	2.0212247712235517e+18
14034.0	2.0207827754680317e+18
14035.0	2.0203052673794045e+18
14036.0	2.019847657068953e+18
14037.0	2.019390155810406e+18
14038.0	2.0189327568928765e+18
14039.0	2.0184754754158584e+18
14040.0	2.0180140281561083e+18
14041.0	2.0175595937726464e+18
14042.0	2.017100178233753e+18
14043.0	2.0166329059246075e+18
14044.0	2.0161869792673792e+18
14045.0	2.0157334240100352e+18
14046.0	2.0152759814717435e+18
14047.0	2.0148185775210493e+18
14048.0	2.0143648679133181e+18
14049.0	2.0139095107829755e+18
14050.0	2.0134536016822264e+18
14051.0	2.0129944008916987e+18
14052.0	2.0125362050564093e+18
14053.0	2.0120645639602173e+18
14054.0	2.0116091833417728e+18
14055.0	2.0111538161451005e+18
14056.0	2.0106985580003325e+18
14057.0	2.010243444139622e+18
14058.0	2.0097884426862587e+18
14059.0	2.0093335670620155e+18
14060.0	2.0088788155891712e+18
14061.0	2.0084218042253315e+18
14062.0	2.007969656576409e+18
14063.0	2.0075091505184763e+18
14064.0	2.007028146058035e+18
14065.0	2.006603786511974e+18
14066.0	2.006152717638041e+18
14067.0	2.0056939211784187e+18
14068.0	2.0052451172286461e+18
14069.0	2.0047906593570816e+18
14070.0	2.0043377852547064e+18
14071.0	2.0038834683117565e+18
14072.0	2.0034171640479744e+18
14073.0	2.002956399620915e+18
14074.0	2.002503335936e+18
14075.0	2.0020433600380925e+18
14076.0	2.0015916888621056e+18
14077.0	2.001092724391936e+18
14078.0	2.0006881284063227e+18
14079.0	2.0002370259779581e+18
14080.0	1.99978718855168e+18
14081.0	1.9993349217845243e+18
14082.0	1.998877626885734e+18
14083.0	1.998430181890457e+18
14084.0	1.997978809348915e+18
14085.0	1.9974106858389501e+18
14086.0	1.9970712559157243e+18
14087.0	1.9966238528634877e+18
14088.0	1.996167695459942e+18
14089.0	1.9957163615059963e+18
14090.0	1.9952690255626235e+18
14091.0	1.994818887824179e+18
14092.0	1.9943679582011387e+18
14093.0	1.9939171409854461e+18
14094.0	1.9934649379717117e+18
14095.0	1.9929945702662144e+18
14096.0	1.992532391519846e+18
14097.0	1.992088060375859e+18
14098.0	1.99163802330071e+18
14099.0	1.991193180451635e+18
14100.0	1.9907389541056507e+18
14101.0	1.990293316016537e+18
14102.0	1.9898433645051901e+18
14103.0	1.989388844557926e+18
14104.0	1.9889442835660797e+18
14105.0	1.9884940837519355e+18
14106.0	1.9880454777733115e+18
14107.0	1.9875940901322747e+18
14108.0	1.987142598472499e+18
14109.0	1.986696332915507e+18
14110.0	1.9862433447280637e+18
14111.0	1.9857884338716664e+18
14112.0	1.9853489295327227e+18
14113.0	1.9849035363909627e+18
14114.0	1.984449893892096e+18
14115.0	1.984006391542579e+18
14116.0	1.9835378240323581e+18
14117.0	1.9827467413880827e+18
14118.0	1.9826627596779515e+18
14119.0	1.982203456546406e+18
14120.0	1.9817408533364733e+18
14121.0	1.981291665188454e+18
14122.0	1.980843196783001e+18
14123.0	1.9803940069572603e+18
14124.0	1.979945796920934e+18
14125.0	1.9793346952167421e+18
14126.0	1.979062724801331e+18
14127.0	1.9786159324397565e+18
14128.0	1.978168692126515e+18
14129.0	1.9777179202093048e+18
14130.0	1.9772675912105981e+18
14131.0	1.9768296320532475e+18
14132.0	1.97638120055767e+18
14133.0	1.9757325447331835e+18
14134.0	1.975490979666329e+18
14135.0	1.9750388655718397e+18
14136.0	1.9745783158931453e+18
14137.0	1.9741529866239992e+18
14138.0	1.9737030099468283e+18
14139.0	1.9732623882452987e+18
14140.0	1.972807237474713e+18
14141.0	1.9723706137837563e+18
14142.0	1.971891310533017e+18
14143.0	1.9714720915259387e+18
14144.0	1.9710370650259448e+18
14145.0	1.9705923161292797e+18
14146.0	1.9701469464756221e+18
14147.0	1.9696866971090941e+18
14148.0	1.9692363312005115e+18
14149.0	1.9687914346643456e+18
14150.0	1.9683495244726272e+18
14151.0	1.9679011349200893e+18
14152.0	1.9674615030743037e+18
14153.0	1.967017564517171e+18
14154.0	1.9665638884638715e+18
14155.0	1.9660799580569592e+18
14156.0	1.9656820175929341e+18
14157.0	1.9652432480960507e+18
14158.0	1.964798339815833e+18
14159.0	1.9643565705527293e+18
14160.0	1.9639122092097533e+18
14161.0	1.9634472521564155e+18
14162.0	1.962987556438016e+18
14163.0	1.9625670959169533e+18
14164.0	1.962104004490035e+18
14165.0	1.9615752688500733e+18
14166.0	1.9612341662384125e+18
14167.0	1.9607877379424253e+18
14168.0	1.9603489030143997e+18
14169.0	1.9599092376141821e+18
14170.0	1.9594652302704637e+18
14171.0	1.959024553204121e+18
14172.0	1.9585839029813245e+18
14173.0	1.958093372417638e+18
14174.0	1.9576989853679608e+18
14175.0	1.9572596253130752e+18
14176.0	1.9568178443059192e+18
14177.0	1.956377081675776e+18
14178.0	1.955932802541158e+18
14179.0	1.9554650436927483e+18
14180.0	1.9550344631549947e+18
14181.0	1.954593791121817e+18
14182.0	1.9541529429278715e+18
14183.0	1.9537128010547197e+18
14184.0	1.9532704814989307e+18
14185.0	1.9528321867972605e+18
14186.0	1.9523163142488061e+18
14187.0	1.9519429222072317e+18
14188.0	1.9515118383529981e+18
14189.0	1.951070765344358e+18
14190.0	1.950632197174067e+18
14191.0	1.950192456276377e+18
14192.0	1.9497506735915005e+18
14193.0	1.949302904795955e+18
14194.0	1.9488743928889344e+18
14195.0	1.9484363381014525e+18
14196.0	1.947997243126579e+18
14197.0	1.9475583981322237e+18
14198.0	1.9471178200514555e+18
14199.0	1.9466792518811643e+18
14200.0	1.9462013193289728e+18
14201.0	1.945803034932019e+18
14202.0	1.9453659515453435e+18
14203.0	1.944916308734771e+18
14204.0	1.944488514892595e+18
14205.0	1.9440506933084155e+18
14206.0	1.9435663652814845e+18
14207.0	1.9431761389813755e+18
14208.0	1.942738666363289e+18
14209.0	1.942251112077721e+18
14210.0	1.941829925103206e+18
14211.0	1.9414245774983163e+18
14212.0	1.9409890141274112e+18
14213.0	1.9405513301164032e+18
14214.0	1.9401151157895163e+18
14215.0	1.939656747148902e+18
14216.0	1.9392220461268987e+18
14217.0	1.9387854039810045e+18
14218.0	1.9383442152095741e+18
14219.0	1.93791243845632e+18
14220.0	1.9374761888972792e+18
14221.0	1.9370385719951355e+18
14222.0	1.9365929087401981e+18
14223.0	1.9361678227406843e+18
14224.0	1.9357321016639483e+18
14225.0	1.9351785642655744e+18
14226.0	1.9348605940793341e+18
14227.0	1.9344252823666688e+18
14228.0	1.9337149199417344e+18
14229.0	1.9335104794984443e+18
14230.0	1.933119451247411e+18
14231.0	1.932676574688051e+18
14232.0	1.932249401602867e+18
14233.0	1.931811923951616e+18
14234.0	1.931379870374297e+18
14235.0	1.9309443489464312e+18
14236.0	1.9305104951738365e+18
14237.0	1.9300758394503165e+18
14238.0	1.9296419034693627e+18
14239.0	1.9292055498915837e+18
14240.0	1.9282323321126912e+18
14241.0	1.928339780114841e+18
14242.0	1.927906038749593e+18
14243.0	1.92741362410455e+18
14244.0	1.927038740568473e+18
14245.0	1.926598892296601e+18
14246.0	1.9261603224485883e+18
14247.0	1.925736518228377e+18
14248.0	1.9252999717126141e+18
14249.0	1.9248714832936955e+18
14250.0	1.924438424761139e+18
14251.0	1.9240065439891456e+18
14252.0	1.9235737790578688e+18
14253.0	1.923140898363801e+18
14254.0	1.9227077291016187e+18
14255.0	1.922255935451955e+18
14256.0	1.921704959934464e+18
14257.0	1.921389836841779e+18
14258.0	1.9209601522073592e+18
14259.0	1.920520481773977e+18
14260.0	1.9200918054502397e+18
14261.0	1.9196563209322493e+18
14262.0	1.9192430813249533e+18
14263.0	1.9186351387705341e+18
14264.0	1.918349971397017e+18
14265.0	1.9179459575807997e+18
14266.0	1.9175175060717563e+18
14267.0	1.9170862896775168e+18
14268.0	1.9166553702399997e+18
14269.0	1.9162235213447165e+18
14270.0	1.915793648805478e+18
14271.0	1.9153613150486525e+18
14272.0	1.9149322461380603e+18
14273.0	1.9145014407856125e+18
14274.0	1.913810878831001e+18
14275.0	1.9136177344872443e+18
14276.0	1.9131983879733243e+18
14277.0	1.912771775247155e+18
14278.0	1.912350917106073e+18
14279.0	1.9119208130412541e+18
14280.0	1.9114885145165821e+18
14281.0	1.9110617256296443e+18
14282.0	1.9106323211747328e+18
14283.0	1.910202906653491e+18
14284.0	1.909773601184153e+18
14285.0	1.909344339335577e+18
14286.0	1.908914750331289e+18
14287.0	1.9084863306989565e+18
14288.0	1.9080573876174845e+18
14289.0	1.907282065489919e+18
14290.0	1.9071977901785083e+18
14291.0	1.9067710784667645e+18
14292.0	1.9063430212222973e+18
14293.0	1.9059138533261307e+18
14294.0	1.9054343336493053e+18
14295.0	1.905053225766092e+18
14296.0	1.90434915647488e+18
14297.0	1.904202340735385e+18
14298.0	1.9036949792686075e+18
14299.0	1.9033408810254333e+18
14300.0	1.9029161288925184e+18
14301.0	1.9024891302903805e+18
14302.0	1.902063452055142e+18
14303.0	1.9016234024566784e+18
14304.0	1.9011913790783488e+18
14305.0	1.9007621793054717e+18
14306.0	1.900311870439424e+18
14307.0	1.8999022379335677e+18
14308.0	1.899482039137075e+18
14309.0	1.899053116188262e+18
14310.0	1.89851756396544e+18
14311.0	1.898148116247347e+18
14312.0	1.8977575258816507e+18
14313.0	1.8973226419879933e+18
14314.0	1.8969220373020672e+18
14315.0	1.8964979529023483e+18
14316.0	1.8960525513719803e+18
14317.0	1.8956353506639872e+18
14318.0	1.895220893030809e+18
14319.0	1.8947955167854587e+18
14320.0	1.8943698133843965e+18
14321.0	1.89394463007703e+18
14322.0	1.89350317958103e+18
14323.0	1.893087641495142e+18
14324.0	1.892669086865817e+18
14325.0	1.8922401152630781e+18
14326.0	1.891819200079462e+18
14327.0	1.8913917333929981e+18
14328.0	1.8909673184821245e+18
14329.0	1.8905451349409787e+18
14330.0	1.8901206545989627e+18
14331.0	1.8896961088258045e+18
14332.0	1.8892719623503872e+18
14333.0	1.8888478024531968e+18
14334.0	1.8884237348306941e+18
14335.0	1.88799303853015e+18
14336.0	1.8875592854208507e+18
14337.0	1.8871518742183933e+18
14338.0	1.886727650567782e+18
14339.0	1.8863002493124605e+18
14340.0	1.8858813490724861e+18
14341.0	1.8854569593274363e+18
14342.0	1.8850347355209725e+18
14343.0	1.8846070675079163e+18
14344.0	1.8841860214620155e+18
14345.0	1.8837656716705787e+18
14346.0	1.8833415805599741e+18
14347.0	1.882911583869337e+18
14348.0	1.8824971463688187e+18
14349.0	1.8820748906856445e+18
14350.0	1.8816427850989565e+18
14351.0	1.8812175145500672e+18
14352.0	1.8808044863356928e+18
14353.0	1.8803852102860797e+18
14354.0	1.8799621744623608e+18
14355.0	1.8795381638823933e+18
14356.0	1.8791174080823293e+18
14357.0	1.8786982159187965e+18
14358.0	1.878276552471347e+18
14359.0	1.877843816061337e+18
14360.0	1.8773868332187643e+18
14361.0	1.87696618143744e+18
14362.0	1.8765452008226808e+18
14363.0	1.876123893052211e+18
14364.0	1.875669529133056e+18
14365.0	1.8752767191416822e+18
14366.0	1.8748556714180603e+18
14367.0	1.8744403564691456e+18
14368.0	1.874019471484518e+18
14369.0	1.8735990965272568e+18
14370.0	1.8731786360061947e+18
14371.0	1.872758308025139e+18
14372.0	1.8723358526930941e+18
14373.0	1.8719177124610043e+18
14374.0	1.871497743512371e+18
14375.0	1.871077754431078e+18
14376.0	1.870657869368524e+18
14377.0	1.870237828277862e+18
14378.0	1.869817354335027e+18
14379.0	1.8693987762175997e+18
14380.0	1.868978907932262e+18
14381.0	1.8685550953234427e+18
14382.0	1.8681398659383293e+18
14383.0	1.8677141776367616e+18
14384.0	1.8672940308496384e+18
14385.0	1.8668831434080256e+18
14386.0	1.8664583006781435e+18
14387.0	1.8660452623974397e+18
14388.0	1.8656257044905981e+18
14389.0	1.8652078427602941e+18
14390.0	1.8647886019428347e+18
14391.0	1.8643707251130363e+18
14392.0	1.8639503468003323e+18
14393.0	1.863534395994931e+18
14394.0	1.863101636096819e+18
14395.0	1.8626905406177272e+18
14396.0	1.8622799669100541e+18
14397.0	1.8618623031508987e+18
14398.0	1.8614430740774907e+18
14399.0	1.8610266115670016e+18
14400.0	1.860600659863142e+18
14401.0	1.8601892254842877e+18
14402.0	1.8597737142419453e+18
14403.0	1.8576642024669153e+18
14404.0	1.8543791463989238e+18
14405.0	1.8579816039055345e+18
14406.0	1.8581051731345403e+18
14407.0	1.8552206798094346e+18
14408.0	1.8572596601683965e+18
14409.0	1.8568478868897787e+18
14410.0	1.856435492854169e+18
14411.0	1.8560214848503805e+18
14412.0	1.8556040794603517e+18
14413.0	1.855189014491955e+18
14414.0	1.85477168627712e+18
14415.0	1.854355941831475e+18
14416.0	1.853938727701708e+18
14417.0	1.8535157052997627e+18
14418.0	1.8530935469244416e+18
14419.0	1.8526917409898493e+18
14420.0	1.852274630878822e+18
14421.0	1.8518605960314877e+18
14422.0	1.8514449740595192e+18
14423.0	1.8510253758873597e+18
14424.0	1.8406318318550976e+18
14425.0	1.8501775443099645e+18
14426.0	1.8497655915151355e+18
14427.0	1.8493506842525693e+18
14428.0	1.8489258599776253e+18
14429.0	1.8485190561103864e+18
14430.0	1.8481058047590392e+18
14431.0	1.847637024178176e+18
14432.0	1.8472682056056832e+18
14433.0	1.84501292666716e+18
14434.0	1.8464404160905213e+18
14435.0	1.84602126754775e+18
14436.0	1.8456181982887936e+18
14437.0	1.8452039201718264e+18
14438.0	1.8447346949947387e+18
14439.0	1.844362435415244e+18
14440.0	1.8439612217163768e+18
14441.0	1.8435451501150203e+18
14442.0	1.8431294375460861e+18
14443.0	1.842700969259827e+18
14444.0	1.8423044531814397e+18
14445.0	1.8418924785762304e+18
14446.0	1.839408187283866e+18
14447.0	1.8410596944838656e+18
14448.0	1.840652454409011e+18
14449.0	1.840239255067033e+18
14450.0	1.8398237404692477e+18
14451.0	1.8394124184977403e+18
14452.0	1.838998370228633e+18
14453.0	1.8385518261698552e+18
14454.0	1.838173963000217e+18
14455.0	1.837759330883993e+18
14456.0	1.8373408970506237e+18
14457.0	1.83692436743127e+18
14458.0	1.8365205012545533e+18
14459.0	1.836106644245708e+18
14460.0	1.8356966040535037e+18
14461.0	1.8352721136451581e+18
14462.0	1.8348247558914045e+18
14463.0	1.834456975828582e+18
14464.0	1.8340489791012867e+18
14465.0	1.8336297399615485e+18
14466.0	1.8332259778035712e+18
14467.0	1.8327847135346688e+18
14468.0	1.8323998089674747e+18
14469.0	1.8319803047477245e+18
14470.0	1.8315680432521216e+18
14471.0	1.8311619993927677e+18
14472.0	1.8307527024312323e+18
14473.0	1.8303456099958781e+18
14474.0	1.8299340564987904e+18
14475.0	1.8295200266846205e+18
14476.0	1.828992103061913e+18
14477.0	1.8287008774356987e+18
14478.0	1.8282896745824253e+18
14479.0	1.8278781412179968e+18
14480.0	1.8274616350867453e+18
14481.0	1.827057841052057e+18
14482.0	1.8266235745599488e+18
14483.0	1.8261721785303037e+18
14484.0	1.825762733929267e+18
14485.0	1.8253396611956733e+18
14486.0	1.8248289174421504e+18
14487.0	1.824534326306406e+18
14488.0	1.8241151458869243e+18
14489.0	1.8237097378840576e+18
14490.0	1.8233026370600952e+18
14491.0	1.8228941152059387e+18
14492.0	1.8224846521499645e+18
14493.0	1.8220727849189376e+18
14494.0	1.8216567720378365e+18
14495.0	1.8212555113627643e+18
14496.0	1.8207705021808637e+18
14497.0	1.8204025358909437e+18
14498.0	1.8199929419726845e+18
14499.0	1.8195840677969915e+18
14500.0	1.8191745728643064e+18
14501.0	1.8187035139375104e+18
14502.0	1.8182055846215677e+18
14503.0	1.8179216017195003e+18
14504.0	1.8175182321483776e+18
14505.0	1.8170586572259323e+18
14506.0	1.816585533023846e+18
14507.0	1.8161980414099453e+18
14508.0	1.815884736967475e+18
14509.0	1.8154759517110272e+18
14510.0	1.815067215108505e+18
14511.0	1.814658513738137e+18
14512.0	1.8142434689023997e+18
14513.0	1.813841305613107e+18
14514.0	1.8134143137218555e+18
14515.0	1.8130234180108285e+18
14516.0	1.8117557114372099e+18
14517.0	1.8122074832764928e+18
14518.0	1.8117993372319736e+18
14519.0	1.811391181121126e+18
14520.0	1.8109830065553403e+18
14521.0	1.810574035071795e+18
14522.0	1.810165843728793e+18
14523.0	1.809632549719244e+18
14524.0	1.809221155605708e+18
14525.0	1.8089406539759608e+18
14526.0	1.8085350345801728e+18
14527.0	1.8081174832283645e+18
14528.0	1.8076676223139837e+18
14529.0	1.807307365154816e+18
14530.0	1.8068965297225725e+18
14531.0	1.8064953797771261e+18
14532.0	1.8059093700771837e+18
14533.0	1.8056806731350013e+18
14534.0	1.805273956509286e+18
14535.0	1.804861852719513e+18
14536.0	1.804458936133222e+18
14537.0	1.804046756845977e+18
14538.0	1.8036442831781885e+18
14539.0	1.8032372293304317e+18
14540.0	1.8028299959664635e+18
14541.0	1.8024143672836093e+18
14542.0	1.8020155946696704e+18
14543.0	1.8015265086242816e+18
14544.0	1.8012012051169277e+18
14545.0	1.8007910676168704e+18
14546.0	1.7889808588210102e+18
14547.0	1.7897929347956654e+18
14548.0	1.7995680505135104e+18
14549.0	1.7991196307619837e+18
14550.0	1.7987572764508155e+18
14551.0	1.7983530814406653e+18
14552.0	1.7979452793290747e+18
14553.0	1.797536220604006e+18
14554.0	1.79713275372503e+18
14555.0	1.7967255774035965e+18
14556.0	1.796315959997235e+18
14557.0	1.7959125501607933e+18
14558.0	1.7955056741515261e+18
14559.0	1.794460671698533e+18
14560.0	1.7946843606417405e+18
14561.0	1.7942834153783288e+18
14562.0	1.793869227858329e+18
14563.0	1.79347276211159e+18
14564.0	1.7930608781033472e+18
14565.0	1.7926600167260155e+18
14566.0	1.7922535249149947e+18
14567.0	1.7918467294363643e+18
14568.0	1.79142724199383e+18
14569.0	1.7910339437854717e+18
14570.0	1.7904458218340347e+18
14571.0	1.790220065937817e+18
14572.0	1.7897960486469624e+18
14573.0	1.789390263156736e+18
14574.0	1.788987400257536e+18
14575.0	1.78859428324311e+18
14576.0	1.7881889222164477e+18
14577.0	1.7877805211582461e+18
14578.0	1.7873762137407488e+18
14579.0	1.786970659776102e+18
14580.0	1.7865644900876285e+18
14581.0	1.786154579079987e+18
14582.0	1.785751682626355e+18
14583.0	1.7853455750135805e+18
14584.0	1.784933984606617e+18
14585.0	1.7845329051254781e+18
14586.0	1.78412521038807e+18
14587.0	1.7837177689866235e+18
14588.0	1.7833095222788093e+18
14589.0	1.782901027268198e+18
14590.0	1.7825090947252221e+18
14591.0	1.7821163820417021e+18
14592.0	1.781709014460006e+18
14593.0	1.7812704479674365e+18
14594.0	1.7809241947504637e+18
14595.0	1.78052961140736e+18
14596.0	1.7801040254468093e+18
14597.0	1.7797150624710653e+18
14598.0	1.7793523977814013e+18
14599.0	1.7789632016023547e+18
14600.0	1.7785700057350136e+18
14601.0	1.7781782560636923e+18
14602.0	1.7777819195015165e+18
14603.0	1.7773932299943933e+18
14604.0	1.7769828156702715e+18
14605.0	1.7766012229255165e+18
14606.0	1.7761903489056763e+18
14607.0	1.7758215135559677e+18
14608.0	1.7754302739120125e+18
14609.0	1.7750281609543675e+18
14610.0	1.77463316489175e+18
14611.0	1.774250547059097e+18
14612.0	1.7738605287964672e+18
14613.0	1.7734678094020605e+18
14614.0	1.7730733032341504e+18
14615.0	1.7726801946083323e+18
14616.0	1.772288158046617e+18
14617.0	1.7718946283126781e+18
14618.0	1.7714956896043003e+18
14619.0	1.7710893387218944e+18
14620.0	1.7706360200232955e+18
14621.0	1.7703202476523515e+18
14622.0	1.7699251660259325e+18
14623.0	1.7695324785082363e+18
14624.0	1.7691151704260605e+18
14625.0	1.7687428940693504e+18
14626.0	1.7683467907104765e+18
14627.0	1.7679482278117376e+18
14628.0	1.7675612512583677e+18
14629.0	1.767166654493491e+18
14630.0	1.766771197057433e+18
14631.0	1.7663762345492477e+18
14632.0	1.7651712529530885e+18
14633.0	1.765493648968908e+18
14634.0	1.7651891508871165e+18
14635.0	1.764737367303782e+18
14636.0	1.7642341363875837e+18
14637.0	1.7640059461173248e+18
14638.0	1.7636087841161208e+18
14639.0	1.7632097850097656e+18
14640.0	1.7628117304606712e+18
14641.0	1.759285857589655e+18
14642.0	1.762017564164096e+18
14643.0	1.7616231569817597e+18
14644.0	1.7612220087140347e+18
14645.0	1.76082056684503e+18
14646.0	1.7604248611061757e+18
14647.0	1.760026689116569e+18
14648.0	1.759637107061555e+18
14649.0	1.759240684935577e+18
