# Flux units: erg / (cm m2 s)
# Wavelength units: Angstrom
wave	flux
14000.0	1.9924574980276216e+18
14001.0	1.9920608443760635e+18
14002.0	1.9917790911660027e+18
14003.0	1.991397552108339e+18
14004.0	1.9910150517161981e+18
14005.0	1.9906322308792315e+18
14006.0	1.9902419206930427e+18
14007.0	1.9898570748461056e+18
14008.0	1.9893860159193088e+18
14009.0	1.9890972498329597e+18
14010.0	1.9887030590767101e+18
14011.0	1.987715258541671e+18
14012.0	1.9879504247783421e+18
14013.0	1.9875714861891584e+18
14014.0	1.9871837143957496e+18
14015.0	1.9868053126774781e+18
14016.0	1.986425620791296e+18
14017.0	1.9860438367862781e+18
14018.0	1.985661940373913e+18
14019.0	1.9852802268332032e+18
14020.0	1.9848977331519483e+18
14021.0	1.9845153216790525e+18
14022.0	1.9841303416143864e+18
14023.0	1.9837364578811896e+18
14024.0	1.983354277933875e+18
14025.0	1.9829897778167805e+18
14026.0	1.982607921669734e+18
14027.0	1.9822285938491387e+18
14028.0	1.981840473089638e+18
14029.0	1.981459187367936e+18
14030.0	1.979759170525594e+18
14031.0	1.980640413928652e+18
14032.0	1.980320259348889e+18
14033.0	1.9798939502903293e+18
14034.0	1.9795600618815488e+18
14035.0	1.9791830375727101e+18
14036.0	1.9787990658187261e+18
14037.0	1.978423538037555e+18
14038.0	1.9780436062371835e+18
14039.0	1.977659309005209e+18
14040.0	1.9772783873490944e+18
14041.0	1.9769018680344573e+18
14042.0	1.976513505683046e+18
14043.0	1.9761048747769848e+18
14044.0	1.9757533434478587e+18
14045.0	1.9753818254213115e+18
14046.0	1.975001165489766e+18
14047.0	1.9746155730567163e+18
14048.0	1.9742457612730365e+18
14049.0	1.973868636300902e+18
14050.0	1.973489749721088e+18
14051.0	1.9731021289226235e+18
14052.0	1.9727275255660541e+18
14053.0	1.9723531453464573e+18
14054.0	1.9719746748415997e+18
14055.0	1.971596108706611e+18
14056.0	1.971217577803776e+18
14057.0	1.9708392146731005e+18
14058.0	1.9704608783859707e+18
14059.0	1.9700826511507453e+18
14060.0	1.9697044574699517e+18
14061.0	1.9693196384665597e+18
14062.0	1.9689481388949501e+18
14063.0	1.968553604205772e+18
14064.0	1.967959001215795e+18
14065.0	1.9678060282380288e+18
14066.0	1.9674372767743997e+18
14067.0	1.967051085394739e+18
14068.0	1.966682285277184e+18
14069.0	1.9663019608899581e+18
14070.0	1.9659266176581627e+18
14071.0	1.96554761699328e+18
14072.0	1.9651733726691325e+18
14073.0	1.9647963097726973e+18
14074.0	1.9644193039187968e+18
14075.0	1.9640235629477883e+18
14076.0	1.9636542578360315e+18
14077.0	1.9629928412610563e+18
14078.0	1.9628886211952635e+18
14079.0	1.962524751901491e+18
14080.0	1.9621593407815677e+18
14081.0	1.9617832023097344e+18
14082.0	1.9614049515864061e+18
14083.0	1.9610289389436925e+18
14084.0	1.9606517669953533e+18
14085.0	1.959909316467097e+18
14086.0	1.9598740390150141e+18
14087.0	1.9595259671478272e+18
14088.0	1.9591364773675005e+18
14089.0	1.9587674037813245e+18
14090.0	1.9583960384274427e+18
14091.0	1.958024557310771e+18
14092.0	1.9576494774812672e+18
14093.0	1.9572741225054203e+18
14094.0	1.9568985997574141e+18
14095.0	1.956521979779481e+18
14096.0	1.9560934712279035e+18
14097.0	1.9557436981510141e+18
14098.0	1.9553725911662584e+18
14099.0	1.955022831511142e+18
14100.0	1.954637227334041e+18
14101.0	1.9542750609276925e+18
14102.0	1.9539004038840317e+18
14103.0	1.953511442586009e+18
14104.0	1.9531489020477437e+18
14105.0	1.9527775081725947e+18
14106.0	1.9524033896775677e+18
14107.0	1.952028715856691e+18
14108.0	1.951643128456806e+18
14109.0	1.9512760178049021e+18
14110.0	1.9509037246709755e+18
14111.0	1.9505224188166141e+18
14112.0	1.950150932666777e+18
14113.0	1.949783169381171e+18
14114.0	1.9493973370339325e+18
14115.0	1.9490331204517883e+18
14116.0	1.9486132991426552e+18
14117.0	1.945971166124442e+18
14118.0	1.9479035876737021e+18
14119.0	1.9475006928977917e+18
14120.0	1.9471396656644093e+18
14121.0	1.9467791266480125e+18
14122.0	1.9463967688622075e+18
14123.0	1.946027614745395e+18
14124.0	1.9456502565699581e+18
14125.0	1.944835417387827e+18
14126.0	1.9449283749085181e+18
14127.0	1.9445637405736955e+18
14128.0	1.9441909290237947e+18
14129.0	1.9438081199308797e+18
14130.0	1.9434259936706555e+18
14131.0	1.943075938736537e+18
14132.0	1.9426944684654587e+18
14133.0	1.941781113470975e+18
14134.0	1.941955703891558e+18
14135.0	1.9415684538695675e+18
14136.0	1.9411877419286525e+18
14137.0	1.940837373260595e+18
14138.0	1.94045023396823e+18
14139.0	1.9401012158660605e+18
14140.0	1.9397250908159997e+18
14141.0	1.9393284237426683e+18
14142.0	1.938831178937139e+18
14143.0	1.9386108202713083e+18
14144.0	1.9382470096977915e+18
14145.0	1.9378756460216315e+18
14146.0	1.937501542626099e+18
14147.0	1.937133274346291e+18
14148.0	1.9367606087581693e+18
14149.0	1.936391145940582e+18
14150.0	1.9360251190968317e+18
14151.0	1.9356462761377787e+18
14152.0	1.9352846734458875e+18
14153.0	1.9349143633788928e+18
14154.0	1.9345178338787325e+18
14155.0	1.9341172744912893e+18
14156.0	1.9337968229548027e+18
14157.0	1.933434391468441e+18
14158.0	1.9330606353612792e+18
14159.0	1.9326949792940027e+18
14160.0	1.932317431536025e+18
14161.0	1.9318948906401787e+18
14162.0	1.9314776060461053e+18
14163.0	1.9312107895914488e+18
14164.0	1.9307721761226744e+18
14165.0	1.9304280586452987e+18
14166.0	1.930106372305715e+18
14167.0	1.9297251989913597e+18
14168.0	1.929368223455641e+18
14169.0	1.9290030656716797e+18
14170.0	1.9286302021124093e+18
14171.0	1.928262908588851e+18
14172.0	1.927897160246886e+18
14173.0	1.927494349357056e+18
14174.0	1.9271543691411453e+18
14175.0	1.9267921557585915e+18
14176.0	1.9264240753836027e+18
14177.0	1.9260559715205117e+18
14178.0	1.925687117715865e+18
14179.0	1.9253132156469245e+18
14180.0	1.9249519971532792e+18
14181.0	1.9245841550147581e+18
14182.0	1.924215520991641e+18
14183.0	1.9238485009367037e+18
14184.0	1.9234751072174077e+18
14185.0	1.9231087817392128e+18
14186.0	1.9223159290986493e+18
14187.0	1.9223420059254781e+18
14188.0	1.922006092506726e+18
14189.0	1.9216400455303165e+18
14190.0	1.921273577445785e+18
14191.0	1.9209048981241853e+18
14192.0	1.9205330562973693e+18
14193.0	1.920105826169651e+18
14194.0	1.9198052891885563e+18
14195.0	1.9194432150568952e+18
14196.0	1.9190766412759035e+18
14197.0	1.9187101748690941e+18
14198.0	1.9183385360465915e+18
14199.0	1.9179747808378875e+18
14200.0	1.9173504737869821e+18
14201.0	1.9172276628881405e+18
14202.0	1.916876794259046e+18
14203.0	1.9165051772469245e+18
14204.0	1.9161440392839163e+18
14205.0	1.9157778195021821e+18
14206.0	1.915286854408601e+18
14207.0	1.915048047516057e+18
14208.0	1.9146836933607421e+18
14209.0	1.9141805178093563e+18
14210.0	1.913856828270182e+18
14211.0	1.9135823714713597e+18
14212.0	1.913221966672691e+18
14213.0	1.9128099518021627e+18
14214.0	1.9124040723595261e+18
14215.0	1.9120277292056568e+18
14216.0	1.9116748741541883e+18
14217.0	1.9113097583132664e+18
14218.0	1.9109321015033853e+18
14219.0	1.9105795232759805e+18
14220.0	1.9102121693544445e+18
14221.0	1.909847110556057e+18
14222.0	1.9094621976002552e+18
14223.0	1.9091194189447165e+18
14224.0	1.9087529693151227e+18
14225.0	1.907602444884378e+18
14226.0	1.9080130940895232e+18
14227.0	1.9076584723972093e+18
14228.0	1.9053209985220613e+18
14229.0	1.9065906294423532e+18
14230.0	1.9065678979923963e+18
14231.0	1.90614812533719e+18
14232.0	1.9057534950178808e+18
14233.0	1.905386149484953e+18
14234.0	1.9050254980612093e+18
14235.0	1.9046589494460416e+18
14236.0	1.9042974490951677e+18
14237.0	1.9039320950177787e+18
14238.0	1.9035685797232637e+18
14239.0	1.9031936525664253e+18
14240.0	1.9012387076046853e+18
14241.0	1.9024614462062595e+18
14242.0	1.9021083210416125e+18
14243.0	1.9015931732688893e+18
14244.0	1.9013879073865725e+18
14245.0	1.9010132016889853e+18
14246.0	1.900647797279948e+18
14247.0	1.900294336570982e+18
14248.0	1.8999201811660797e+18
14249.0	1.899571381167718e+18
14250.0	1.8992083675119616e+18
14251.0	1.8987565805731837e+18
14252.0	1.8983396432674813e+18
14253.0	1.8979754971496445e+18
14254.0	1.897609844437811e+18
14255.0	1.897210840298291e+18
14256.0	1.8960459830919168e+18
14257.0	1.8964434068176888e+18
14258.0	1.8961591873568765e+18
14259.0	1.895778398240768e+18
14260.0	1.8954074388955133e+18
14261.0	1.8950513743626237e+18
14262.0	1.894728986735411e+18
14263.0	1.8931447343611907e+18
14264.0	1.8937099520573435e+18
14265.0	1.89364055310336e+18
14266.0	1.8932893858398203e+18
14267.0	1.8929290364059645e+18
14268.0	1.892567720604467e+18
14269.0	1.8921964626247677e+18
14270.0	1.891844068946739e+18
14271.0	1.891481025091993e+18
14272.0	1.8911170282913787e+18
14273.0	1.8907373129170941e+18
14274.0	1.8884195136831496e+18
14275.0	1.8897287086342141e+18
14276.0	1.8895634715115515e+18
14277.0	1.8892102775603197e+18
14278.0	1.888862378498457e+18
14279.0	1.8885008093609981e+18
14280.0	1.8881337926615035e+18
14281.0	1.887780291687219e+18
14282.0	1.887419710727782e+18
14283.0	1.8870587506032635e+18
14284.0	1.8866977669906427e+18
14285.0	1.8863363656253435e+18
14286.0	1.8859742008967163e+18
14287.0	1.8856146433474552e+18
14288.0	1.8852503781113853e+18
14289.0	1.883863806640126e+18
14290.0	1.884528925946675e+18
14291.0	1.8841716098334717e+18
14292.0	1.88381257573335e+18
14293.0	1.8834493724950525e+18
14294.0	1.8829501479780347e+18
14295.0	1.882713320796979e+18
14296.0	1.8815403400626179e+18
14297.0	1.881999758956953e+18
14298.0	1.8813123511189504e+18
14299.0	1.8812096980451325e+18
14300.0	1.8808135426768893e+18
14301.0	1.8804573925801984e+18
14302.0	1.8800991587532792e+18
14303.0	1.8797036694405115e+18
14304.0	1.8793621457207293e+18
14305.0	1.8790171054964733e+18
14306.0	1.8786368113082363e+18
14307.0	1.878280532026982e+18
14308.0	1.877928641665433e+18
14309.0	1.8775561002287104e+18
14310.0	1.8771160372084736e+18
14311.0	1.8766968047796221e+18
14312.0	1.8764181570322432e+18
14313.0	1.8760230502399997e+18
14314.0	1.8757655417847805e+18
14315.0	1.8754193187667963e+18
14316.0	1.8750109630070784e+18
14317.0	1.8746788378836987e+18
14318.0	1.8743496538062843e+18
14319.0	1.8739937419460603e+18
14320.0	1.873635441010278e+18
14321.0	1.873274750998937e+18
14322.0	1.8728784714792955e+18
14323.0	1.8725414557974525e+18
14324.0	1.8722037958705147e+18
14325.0	1.8718354151833597e+18
14326.0	1.871487945618227e+18
14327.0	1.8710537294577661e+18
14328.0	1.8706774550904832e+18
14329.0	1.8703260244246525e+18
14330.0	1.8699678627397632e+18
14331.0	1.869609422553088e+18
14332.0	1.869251566213529e+18
14333.0	1.8688935739785213e+18
14334.0	1.868535499535155e+18
14335.0	1.8681644680478717e+18
14336.0	1.8677346458402813e+18
14337.0	1.867458309993267e+18
14338.0	1.8671009636810747e+18
14339.0	1.8667340946210816e+18
14340.0	1.8663876820205568e+18
14341.0	1.866026330986905e+18
14342.0	1.86567116235735e+18
14343.0	1.8653136684056576e+18
14344.0	1.864953292128256e+18
14345.0	1.8646007575216123e+18
14346.0	1.8642379586142203e+18
14347.0	1.86385523844055e+18
14348.0	1.8635254956818427e+18
14349.0	1.8631718789447677e+18
14350.0	1.8627483800698877e+18
14351.0	1.8623837071474683e+18
14352.0	1.8620924764880893e+18
14353.0	1.8617442301378552e+18
14354.0	1.8613799951007741e+18
14355.0	1.8610073764888568e+18
14356.0	1.860656425651404e+18
14357.0	1.8603198864424955e+18
14358.0	1.859963706146816e+18
14359.0	1.859527803876147e+18
14360.0	1.859158116243865e+18
14361.0	1.8588047444541437e+18
14362.0	1.8584508693479421e+18
14363.0	1.8580930348187643e+18
14364.0	1.8575249800953856e+18
14365.0	1.8573310874877947e+18
14366.0	1.8569873307205627e+18
14367.0	1.856669352145715e+18
14368.0	1.856312906770022e+18
14369.0	1.8559573807857656e+18
14370.0	1.855601494091366e+18
14371.0	1.8552457852354555e+18
14372.0	1.8548841271787517e+18
14373.0	1.8545321428647933e+18
14374.0	1.8541776604233728e+18
14375.0	1.8538203359215613e+18
14376.0	1.853466430616371e+18
14377.0	1.853110057382707e+18
14378.0	1.8527522681520123e+18
14379.0	1.8523994332332027e+18
14380.0	1.852043046577766e+18
14381.0	1.8516755450167293e+18
14382.0	1.8513313402978307e+18
14383.0	1.8509740275400704e+18
14384.0	1.8506024440823803e+18
14385.0	1.8502671530983421e+18
14386.0	1.8498926017511421e+18
14387.0	1.8495564719063037e+18
14388.0	1.8491996490432507e+18
14389.0	1.8488461916897275e+18
14390.0	1.8484894158028797e+18
14391.0	1.84813679059927e+18
14392.0	1.847780781431193e+18
14393.0	1.8474272720683005e+18
14394.0	1.847031569684889e+18
14395.0	1.8467022581006333e+18
14396.0	1.846277628441395e+18
14397.0	1.8459229480288256e+18
14398.0	1.8455675159969787e+18
14399.0	1.8452126275469307e+18
14400.0	1.84483755107287e+18
14401.0	1.8444948630142976e+18
14402.0	1.8441413167415293e+18
14403.0	1.8429767313260529e+18
14404.0	1.8394340359405548e+18
14405.0	1.841401040365154e+18
14406.0	1.8427176474902528e+18
14407.0	1.8412177794793475e+18
14408.0	1.8419883502993403e+18
14409.0	1.8415968573194235e+18
14410.0	1.8412482586476541e+18
14411.0	1.8409093421072384e+18
14412.0	1.840553257441689e+18
14413.0	1.840203286393651e+18
14414.0	1.8398465943928832e+18
14415.0	1.8394937460523003e+18
14416.0	1.839137949954867e+18
14417.0	1.8387724817924093e+18
14418.0	1.8384063945506813e+18
14419.0	1.8380761165987837e+18
14420.0	1.8377186411020283e+18
14421.0	1.837368566035251e+18
14422.0	1.8370061781696507e+18
14423.0	1.8366133010694136e+18
14424.0	1.8316963302342628e+18
14425.0	1.8359153923719165e+18
14426.0	1.835597729208729e+18
14427.0	1.8352478789566467e+18
14428.0	1.8348717203521533e+18
14429.0	1.8345394173902845e+18
14430.0	1.8341867569545216e+18
14431.0	1.8334736631988224e+18
14432.0	1.8334740591411192e+18
14433.0	1.8322711277207544e+18
14434.0	1.8327544709251072e+18
14435.0	1.8323742321016832e+18
14436.0	1.8320606860673021e+18
14437.0	1.8316354507505661e+18
14438.0	1.831227350004531e+18
14439.0	1.8309185619886075e+18
14440.0	1.8305758454087677e+18
14441.0	1.8302153248473085e+18
14442.0	1.829855903193497e+18
14443.0	1.8294601404121085e+18
14444.0	1.8291579441643515e+18
14445.0	1.8288067987111933e+18
14446.0	1.826880166979175e+18
14447.0	1.8280803301588987e+18
14448.0	1.827751914477977e+18
14449.0	1.827400366371635e+18
14450.0	1.8270413272383485e+18
14451.0	1.8266904837750781e+18
14452.0	1.82633983157207e+18
14453.0	1.8259757055868925e+18
14454.0	1.825635294196531e+18
14455.0	1.8252728459329539e+18
14456.0	1.8249224537767933e+18
14457.0	1.8245704040316925e+18
14458.0	1.8242179080126461e+18
14459.0	1.8238593755512824e+18
14460.0	1.8234966991175675e+18
14461.0	1.8230880547897341e+18
14462.0	1.8226542698037245e+18
14463.0	1.822418016403456e+18
14464.0	1.8220947647496187e+18
14465.0	1.8217265300242432e+18
14466.0	1.8213998239416315e+18
14467.0	1.8210236200386555e+18
14468.0	1.8206962814550013e+18
14469.0	1.8203058823495677e+18
14470.0	1.8199640297963515e+18
14471.0	1.8196381139206141e+18
14472.0	1.8192914060410877e+18
14473.0	1.8189442585985024e+18
14474.0	1.8185960239923197e+18
14475.0	1.8182418267635712e+18
14476.0	1.8178389470871547e+18
14477.0	1.8175401314484221e+18
14478.0	1.8171875951640576e+18
14479.0	1.81683482567639e+18
14480.0	1.81646778213335e+18
14481.0	1.8161368666472443e+18
14482.0	1.8157811863126013e+18
14483.0	1.815422536410726e+18
14484.0	1.8150696008286203e+18
14485.0	1.814686607186329e+18
14486.0	1.8139977246310397e+18
14487.0	1.813943970430976e+18
14488.0	1.813574531101491e+18
14489.0	1.8132095561891835e+18
14490.0	1.8128822142500861e+18
14491.0	1.81253943894999e+18
14492.0	1.8121896239300603e+18
14493.0	1.8118258301337597e+18
14494.0	1.8114623903367165e+18
14495.0	1.8111325536255997e+18
14496.0	1.8106354044502013e+18
14497.0	1.8104304774676477e+18
14498.0	1.8100811405983736e+18
14499.0	1.8097299884343293e+18
14500.0	1.8093780427079677e+18
14501.0	1.808994723587686e+18
14502.0	1.8084248401477632e+18
14503.0	1.808300026049331e+18
14504.0	1.8079662466924541e+18
14505.0	1.8075769615941632e+18
14506.0	1.8071359724716032e+18
14507.0	1.8065656343691261e+18
14508.0	1.8064845685391352e+18
14509.0	1.8061350538313725e+18
14510.0	1.8057805932003328e+18
14511.0	1.8054325565652987e+18
14512.0	1.8050648016683003e+18
14513.0	1.8047297019445243e+18
14514.0	1.8043429820825597e+18
14515.0	1.8040213578186747e+18
14516.0	1.8010452105625615e+18
14517.0	1.8033071198568443e+18
14518.0	1.8029743018344448e+18
14519.0	1.8026251058937853e+18
14520.0	1.8022736953606136e+18
14521.0	1.8019233904459768e+18
14522.0	1.8015699616137213e+18
14523.0	1.8011393055784955e+18
14524.0	1.8008107489689597e+18
14525.0	1.8005139717619707e+18
14526.0	1.8001671061766141e+18
14527.0	1.7997961803857915e+18
14528.0	1.7993206536863744e+18
14529.0	1.7991052090671104e+18
14530.0	1.798746617885491e+18
14531.0	1.7984133233901565e+18
14532.0	1.7979914049290237e+18
14533.0	1.7977131682234368e+18
14534.0	1.797364925228646e+18
14535.0	1.7970018377531387e+18
14536.0	1.7966588594487293e+18
14537.0	1.796296706464153e+18
14538.0	1.7959620748247037e+18
14539.0	1.7956116172374008e+18
14540.0	1.7952608173948925e+18
14541.0	1.7948841017868285e+18
14542.0	1.7945221786501117e+18
14543.0	1.7940811291295736e+18
14544.0	1.7937746412699643e+18
14545.0	1.7934084365877248e+18
14546.0	1.787405783583945e+18
14547.0	1.7874863897182164e+18
14548.0	1.7923470847377403e+18
14549.0	1.791886796783616e+18
14550.0	1.7916609016365053e+18
14551.0	1.7913222770196477e+18
14552.0	1.7909708144771064e+18
14553.0	1.79061263433728e+18
14554.0	1.7902705351589885e+18
14555.0	1.789919309175193e+18
14556.0	1.7895670396485632e+18
14557.0	1.7892164495212541e+18
14558.0	1.7888581687181312e+18
14559.0	1.7865695786172378e+18
14560.0	1.7881506164768768e+18
14561.0	1.7878042793738237e+18
14562.0	1.787429264975462e+18
14563.0	1.7871053590102013e+18
14564.0	1.7867325474603003e+18
14565.0	1.7864094551900155e+18
14566.0	1.7860590009581563e+18
14567.0	1.7857051107524605e+18
14568.0	1.785337020311142e+18
14569.0	1.7850008233574397e+18
14570.0	1.7841050408189947e+18
14571.0	1.7842970107576317e+18
14572.0	1.7839042846523387e+18
14573.0	1.7835412508639227e+18
14574.0	1.783190924138905e+18
14575.0	1.782883072291635e+18
14576.0	1.782530809475891e+18
14577.0	1.7821890273869821e+18
14578.0	1.781842331251507e+18
14579.0	1.781495348225638e+18
14580.0	1.781144256459571e+18
14581.0	1.7807860813529088e+18
14582.0	1.7804345282134013e+18
14583.0	1.7800895081218043e+18
14584.0	1.7797144417140739e+18
14585.0	1.7793859941564416e+18
14586.0	1.7790319244345344e+18
14587.0	1.7786831244361725e+18
14588.0	1.7783326383276027e+18
14589.0	1.7779855110176765e+18
14590.0	1.777638410551296e+18
14591.0	1.7772877080166395e+18
14592.0	1.7769322541744125e+18
14593.0	1.7764653442531323e+18
14594.0	1.776246983753728e+18
14595.0	1.7758907078279165e+18
14596.0	1.7753578433150968e+18
14597.0	1.7749695749160952e+18
14598.0	1.7748333221117947e+18
14599.0	1.774508746735616e+18
14600.0	1.774157232183705e+18
14601.0	1.7738105142378493e+18
14602.0	1.7734561727250427e+18
14603.0	1.7731131843543035e+18
14604.0	1.7727111301169147e+18
14605.0	1.7723851924307965e+18
14606.0	1.771988115993395e+18
14607.0	1.771676227547955e+18
14608.0	1.7712967738982397e+18
14609.0	1.7709420800638968e+18
14610.0	1.770564559149465e+18
14611.0	1.77024009282519e+18
14612.0	1.7699071003197435e+18
14613.0	1.7695626321985533e+18
14614.0	1.7692117937684475e+18
14615.0	1.76886700352471e+18
14616.0	1.7685203141001213e+18
14617.0	1.768171257410355e+18
14618.0	1.7678100540162048e+18
14619.0	1.767311381469593e+18
14620.0	1.7666097616519165e+18
14621.0	1.7667742119231485e+18
14622.0	1.7664244656898048e+18
14623.0	1.766079167096422e+18
14624.0	1.765665664086835e+18
14625.0	1.7653768745123837e+18
14626.0	1.7650288613654525e+18
14627.0	1.7646782125178877e+18
14628.0	1.7643340967182333e+18
14629.0	1.7639842280112125e+18
14630.0	1.7636307404587003e+18
14631.0	1.7632844855640061e+18
14632.0	1.7625608154513405e+18
14633.0	1.7625302842736635e+18
14634.0	1.7622284705464315e+18
14635.0	1.7618186232922107e+18
14636.0	1.7613360166076413e+18
14637.0	1.761186378940416e+18
14638.0	1.7608238065254397e+18
14639.0	1.760462958808268e+18
14640.0	1.7601227990761464e+18
14641.0	1.758336725182053e+18
14642.0	1.7594187532730365e+18
14643.0	1.7590786455502843e+18
14644.0	1.7587138887417853e+18
14645.0	1.758352635015987e+18
14646.0	1.75800892522496e+18
14647.0	1.757636476062924e+18
14648.0	1.7573108755988475e+18
