# Flux units: erg / (cm m2 s)
# Wavelength units: Angstrom
wave	flux
14000.0	1.604285059668377e+18
14001.0	1.6038562810036224e+18
14002.0	1.6036480237436925e+18
14003.0	1.6033279782158333e+18
14004.0	1.6030080870383608e+18
14005.0	1.602688083453542e+18
14006.0	1.6023617632468987e+18
14007.0	1.602041164070912e+18
14008.0	1.6016512011730941e+18
14009.0	1.6014086647054328e+18
14010.0	1.6010792323252221e+18
14011.0	1.6002497684439045e+18
14012.0	1.6004499088867325e+18
14013.0	1.6001305713573885e+18
14014.0	1.5998068969177085e+18
14015.0	1.5994900306722816e+18
14016.0	1.5991727382855675e+18
14017.0	1.5988536188600315e+18
14018.0	1.5985317345492987e+18
14019.0	1.5979583950028797e+18
14020.0	1.5976389383553021e+18
14021.0	1.5973197484654595e+18
14022.0	1.5970009813614587e+18
14023.0	1.596672508638003e+18
14024.0	1.5963534059896832e+18
14025.0	1.5960461161791485e+18
14026.0	1.5957263541862397e+18
14027.0	1.5954095634382848e+18
14028.0	1.5950867362480125e+18
14029.0	1.5947705159254013e+18
14030.0	1.5941752770789379e+18
14031.0	1.5941235210452992e+18
14032.0	1.5938187293622272e+18
14033.0	1.593468608996966e+18
14034.0	1.59318305406976e+18
14035.0	1.5928654882144256e+18
14036.0	1.5925478267289597e+18
14037.0	1.5922290227150843e+18
14038.0	1.5919127000514563e+18
14039.0	1.5915921847615485e+18
14040.0	1.5912652303761405e+18
14041.0	1.590884234900275e+18
14042.0	1.590562152618393e+18
14043.0	1.590216828859187e+18
14044.0	1.589925039518515e+18
14045.0	1.5896156055797757e+18
14046.0	1.5892981437431803e+18
14047.0	1.588977742538342e+18
14048.0	1.5886667751620605e+18
14049.0	1.5883511537860603e+18
14050.0	1.588034490544947e+18
14051.0	1.5877094655393792e+18
14052.0	1.587398623992217e+18
14053.0	1.5870843095613435e+18
14054.0	1.586768614365593e+18
14055.0	1.5864518722715648e+18
14056.0	1.5861360931897341e+18
14057.0	1.5858199802413053e+18
14058.0	1.5855039109136384e+18
14059.0	1.5851879271497723e+18
14060.0	1.584872008817049e+18
14061.0	1.5845503677759485e+18
14062.0	1.5842403919331325e+18
14063.0	1.583912702705664e+18
14064.0	1.5835559503069184e+18
14065.0	1.583286454530867e+18
14066.0	1.582973386647142e+18
14067.0	1.5826531616030723e+18
14068.0	1.5823416003133437e+18
14069.0	1.5820251736309757e+18
14070.0	1.5817110353608696e+18
14071.0	1.5813935735242747e+18
14072.0	1.5810808780947456e+18
14073.0	1.580765904319283e+18
14074.0	1.5804510362402813e+18
14075.0	1.5801231825960952e+18
14076.0	1.5798166393716733e+18
14077.0	1.5794429856055293e+18
14078.0	1.5791876648992765e+18
14079.0	1.5788698373193725e+18
14080.0	1.5785630122377213e+18
14081.0	1.5782485250015232e+18
14082.0	1.5779289156812797e+18
14083.0	1.5776188811182075e+18
14084.0	1.577301927631257e+18
14085.0	1.5767757136068605e+18
14086.0	1.5766661298651133e+18
14087.0	1.576358075013529e+18
14088.0	1.5760355162587133e+18
14089.0	1.5757266628116477e+18
14090.0	1.5754140227469307e+18
14091.0	1.5751029026979835e+18
14092.0	1.5747892912324603e+18
14093.0	1.5744756713783293e+18
14094.0	1.574162278016614e+18
14095.0	1.573848886332621e+18
14096.0	1.573522643301171e+18
14097.0	1.5732100636344312e+18
14098.0	1.5729034314907648e+18
14099.0	1.5725959890075643e+18
14100.0	1.5722729219031037e+18
14101.0	1.5719700411449344e+18
14102.0	1.571655602562662e+18
14103.0	1.5713313744748544e+18
14104.0	1.5710238262951933e+18
14105.0	1.5707127112794107e+18
14106.0	1.5704005795643392e+18
14107.0	1.5700862349344763e+18
14108.0	1.5697672077836285e+18
14109.0	1.5694594196897792e+18
14110.0	1.5691447613259776e+18
14111.0	1.5688210751422464e+18
14112.0	1.5685205062844413e+18
14113.0	1.5682133574025213e+18
14114.0	1.5678925518667776e+18
14115.0	1.5675891174604797e+18
14116.0	1.5672532560510968e+18
14117.0	1.5664981706014723e+18
14118.0	1.5666544403021821e+18
14119.0	1.566333210302873e+18
14120.0	1.5660250396884992e+18
14121.0	1.5657102605287424e+18
14122.0	1.5653958068469757e+18
14123.0	1.5650890690068483e+18
14124.0	1.5647753434562557e+18
14125.0	1.5641099859132413e+18
14126.0	1.5641592891179003e+18
14127.0	1.5638467765600253e+18
14128.0	1.5635345928355837e+18
14129.0	1.5632163810574333e+18
14130.0	1.56289667778478e+18
14131.0	1.562603006040473e+18
14132.0	1.562288231913881e+18
14133.0	1.5615563057332206e+18
14134.0	1.5616706323939325e+18
14135.0	1.561350296620236e+18
14136.0	1.5610310882754563e+18
14137.0	1.5607391479398397e+18
14138.0	1.5604228219207677e+18
14139.0	1.560118426179993e+18
14140.0	1.5597979578662912e+18
14141.0	1.5594979661447163e+18
14142.0	1.5591484967354365e+18
14143.0	1.558869889253376e+18
14144.0	1.5585685889089533e+18
14145.0	1.558257287666073e+18
14146.0	1.5579468252839933e+18
14147.0	1.5576384449544187e+18
14148.0	1.5573281235009528e+18
14149.0	1.5570181879234557e+18
14150.0	1.5567105625686013e+18
14151.0	1.5563931997175803e+18
14152.0	1.5560849552834557e+18
14153.0	1.5557769658630141e+18
14154.0	1.555449169261363e+18
14155.0	1.5550493161947133e+18
14156.0	1.554846123976294e+18
14157.0	1.5545404431007741e+18
14158.0	1.554228053016576e+18
14159.0	1.5539220433076221e+18
14160.0	1.5536130824863741e+18
14161.0	1.553253065241395e+18
14162.0	1.5529138802655224e+18
14163.0	1.552686495301632e+18
14164.0	1.5523578363510781e+18
14165.0	1.551957729948467e+18
14166.0	1.5517618475630587e+18
14167.0	1.5514437364482043e+18
14168.0	1.5511420317728763e+18
14169.0	1.5508378826571776e+18
14170.0	1.5505266720112637e+18
14171.0	1.5502175283183616e+18
14172.0	1.5499137801781243e+18
14173.0	1.5495457719451648e+18
14174.0	1.5492958014930941e+18
14175.0	1.548990360531763e+18
14176.0	1.5486822217940992e+18
14177.0	1.5483749655379968e+18
14178.0	1.5480664560238592e+18
14179.0	1.5477422480687101e+18
14180.0	1.5474473062891515e+18
14181.0	1.5471399711801341e+18
14182.0	1.546832043835392e+18
14183.0	1.5465255039664123e+18
14184.0	1.5462143772065795e+18
14185.0	1.545911288410931e+18
14186.0	1.545508593283891e+18
14187.0	1.5452784065249277e+18
14188.0	1.5449874594004987e+18
14189.0	1.544681879188275e+18
14190.0	1.5443761781800952e+18
14191.0	1.544069388330598e+18
14192.0	1.5437559882579965e+18
14193.0	1.543443677026713e+18
14194.0	1.5431494298238976e+18
14195.0	1.542844522378035e+18
14196.0	1.5425379338551293e+18
14197.0	1.542230576935731e+18
14198.0	1.541920953414451e+18
14199.0	1.5416157758554107e+18
14200.0	1.5412596224032765e+18
14201.0	1.5410072863637504e+18
14202.0	1.5407004797370363e+18
14203.0	1.5403818703388672e+18
14204.0	1.5400878664056832e+18
14205.0	1.5397823398805501e+18
14206.0	1.5393806278983677e+18
14207.0	1.5391731893665787e+18
14208.0	1.5388680185184253e+18
14209.0	1.5384489807052797e+18
14210.0	1.5381923060776957e+18
14211.0	1.5379412132298755e+18
14212.0	1.5376406527606784e+18
14213.0	1.537335426547712e+18
14214.0	1.5370304436043776e+18
14215.0	1.5367150051000315e+18
14216.0	1.5364202730356733e+18
14217.0	1.536116501407334e+18
14218.0	1.5358030392590333e+18
14219.0	1.5355069264297984e+18
14220.0	1.5352024098930685e+18
14221.0	1.5348965193023488e+18
14222.0	1.5345809063149565e+18
14223.0	1.5342886824443901e+18
14224.0	1.5339844595089403e+18
14225.0	1.5335160463491072e+18
14226.0	1.533375867676262e+18
14227.0	1.5330717705699325e+18
14228.0	1.532288336658432e+18
14229.0	1.5324182627745784e+18
14230.0	1.5321596738666493e+18
14231.0	1.531849297048371e+18
14232.0	1.5315519292833787e+18
14233.0	1.5312422738853885e+18
14234.0	1.530944417903411e+18
14235.0	1.5306387219283968e+18
14236.0	1.530337148115353e+18
14237.0	1.5300327121092605e+18
14238.0	1.5297300477771776e+18
14239.0	1.5294223771238397e+18
14240.0	1.5277931752325128e+18
14241.0	1.5288190667587581e+18
14242.0	1.5285169795629053e+18
14243.0	1.5280926284054525e+18
14244.0	1.5279112985772024e+18
14245.0	1.5275939155935232e+18
14246.0	1.5272815808741368e+18
14247.0	1.5269941099888637e+18
14248.0	1.5266804448362493e+18
14249.0	1.5263883702829053e+18
14250.0	1.5260873853501437e+18
14251.0	1.52578679635968e+18
14252.0	1.5254842159136763e+18
14253.0	1.525181309989683e+18
14254.0	1.5248774595084285e+18
14255.0	1.5245497518260221e+18
14256.0	1.5241144669569021e+18
14257.0	1.5239667452477437e+18
14258.0	1.5236708538777595e+18
14259.0	1.5233543214989312e+18
14260.0	1.523058092906905e+18
14261.0	1.5227501672398843e+18
14262.0	1.5224768529694715e+18
14263.0	1.5219351082762237e+18
14264.0	1.5218359146643456e+18
14265.0	1.5215675714830336e+18
14266.0	1.5212686233042941e+18
14267.0	1.520968755734118e+18
14268.0	1.5206661870321664e+18
14269.0	1.5203591690125312e+18
14270.0	1.5200647792033787e+18
14271.0	1.5197606502203392e+18
14272.0	1.5194623882297341e+18
14273.0	1.5191609670893565e+18
14274.0	1.518510707363021e+18
14275.0	1.518528350283366e+18
14276.0	1.5182418507988992e+18
14277.0	1.517941038671462e+18
14278.0	1.5176565994291197e+18
14279.0	1.5173557722021885e+18
14280.0	1.5170488263245821e+18
14281.0	1.5167546864959485e+18
14282.0	1.516454473315123e+18
14283.0	1.5161540588077056e+18
14284.0	1.515853711409152e+18
14285.0	1.515553382465536e+18
14286.0	1.5152523841110013e+18
14287.0	1.5149508337860605e+18
14288.0	1.514647687947878e+18
14289.0	1.5134968313282532e+18
14290.0	1.5140454177701883e+18
14291.0	1.513747041694515e+18
14292.0	1.5134463402967035e+18
14293.0	1.5131464207171581e+18
14294.0	1.5127399490387968e+18
14295.0	1.512537880893849e+18
14296.0	1.511562005603943e+18
14297.0	1.511949799207731e+18
14298.0	1.5115038960386048e+18
14299.0	1.511339215919513e+18
14300.0	1.5110441617326077e+18
14301.0	1.5107486965039104e+18
14302.0	1.510449404392243e+18
14303.0	1.510127986488115e+18
14304.0	1.5098406531760128e+18
14305.0	1.5095540882604032e+18
14306.0	1.509229398799155e+18
14307.0	1.5089510127763453e+18
14308.0	1.5086595120037885e+18
14309.0	1.5083594414292992e+18
14310.0	1.5079459048652797e+18
14311.0	1.507679224306073e+18
14312.0	1.5074401221345277e+18
14313.0	1.507053893844992e+18
14314.0	1.506866420200243e+18
14315.0	1.5065689769377792e+18
14316.0	1.506230845571072e+18
14317.0	1.5059626215079936e+18
14318.0	1.5056754677121021e+18
14319.0	1.505377766080512e+18
14320.0	1.505079366516736e+18
14321.0	1.5047796046430203e+18
14322.0	1.5044466574360573e+18
14323.0	1.5041764385619963e+18
14324.0	1.5038885650235387e+18
14325.0	1.5035840132546557e+18
14326.0	1.5032933093998592e+18
14327.0	1.5029908765933563e+18
14328.0	1.5026914670411773e+18
14329.0	1.5024009125036032e+18
14330.0	1.5021035648712704e+18
14331.0	1.501806017590067e+18
14332.0	1.5015090256347136e+18
14333.0	1.5012119380492288e+18
14334.0	1.5009148638855165e+18
14335.0	1.500602384882073e+18
14336.0	1.5001120959102968e+18
14337.0	1.4997133216186365e+18
14338.0	1.499416811169382e+18
14339.0	1.4991137945157632e+18
14340.0	1.4988255552339965e+18
14341.0	1.498526424183603e+18
14342.0	1.4982303717523453e+18
14343.0	1.4979305830350848e+18
14344.0	1.4976342219030528e+18
14345.0	1.4973433653755904e+18
14346.0	1.4970450782191613e+18
14347.0	1.4967368472068093e+18
14348.0	1.4964546057797624e+18
14349.0	1.4961586707890176e+18
14350.0	1.4958500169908221e+18
14351.0	1.495549146143129e+18
14352.0	1.495262656724992e+18
14353.0	1.4949734561087485e+18
14354.0	1.494676754399232e+18
14355.0	1.494378641725849e+18
14356.0	1.4940848575741947e+18
14357.0	1.4937923619127293e+18
14358.0	1.4934968564187136e+18
14359.0	1.4931905514307581e+18
14360.0	1.492904471376691e+18
14361.0	1.4926104288559101e+18
14362.0	1.4923154820431872e+18
14363.0	1.4920200570798075e+18
14364.0	1.4916825414369275e+18
14365.0	1.491425965794918e+18
14366.0	1.4911261753999357e+18
14367.0	1.4908402278858747e+18
14368.0	1.4905439573508093e+18
14369.0	1.490250547331072e+18
14370.0	1.4899558303662077e+18
14371.0	1.4896612056760315e+18
14372.0	1.4893622390423547e+18
14373.0	1.4890714429128701e+18
14374.0	1.4887773047619581e+18
14375.0	1.488479589708595e+18
14376.0	1.4881882265092093e+18
14377.0	1.4878938803208192e+18
14378.0	1.4875980006948864e+18
14379.0	1.4873059949281277e+18
14380.0	1.4870117359812603e+18
14381.0	1.486708326740787e+18
14382.0	1.4864226912829437e+18
14383.0	1.4861216828620797e+18
14384.0	1.4858219377655803e+18
14385.0	1.485542209565491e+18
14386.0	1.4852353475739648e+18
14387.0	1.484954485234073e+18
14388.0	1.484657897609625e+18
14389.0	1.4843674722566141e+18
14390.0	1.4840719902507003e+18
14391.0	1.4837804945113085e+18
14392.0	1.4834792948301821e+18
14393.0	1.4831888459890685e+18
14394.0	1.482866458361856e+18
14395.0	1.4825935802990587e+18
14396.0	1.4823091578339323e+18
14397.0	1.4820161689223165e+18
14398.0	1.481721928430387e+18
14399.0	1.4814301441228797e+18
14400.0	1.481120409871974e+18
14401.0	1.4808397337591805e+18
14402.0	1.4805496070406144e+18
14403.0	1.4783078270500818e+18
14404.0	1.473063324693297e+18
14405.0	1.4785037849329597e+18
14406.0	1.479379686470451e+18
14407.0	1.4759894540353554e+18
14408.0	1.4787885077102592e+18
14409.0	1.478487138579251e+18
14410.0	1.4782079237619707e+18
14411.0	1.4779185872502781e+18
14412.0	1.477624118588211e+18
14413.0	1.4773352719712253e+18
14414.0	1.4770411841519613e+18
14415.0	1.4767501481082877e+18
14416.0	1.4764569612255232e+18
14417.0	1.4761591287316477e+18
14418.0	1.475857690814054e+18
14419.0	1.4755822844248064e+18
14420.0	1.475287621147033e+18
14421.0	1.4749996721111037e+18
14422.0	1.4747057487085565e+18
14423.0	1.4744112917905403e+18
14424.0	1.4619308919357345e+18
14425.0	1.473830878969856e+18
14426.0	1.4735429483888637e+18
14427.0	1.4732510600626173e+18
14428.0	1.4729412117266424e+18
14429.0	1.4726681759580157e+18
14430.0	1.472378747171635e+18
14431.0	1.4720158341791741e+18
14432.0	1.4717881254150144e+18
14433.0	1.469170768989387e+18
14434.0	1.471203392461209e+18
14435.0	1.4709069910638587e+18
14436.0	1.4706332187754499e+18
14437.0	1.4703427766452221e+18
14438.0	1.4699907101229056e+18
14439.0	1.469747713959526e+18
14440.0	1.4694704352329725e+18
14441.0	1.4691735003201536e+18
14442.0	1.4688750000930813e+18
14443.0	1.468552359129907e+18
14444.0	1.4683055897706493e+18
14445.0	1.4680193805320187e+18
14446.0	1.4648233343057935e+18
14447.0	1.4674335218270203e+18
14448.0	1.4671494533611515e+18
14449.0	1.4668595430686715e+18
14450.0	1.466564863013683e+18
14451.0	1.4662771891240957e+18
14452.0	1.4659890505056253e+18
14453.0	1.4656620977979392e+18
14454.0	1.4654099983171581e+18
14455.0	1.4651135885311997e+18
14456.0	1.464819663450931e+18
14457.0	1.464522773836595e+18
14458.0	1.4642456779816957e+18
14459.0	1.463953870186086e+18
14460.0	1.4636670318018557e+18
14461.0	1.4633636879925245e+18
14462.0	1.4630203338784765e+18
14463.0	1.4627972304601085e+18
14464.0	1.4625103434219515e+18
14465.0	1.4622011057766397e+18
14466.0	1.4619312157360125e+18
14467.0	1.4616041019670525e+18
14468.0	1.4613509975310336e+18
14469.0	1.4610487341744125e+18
14470.0	1.4607498816258045e+18
14471.0	1.4604777283387387e+18
14472.0	1.4601943997480957e+18
14473.0	1.4599100225814525e+18
14474.0	1.459623247950643e+18
14475.0	1.4593314971975677e+18
14476.0	1.4588933031591936e+18
14477.0	1.4587582717362176e+18
14478.0	1.4584675058057213e+18
14479.0	1.4581774814281723e+18
14480.0	1.4578793201008635e+18
14481.0	1.4576057558499325e+18
14482.0	1.457315072127795e+18
14483.0	1.4570204239495165e+18
14484.0	1.4567380030062587e+18
14485.0	1.4564171974705147e+18
14486.0	1.455914988286771e+18
14487.0	1.4558777948766208e+18
14488.0	1.455582864841113e+18
14489.0	1.4552959727697915e+18
14490.0	1.4550100286111741e+18
14491.0	1.4547262671683581e+18
14492.0	1.4544394203955197e+18
14493.0	1.4541468878241787e+18
14494.0	1.4538480319201277e+18
14495.0	1.4535774305255421e+18
14496.0	1.4531770674315267e+18
14497.0	1.4530010727579645e+18
14498.0	1.4527141655871488e+18
14499.0	1.452428204651315e+18
14500.0	1.452141037433651e+18
14501.0	1.4517894960381947e+18
14502.0	1.4513215442518016e+18
14503.0	1.451264239992832e+18
14504.0	1.450988231301529e+18
14505.0	1.4506527238914045e+18
14506.0	1.450286673559552e+18
14507.0	1.4499273123037181e+18
14508.0	1.4498458152992765e+18
14509.0	1.4495587403563008e+18
14510.0	1.4492699709145088e+18
14511.0	1.448986451063603e+18
14512.0	1.4486869542699008e+18
14513.0	1.4484134705496064e+18
14514.0	1.448092862985011e+18
14515.0	1.4478391763795965e+18
14516.0	1.4454005090484237e+18
14517.0	1.447267784667955e+18
14518.0	1.4469818203766781e+18
14519.0	1.4466946984574976e+18
14520.0	1.4464086267920381e+18
14521.0	1.4461210871201787e+18
14522.0	1.4458369112801277e+18
14523.0	1.4454123638292472e+18
14524.0	1.4451204050386941e+18
14525.0	1.444975092537753e+18
14526.0	1.444691933396992e+18
14527.0	1.444399311906406e+18
14528.0	1.4439928066736128e+18
14529.0	1.4438284318998523e+18
14530.0	1.4435345504403453e+18
14531.0	1.4432637393305597e+18
14532.0	1.4427670750167037e+18
14533.0	1.4426939934638077e+18
14534.0	1.4424055444668416e+18
14535.0	1.4421099836080125e+18
14536.0	1.441830498677555e+18
14537.0	1.441536154166886e+18
14538.0	1.441262883517235e+18
14539.0	1.440976801785446e+18
14540.0	1.4406925890355197e+18
14541.0	1.4403899532247037e+18
14542.0	1.4401209490210813e+18
14543.0	1.4397418627923965e+18
14544.0	1.4395520369819648e+18
14545.0	1.4392616384724987e+18
14546.0	1.4224013207273352e+18
14547.0	1.424016951528638e+18
14548.0	1.4384018044747773e+18
14549.0	1.4380265602285565e+18
14550.0	1.4378363820965885e+18
14551.0	1.4375586721955837e+18
14552.0	1.4372733286612987e+18
14553.0	1.436980515910451e+18
14554.0	1.436705034023731e+18
14555.0	1.436420155218329e+18
14556.0	1.4361322330259453e+18
14557.0	1.4358515619463165e+18
14558.0	1.435566968353587e+18
14559.0	1.4336951846961098e+18
14560.0	1.434993229509427e+18
14561.0	1.434707897719193e+18
14562.0	1.4344099578511357e+18
14563.0	1.434144475185152e+18
14564.0	1.4338505769484285e+18
14565.0	1.4332215487889408e+18
14566.0	1.432937482000793e+18
14567.0	1.4326520008933376e+18
14568.0	1.432355834377011e+18
14569.0	1.4320854057877504e+18
14570.0	1.431357527949312e+18
14571.0	1.4315148126715901e+18
14572.0	1.4311988238745597e+18
14573.0	1.430909537694515e+18
14574.0	1.4306492794535936e+18
14575.0	1.4303813557026813e+18
14576.0	1.4300951598858235e+18
14577.0	1.429808415454003e+18
14578.0	1.4295289355567104e+18
14579.0	1.4292478869897213e+18
14580.0	1.4289644090818557e+18
14581.0	1.4286768408887293e+18
14582.0	1.428397157987123e+18
14583.0	1.4281138981830653e+18
14584.0	1.4278207565987837e+18
14585.0	1.4275469826326525e+18
14586.0	1.427260677763891e+18
14587.0	1.4269772283772925e+18
14588.0	1.4266966764158973e+18
14589.0	1.426422177674035e+18
14590.0	1.426147962467123e+18
14591.0	1.4258705948213245e+18
14592.0	1.425593321127936e+18
14593.0	1.4252272875732992e+18
14594.0	1.425049633633075e+18
14595.0	1.424769524590182e+18
14596.0	1.4244536062574592e+18
14597.0	1.4241812902313981e+18
14598.0	1.4239496958640125e+18
14599.0	1.4236802504196093e+18
14600.0	1.423405273527091e+18
14601.0	1.4231321958154237e+18
14602.0	1.4228506372210685e+18
14603.0	1.4225839650504704e+18
14604.0	1.422273692250931e+18
14605.0	1.4220255454822397e+18
14606.0	1.4216928851656704e+18
14607.0	1.4214859751161853e+18
14608.0	1.421211464630272e+18
14609.0	1.4209298892587008e+18
14610.0	1.4206471260602365e+18
14611.0	1.4203893223260157e+18
14612.0	1.4201178518716413e+18
14613.0	1.419845339552153e+18
14614.0	1.4195679165415421e+18
14615.0	1.4192988536176637e+18
14616.0	1.4190292773109757e+18
14617.0	1.418754506778214e+18
14618.0	1.4184758221209597e+18
14619.0	1.4181906564251648e+18
14620.0	1.4178298355515387e+18
14621.0	1.4176601323339773e+18
14622.0	1.4173838686289917e+18
14623.0	1.4171124787052541e+18
14624.0	1.416789681713971e+18
14625.0	1.4165573642485757e+18
14626.0	1.4162813337468925e+18
14627.0	1.416002649089638e+18
14628.0	1.415738520344985e+18
14629.0	1.4154646692036603e+18
14630.0	1.415189811429376e+18
14631.0	1.4149161045721085e+18
14632.0	1.413563787142759e+18
14633.0	1.414280180976844e+18
14634.0	1.4140909121699837e+18
14635.0	1.413728950445669e+18
14636.0	1.4131595468341245e+18
14637.0	1.4132735345950717e+18
14638.0	1.4129964337070077e+18
14639.0	1.412715833091686e+18
14640.0	1.412448556941312e+18
14641.0	1.4081671808679898e+18
14642.0	1.4118993950408701e+18
14643.0	1.4116292080435197e+18
14644.0	1.411346350892646e+18
14645.0	1.4110606919467008e+18
14646.0	1.4107969306230781e+18
14647.0	1.4105211366801408e+18
