# Flux units: erg / (cm m2 s)
# Wavelength units: Angstrom
wave	flux
14000.0	1.8616453955583997e+18
14001.0	1.8611966184521725e+18
14002.0	1.8607746580479997e+18
14003.0	1.8603392775487483e+18
14004.0	1.8599040480444413e+18
14005.0	1.8594687430426621e+18
14006.0	1.859032057276006e+18
14007.0	1.8585964150521856e+18
14008.0	1.858142769197875e+18
14009.0	1.857728598455091e+18
14010.0	1.857291046984089e+18
14011.0	1.8567407190671355e+18
14012.0	1.8564247252369408e+18
14013.0	1.8559904604225533e+18
14014.0	1.855555009458995e+18
14015.0	1.8551216187375613e+18
14016.0	1.8546881374191613e+18
14017.0	1.8542542752579574e+18
14018.0	1.8538201832488955e+18
14019.0	1.85338692674519e+18
14020.0	1.8529532608774141e+18
14021.0	1.8525152161562621e+18
14022.0	1.852079582321049e+18
14023.0	1.8516421751341053e+18
14024.0	1.8512101450448888e+18
14025.0	1.8507808546750461e+18
14026.0	1.8503477357445117e+18
14027.0	1.8499155026509821e+18
14028.0	1.8494829927333888e+18
14029.0	1.8490502026362875e+18
14030.0	1.8484964152573947e+18
14031.0	1.8481820219736061e+18
14032.0	1.8477540301602813e+18
14033.0	1.8473122273427453e+18
14034.0	1.84689028539351e+18
14035.0	1.846458730099507e+18
14036.0	1.8460271798386683e+18
14037.0	1.8455954332844027e+18
14038.0	1.8451644635152381e+18
14039.0	1.8447274136829947e+18
14040.0	1.844292798224793e+18
14041.0	1.8438636320063483e+18
14042.0	1.8434316807700477e+18
14043.0	1.8429946829471741e+18
14044.0	1.842570199249715e+18
14045.0	1.8421414574948347e+18
14046.0	1.841710420616806e+18
14047.0	1.841279591776256e+18
14048.0	1.8408509188079616e+18
14049.0	1.8404212744388605e+18
14050.0	1.839991398544179e+18
14051.0	1.8395598466056187e+18
14052.0	1.839132034308505e+18
14053.0	1.8387024285270016e+18
14054.0	1.8382731868110843e+18
14055.0	1.8378434417786877e+18
14056.0	1.8374147906207741e+18
14057.0	1.8369857535868925e+18
14058.0	1.8365551076179965e+18
14059.0	1.836121455171993e+18
14060.0	1.8356928006586365e+18
14061.0	1.8352628761100288e+18
14062.0	1.8348358338871293e+18
14063.0	1.8344042685267963e+18
14064.0	1.8339614875975677e+18
14065.0	1.833549652243251e+18
14066.0	1.8331232911753213e+18
14067.0	1.8326923516051446e+18
14068.0	1.832267856163635e+18
14069.0	1.8318398375067645e+18
14070.0	1.8314127801843712e+18
14071.0	1.8309849511100408e+18
14072.0	1.8305582729527296e+18
14073.0	1.830131185431347e+18
14074.0	1.8297042287722496e+18
14075.0	1.8292736650117115e+18
14076.0	1.8288468945797117e+18
14077.0	1.828395151261696e+18
14078.0	1.8279954206687227e+18
14079.0	1.8275698229641216e+18
14080.0	1.8271449299025915e+18
14081.0	1.8267140607967232e+18
14082.0	1.8262818461581312e+18
14083.0	1.825859947829657e+18
14084.0	1.8254344725987323e+18
14085.0	1.8249450728194045e+18
14086.0	1.8245810693079037e+18
14087.0	1.8241578321575933e+18
14088.0	1.823730031604531e+18
14089.0	1.8233039507161085e+18
14090.0	1.8228817671749632e+18
14091.0	1.822457337164595e+18
14092.0	1.8220325078564861e+18
14093.0	1.8216077674676221e+18
14094.0	1.8211832049172477e+18
14095.0	1.8207587514187768e+18
14096.0	1.82032822960128e+18
14097.0	1.8199071164465147e+18
14098.0	1.8194829078953981e+18
14099.0	1.819062004455833e+18
14100.0	1.8186358950461437e+18
14101.0	1.8182144681574397e+18
14102.0	1.8177907075579896e+18
14103.0	1.8173645746601984e+18
14104.0	1.8169439161679872e+18
14105.0	1.8165197579485181e+18
14106.0	1.8160920245043197e+18
14107.0	1.815665232261939e+18
14108.0	1.8152424866840576e+18
14109.0	1.8148211034161147e+18
14110.0	1.8143946584621053e+18
14111.0	1.813966985415885e+18
14112.0	1.81355408303063e+18
14113.0	1.8131320169299965e+18
14114.0	1.812706920864153e+18
14115.0	1.8122874401325053e+18
14116.0	1.8118499171827707e+18
14117.0	1.8112485563301885e+18
14118.0	1.8110217887678461e+18
14119.0	1.8105963504467963e+18
14120.0	1.8101758546935805e+18
14121.0	1.8097531594473472e+18
14122.0	1.8093315563978747e+18
14123.0	1.8089088930283517e+18
14124.0	1.8084869494013952e+18
14125.0	1.8079796114227192e+18
14126.0	1.8076508417425408e+18
14127.0	1.807231723398758e+18
14128.0	1.806810875324006e+18
14129.0	1.8063883579162621e+18
14130.0	1.8059658019209208e+18
14131.0	1.8055501782712315e+18
14132.0	1.8051289493536765e+18
14133.0	1.8045978867138552e+18
14134.0	1.8042836763017216e+18
14135.0	1.80386092065751e+18
14136.0	1.803430108594176e+18
14137.0	1.8030246620037115e+18
14138.0	1.8026026076471293e+18
14139.0	1.802186072994611e+18
14140.0	1.8017587824689147e+18
14141.0	1.8013476836343805e+18
14142.0	1.8009084561195005e+18
14143.0	1.800499383972659e+18
14144.0	1.8000915281739776e+18
14145.0	1.799672946701107e+18
14146.0	1.799254103503667e+18
14147.0	1.7988358223429632e+18
14148.0	1.798416861705011e+18
14149.0	1.797998186279731e+18
14150.0	1.7975817137029112e+18
14151.0	1.7971612246605821e+18
14152.0	1.7967461697585147e+18
14153.0	1.7963284858667e+18
14154.0	1.7959057151229947e+18
14155.0	1.7954257206509565e+18
14156.0	1.7950738906873853e+18
14157.0	1.7946590102683648e+18
14158.0	1.7942407307853821e+18
14159.0	1.7938248051458048e+18
14160.0	1.7934080121241597e+18
14161.0	1.792978466740633e+18
14162.0	1.792553434428211e+18
14163.0	1.792158174963302e+18
14164.0	1.7917333590769661e+18
14165.0	1.7912363776737277e+18
14166.0	1.7909027459563517e+18
14167.0	1.79048436245463e+18
14168.0	1.790069898110566e+18
14169.0	1.789655601538662e+18
14170.0	1.7892386642329595e+18
14171.0	1.7888234885349368e+18
14172.0	1.78840892688302e+18
14173.0	1.7879550545362944e+18
14174.0	1.7875775000674296e+18
14175.0	1.7871632689266685e+18
14176.0	1.7867475328696317e+18
14177.0	1.7863331406675965e+18
14178.0	1.7859177401548797e+18
14179.0	1.7854957378076664e+18
14180.0	1.7850895026880512e+18
14181.0	1.7846750920310781e+18
14182.0	1.7842606511751168e+18
14183.0	1.7838466230386685e+18
14184.0	1.7834315245158397e+18
14185.0	1.783018607031091e+18
14186.0	1.782564538390937e+18
14187.0	1.782186158483046e+18
14188.0	1.7817772440420347e+18
14189.0	1.7813627377549307e+18
14190.0	1.7809502564777981e+18
14191.0	1.7805368809750523e+18
14192.0	1.7801224854175741e+18
14193.0	1.7797049692979197e+18
14194.0	1.7792977191567355e+18
14195.0	1.778885462694297e+18
14196.0	1.7784727196925952e+18
14197.0	1.778060159562547e+18
14198.0	1.7776466498420728e+18
14199.0	1.7772340091813888e+18
14200.0	1.7768007694548987e+18
14201.0	1.776406999806771e+18
14202.0	1.7759928072536067e+18
14203.0	1.775571722620108e+18
14204.0	1.7751684654563325e+18
14205.0	1.7747568633053181e+18
14206.0	1.774320583547289e+18
14207.0	1.7739344039116797e+18
14208.0	1.7735231490490365e+18
14209.0	1.7730838913351677e+18
14210.0	1.7726842882490365e+18
14211.0	1.7722897334271997e+18
14212.0	1.7718787990093821e+18
14213.0	1.771467559246233e+18
14214.0	1.771057428457062e+18
14215.0	1.7706443130011648e+18
14216.0	1.770236683694899e+18
14217.0	1.7698263683563517e+18
14218.0	1.7694137545392125e+18
14219.0	1.769006131943833e+18
14220.0	1.768596215903027e+18
14221.0	1.768185529788006e+18
14222.0	1.7677698021195768e+18
14223.0	1.767366679173529e+18
14224.0	1.7669575113965565e+18
14225.0	1.7664850817712125e+18
14226.0	1.7661388604309504e+18
14227.0	1.7657297429856253e+18
14228.0	1.7651652433543168e+18
14229.0	1.7648945245192187e+18
14230.0	1.7645029476532221e+18
14231.0	1.7640891845967872e+18
14232.0	1.7636856405426168e+18
14233.0	1.7632756003504125e+18
14234.0	1.762868799838617e+18
14235.0	1.762460064913817e+18
14236.0	1.7620521252290552e+18
14237.0	1.761644096625049e+18
14238.0	1.7612363683332093e+18
14239.0	1.7608271753904123e+18
14240.0	1.7601305333727235e+18
14241.0	1.7600118362472443e+18
14242.0	1.7595997928554493e+18
14243.0	1.7591612498509821e+18
14244.0	1.758785176810291e+18
14245.0	1.758374636657049e+18
14246.0	1.7579639622860797e+18
14247.0	1.75756293481431e+18
14248.0	1.757154372694835e+18
14249.0	1.7567501592297464e+18
14250.0	1.7563435181015037e+18
14251.0	1.7559375564505085e+18
14252.0	1.7555311871131643e+18
14253.0	1.7551248144203776e+18
14254.0	1.7547183142207488e+18
14255.0	1.754306638249984e+18
14256.0	1.753850195633766e+18
14257.0	1.7535005936844797e+18
14258.0	1.7530954272735227e+18
14259.0	1.7526858065117181e+18
14260.0	1.752282238969446e+18
14261.0	1.7518747539472381e+18
14262.0	1.7514790700187643e+18
14263.0	1.7509895695761405e+18
14264.0	1.7506562398486525e+18
14265.0	1.7502619249410043e+18
14266.0	1.7498592264585213e+18
14267.0	1.7494544056582136e+18
14268.0	1.749049962345267e+18
14269.0	1.7486450408816637e+18
14270.0	1.748241183093555e+18
14271.0	1.7478356089962493e+18
14272.0	1.747432747774771e+18
14273.0	1.7470287054372861e+18
14274.0	1.7465022682759165e+18
14275.0	1.7462102088220672e+18
14276.0	1.745808204916326e+18
14277.0	1.7454081589116925e+18
14278.0	1.7450103660871675e+18
14279.0	1.7446069629616125e+18
14280.0	1.7442021505499133e+18
14281.0	1.7438006415720448e+18
14282.0	1.743397683042713e+18
14283.0	1.7429947765227517e+18
14284.0	1.7425920126091261e+18
14285.0	1.7421892268851195e+18
14286.0	1.7417863908294653e+18
14287.0	1.7413842896158715e+18
14288.0	1.740981861246566e+18
14289.0	1.7403943214645238e+18
14290.0	1.7401728823459837e+18
14291.0	1.7397692275621885e+18
14292.0	1.7393675088691197e+18
14293.0	1.738965261693747e+18
14294.0	1.7385361525178365e+18
14295.0	1.7381596197814272e+18
14296.0	1.7376106743070717e+18
14297.0	1.7373595411939323e+18
14298.0	1.7369155590160381e+18
14299.0	1.7365538405613565e+18
14300.0	1.7361543633043453e+18
14301.0	1.7357531428945917e+18
14302.0	1.7353535515525117e+18
14303.0	1.7349462108143613e+18
14304.0	1.7345503943458813e+18
14305.0	1.7341513985949693e+18
14306.0	1.7337319732281344e+18
14307.0	1.7333470854381565e+18
14308.0	1.7329514367418363e+18
14309.0	1.7325504394690557e+18
14310.0	1.732064876639027e+18
14311.0	1.7317145952124925e+18
14312.0	1.73134350164951e+18
14313.0	1.730937263174451e+18
14314.0	1.730551855290777e+18
14315.0	1.730153364534067e+18
14316.0	1.7297436900851712e+18
14317.0	1.729345028200857e+18
14318.0	1.728955882353459e+18
14319.0	1.7285570141093885e+18
14320.0	1.7281580368134141e+18
14321.0	1.7277594000949248e+18
14322.0	1.727351480542822e+18
14323.0	1.7269595614216187e+18
14324.0	1.72656346309591e+18
14325.0	1.7261634355462141e+18
14326.0	1.72576730031063e+18
14327.0	1.7253677223903227e+18
14328.0	1.7249699211771904e+18
14329.0	1.72457330779095e+18
14330.0	1.7241755267104765e+18
14331.0	1.723777718786457e+18
14332.0	1.723380276605747e+18
14333.0	1.722982831069593e+18
14334.0	1.7225818186973181e+18
14335.0	1.7221762831876093e+18
14336.0	1.7217744453763067e+18
14337.0	1.7213872960176123e+18
14338.0	1.7209901155614715e+18
14339.0	1.7205912875827197e+18
14340.0	1.7201970230067197e+18
14341.0	1.7197998442283005e+18
14342.0	1.7194039136747515e+18
14343.0	1.7190037485518848e+18
14344.0	1.7186093682130941e+18
14345.0	1.7182151875231741e+18
14346.0	1.7178127088222203e+18
14347.0	1.7174125722206203e+18
14348.0	1.7170211127951357e+18
14349.0	1.716625690591232e+18
14350.0	1.7162250171187195e+18
14351.0	1.7158280933539837e+18
14352.0	1.715437192609792e+18
14353.0	1.715043518591795e+18
14354.0	1.7146477809762296e+18
14355.0	1.7142517094940667e+18
14356.0	1.7138573459324925e+18
14357.0	1.7134635796398077e+18
14358.0	1.7130688000032765e+18
14359.0	1.7126708662501376e+18
14360.0	1.7122790175932413e+18
14361.0	1.711884947632947e+18
14362.0	1.7114907803647997e+18
14363.0	1.7110964302249981e+18
14364.0	1.7106840462557181e+18
14365.0	1.7103062820716541e+18
14366.0	1.7099114789470203e+18
14367.0	1.709520522838016e+18
14368.0	1.7091266877587453e+18
14369.0	1.7087331815129085e+18
14370.0	1.7083396752670715e+18
14371.0	1.7079463032389627e+18
14372.0	1.7075517534502907e+18
14373.0	1.707159735343513e+18
14374.0	1.7067666736939003e+18
14375.0	1.706373461049344e+18
14376.0	1.7059808272187387e+18
14377.0	1.705587921597235e+18
14378.0	1.7051948364595195e+18
14379.0	1.704802806608691e+18
14380.0	1.704410298607206e+18
14381.0	1.7040153914638333e+18
14382.0	1.7036253698457595e+18
14383.0	1.7032277162721275e+18
14384.0	1.7028370822856696e+18
14385.0	1.7024495923494907e+18
14386.0	1.7020546617180157e+18
14387.0	1.701665965500006e+18
14388.0	1.701273903772467e+18
14389.0	1.7008828033794043e+18
14390.0	1.7004909631111165e+18
14391.0	1.70009996338135e+18
14392.0	1.6997060746149885e+18
14393.0	1.699317817960038e+18
14394.0	1.6989190638010365e+18
14395.0	1.6985297619255296e+18
14396.0	1.6981449127231485e+18
14397.0	1.697754438120243e+18
14398.0	1.6973621733883904e+18
14399.0	1.6969732590665725e+18
14400.0	1.6965770147790843e+18
14401.0	1.6961914357678075e+18
14402.0	1.695802362062438e+18
14403.0	1.694077629025482e+18
14404.0	1.6913574299435e+18
14405.0	1.6943746193031153e+18
14406.0	1.694242747029913e+18
14407.0	1.6918023499677704e+18
14408.0	1.6934575817097213e+18
14409.0	1.693070271289753e+18
14410.0	1.692677342180147e+18
14411.0	1.69228933047255e+18
14412.0	1.691899936322355e+18
14413.0	1.691511594103603e+18
14414.0	1.6911220992901115e+18
14415.0	1.6907334903136253e+18
14416.0	1.6903441615945725e+18
14417.0	1.6899500664684541e+18
14418.0	1.689556936032256e+18
14419.0	1.6891789856210936e+18
14420.0	1.6887899303706621e+18
14421.0	1.688402549486387e+18
14422.0	1.6880145059020797e+18
14423.0	1.687625202348851e+18
14424.0	1.6789647917055939e+18
14425.0	1.6868496486957053e+18
14426.0	1.6864629154119677e+18
14427.0	1.686075512717312e+18
14428.0	1.6856817967562747e+18
14429.0	1.6853000848932856e+18
14430.0	1.684913255979417e+18
14431.0	1.6844975618654205e+18
14432.0	1.6841324091146237e+18
14433.0	1.682219980973669e+18
14434.0	1.6833618349391872e+18
14435.0	1.6829721337659387e+18
14436.0	1.6825913933037568e+18
14437.0	1.6822047741050875e+18
14438.0	1.681774227121766e+18
14439.0	1.6814223770255357e+18
14440.0	1.68104528225239e+18
14441.0	1.6806578694914043e+18
14442.0	1.6802706077253632e+18
14443.0	1.67987701088256e+18
14444.0	1.679500176156262e+18
14445.0	1.6791152078356475e+18
14446.0	1.6770845254877187e+18
14447.0	1.6783416540266493e+18
14448.0	1.6779584741572603e+18
14449.0	1.6775730528518144e+18
14450.0	1.677186410165043e+18
14451.0	1.676802295804723e+18
14452.0	1.676416537277235e+18
14453.0	1.6760033261912061e+18
14454.0	1.6756471693836288e+18
14455.0	1.6752613991120893e+18
14456.0	1.6748716090195965e+18
14457.0	1.6744834547056635e+18
14458.0	1.67410559656919e+18
14459.0	1.6737199420604416e+18
14460.0	1.6733391009349632e+18
14461.0	1.6729499097890813e+18
14462.0	1.672539406545715e+18
14463.0	1.6721857226997757e+18
14464.0	1.6718031015116797e+18
14465.0	1.6714151082590203e+18
14466.0	1.6710354448941053e+18
14467.0	1.6706298087211003e+18
14468.0	1.6702665685729277e+18
14469.0	1.6698798906540032e+18
14470.0	1.6694950951387133e+18
14471.0	1.6691142254919675e+18
14472.0	1.6687326025482235e+18
14473.0	1.668352157365043e+18
14474.0	1.667969007694643e+18
14475.0	1.667584549401395e+18
14476.0	1.6671035868839933e+18
14477.0	1.6668206458470397e+18
14478.0	1.6664377377685504e+18
14479.0	1.6660544186482685e+18
14480.0	1.6656696583651323e+18
14481.0	1.6652909630455805e+18
14482.0	1.6649080633556992e+18
14483.0	1.6645243097055232e+18
14484.0	1.664143584342835e+18
14485.0	1.663753636544512e+18
14486.0	1.6633196586205181e+18
14487.0	1.6629968784064507e+18
14488.0	1.6626054357581821e+18
14489.0	1.6622275306455037e+18
14490.0	1.6618470200311805e+18
14491.0	1.6614670697758715e+18
14492.0	1.661085790765056e+18
14493.0	1.660704305394483e+18
14494.0	1.6603192565432315e+18
14495.0	1.6599427456172032e+18
14496.0	1.6595339402280952e+18
14497.0	1.6591808620396541e+18
14498.0	1.6587997960994808e+18
14499.0	1.6584196008968192e+18
14500.0	1.658038976197427e+18
14501.0	1.6576137492692987e+18
14502.0	1.657190552384307e+18
14503.0	1.656893577206169e+18
14504.0	1.656516744157593e+18
14505.0	1.6560844909314043e+18
14506.0	1.6556462968930296e+18
14507.0	1.65531343692759e+18
14508.0	1.654983778054963e+18
14509.0	1.6546040475811835e+18
14510.0	1.6542244177707003e+18
14511.0	1.6538448634576893e+18
14512.0	1.6534620375875584e+18
14513.0	1.653086031655731e+18
14514.0	1.6526927921676288e+18
14515.0	1.652326585807667e+18
14516.0	1.6514921743253507e+18
14517.0	1.6515694199832568e+18
14518.0	1.65119047803863e+18
14519.0	1.6508117223211005e+18
14520.0	1.6504330504896507e+18
14521.0	1.6500533485371387e+18
14522.0	1.6496753008181243e+18
14523.0	1.6491970159443965e+18
14524.0	1.648813532407398e+18
14525.0	1.64853946819543e+18
14526.0	1.6481623969103872e+18
14527.0	1.6477784100569088e+18
14528.0	1.6473758927683581e+18
14529.0	1.6470260962033661e+18
14530.0	1.64664695628759e+18
14531.0	1.6462721851588603e+18
14532.0	1.645737663057101e+18
14533.0	1.6455170476998653e+18
14534.0	1.6451397432115197e+18
14535.0	1.6447597476577275e+18
14536.0	1.6443848087568384e+18
14537.0	1.6440049759420416e+18
14538.0	1.6436302266236925e+18
14539.0	1.643253329821696e+18
14540.0	1.6428762937688061e+18
14541.0	1.6424950030139387e+18
14542.0	1.6421224531886077e+18
14543.0	1.6416807376125947e+18
14544.0	1.641368891110195e+18
14545.0	1.6409902427668477e+18
14546.0	1.63090719802654e+18
14547.0	1.6316829764943785e+18
14548.0	1.639860136207974e+18
14549.0	1.6394620564930557e+18
14550.0	1.6391092131856381e+18
14551.0	1.6387343598485504e+18
14552.0	1.6383574160703485e+18
14553.0	1.6379800729944061e+18
14554.0	1.63760676316119e+18
14555.0	1.637230728708096e+18
14556.0	1.63685250147287e+18
14557.0	1.6364795775156221e+18
14558.0	1.636103922227609e+18
14559.0	1.6353857332314097e+18
14560.0	1.6353446659620861e+18
14561.0	1.6349762970189821e+18
14562.0	1.634596902089523e+18
14563.0	1.6342271909691392e+18
14564.0	1.633849047619993e+18
14565.0	1.63347704137646e+18
14566.0	1.6331020521439232e+18
14567.0	1.6327270478118907e+18
14568.0	1.632342805944729e+18
14569.0	1.6319775978291195e+18
14570.0	1.6315058023825405e+18
14571.0	1.6312275824541693e+18
14572.0	1.6308430637629437e+18
14573.0	1.6304696348114941e+18
14574.0	1.630096269613465e+18
14575.0	1.629729709254246e+18
14576.0	1.6293558558392315e+18
14577.0	1.6289805797163003e+18
14578.0	1.6286024346894339e+18
14579.0	1.628228343037952e+18
14580.0	1.6278544543907837e+18
14581.0	1.6274771549356032e+18
14582.0	1.627106561333657e+18
14583.0	1.6267277217300475e+18
14584.0	1.626349033121382e+18
14585.0	1.6259780100227067e+18
14586.0	1.6256039401816061e+18
14587.0	1.6252290432237565e+18
14588.0	1.6248583741243387e+18
14589.0	1.624499230972313e+18
14590.0	1.6241415809925115e+18
14591.0	1.6237835434590203e+18
14592.0	1.623425165348044e+18
14593.0	1.6230446211792893e+18
14594.0	1.6227113333948413e+18
14595.0	1.6223523278159867e+18
14596.0	1.6219748656218107e+18
14597.0	1.6216217102581757e+18
14598.0	1.6212800758087675e+18
14599.0	1.6209241656262653e+18
14600.0	1.6205664552484861e+18
14601.0	1.6202097112383485e+18
14602.0	1.6198490849804285e+18
14603.0	1.6194951796752381e+18
14604.0	1.6191286763585533e+18
14605.0	1.618776732309913e+18
14606.0	1.6184088381620221e+18
14607.0	1.6180669218553853e+18
14608.0	1.6177095419887613e+18
14609.0	1.6173442986409981e+18
14610.0	1.6169880982126587e+18
14611.0	1.6166388318076923e+18
14612.0	1.616283195093811e+18
14613.0	1.6159265936900093e+18
14614.0	1.6155690879942653e+18
14615.0	1.6152117467152381e+18
14616.0	1.614856527754035e+18
14617.0	1.6144998391087104e+18
14618.0	1.614139192718131e+18
14619.0	1.6137791201083392e+18
14620.0	1.6133878586540024e+18
14621.0	1.613073743872e+18
14622.0	1.6127168924876797e+18
14623.0	1.6123610729021435e+18
14624.0	1.611992487532953e+18
14625.0	1.6116474120765435e+18
14626.0	1.611289211804057e+18
14627.0	1.610929328776806e+18
14628.0	1.6105789382983683e+18
14629.0	1.610222558353817e+18
14630.0	1.6098657992441853e+18
14631.0	1.6095089411489795e+18
14632.0	1.6084696647598083e+18
14633.0	1.6087343236644856e+18
14634.0	1.6084387628056576e+18
14635.0	1.6080257798897656e+18
14636.0	1.6075000859590653e+18
14637.0	1.607371778844262e+18
14638.0	1.6070147043229693e+18
14639.0	1.6066566969884672e+18
14640.0	1.6063017783394304e+18
14641.0	1.6033550616756196e+18
14642.0	1.605588969796403e+18
14643.0	1.6052335578972157e+18
14644.0	1.6048747385454592e+18
14645.0	1.604516014823833e+18
14646.0	1.604159389931929e+18
14647.0	1.6038031307833341e+18
14648.0	1.6034512773316605e+18
