# Flux units: erg / (cm m2 s)
# Wavelength units: Angstrom
wave	flux
14000.0	1.8905114379026427e+18
14001.0	1.89012635549696e+18
14002.0	1.8898976719765504e+18
14003.0	1.8895493383847936e+18
14004.0	1.889199882397286e+18
14005.0	1.8888497603543037e+18
14006.0	1.888492524771737e+18
14007.0	1.8881398106488827e+18
14008.0	1.8877200329605117e+18
14009.0	1.8874345333981184e+18
14010.0	1.8870763415142397e+18
14011.0	1.886148999354777e+18
14012.0	1.8863822747992061e+18
14013.0	1.886051374412595e+18
14014.0	1.8856984186978296e+18
14015.0	1.885353969031577e+18
14016.0	1.8850067729350656e+18
14017.0	1.8846583940448256e+18
14018.0	1.8843096125014013e+18
14019.0	1.883960874578739e+18
14020.0	1.8836114706006013e+18
14021.0	1.8832622394277883e+18
14022.0	1.8829140870299645e+18
14023.0	1.8825547761057787e+18
14024.0	1.8822066438406141e+18
14025.0	1.8818691684630525e+18
14026.0	1.8815198466932733e+18
14027.0	1.881172618720051e+18
14028.0	1.8808176430284797e+18
14029.0	1.8804685645283325e+18
14030.0	1.8798651971207165e+18
14031.0	1.879724379235942e+18
14032.0	1.8794295800627197e+18
14033.0	1.8790448818552832e+18
14034.0	1.878737801759948e+18
14035.0	1.878391088847257e+18
14036.0	1.8780439665704952e+18
14037.0	1.8776967838957563e+18
14038.0	1.87734961464279e+18
14039.0	1.8769982024318973e+18
14040.0	1.876652566616473e+18
14041.0	1.8763069291233275e+18
14042.0	1.8759509803532288e+18
14043.0	1.875577710785331e+18
14044.0	1.8752561385308155e+18
14045.0	1.8749172035354621e+18
14046.0	1.8745696937050112e+18
14047.0	1.8742209557823483e+18
14048.0	1.8738809822773245e+18
14049.0	1.8735352793530363e+18
14050.0	1.8731888902406144e+18
14051.0	1.872835642602291e+18
14052.0	1.8724914764709883e+18
14053.0	1.872150558408704e+18
14054.0	1.8718047632097275e+18
14055.0	1.871458902579609e+18
14056.0	1.8711130738262008e+18
14057.0	1.870767372579635e+18
14058.0	1.8704217032097787e+18
14059.0	1.8700761059819515e+18
14060.0	1.8697304500338683e+18
14061.0	1.8693786351697917e+18
14062.0	1.8690387220627453e+18
14063.0	1.8686798456684541e+18
14064.0	1.868293013399142e+18
14065.0	1.8679955701366781e+18
14066.0	1.8676590040842237e+18
14067.0	1.8673143161815037e+18
14068.0	1.8669693900423168e+18
14069.0	1.8666239169658877e+18
14070.0	1.8662797810335741e+18
14071.0	1.8659325882925056e+18
14072.0	1.8655907592273915e+18
14073.0	1.8652463129165821e+18
14074.0	1.8649018934493181e+18
14075.0	1.8645397505310715e+18
14076.0	1.8642118784319483e+18
14077.0	1.86380817834967e+18
14078.0	1.8635167681740797e+18
14079.0	1.8631713269743608e+18
14080.0	1.8628365913161725e+18
14081.0	1.8624929385676797e+18
14082.0	1.8621484016599037e+18
14083.0	1.8618027926880253e+18
14084.0	1.861453522927616e+18
14085.0	1.860890180924211e+18
14086.0	1.8607537737695232e+18
14087.0	1.8604290977300475e+18
14088.0	1.8600765295689725e+18
14089.0	1.8597451627757568e+18
14090.0	1.8594019177136125e+18
14091.0	1.8590594125266941e+18
14092.0	1.8587165986390008e+18
14093.0	1.8583736924766203e+18
14094.0	1.8580306940395515e+18
14095.0	1.8576871335657472e+18
14096.0	1.8573361273634816e+18
14097.0	1.8569843292766205e+18
14098.0	1.8566561484767227e+18
14099.0	1.856316800761856e+18
14100.0	1.8559639943643133e+18
14101.0	1.85563335402455e+18
14102.0	1.8552909545340925e+18
14103.0	1.8549345259356155e+18
14104.0	1.8546041708085245e+18
14105.0	1.854265336476467e+18
14106.0	1.8539234554019837e+18
14107.0	1.853581465275596e+18
14108.0	1.8532279324246013e+18
14109.0	1.8528941312573435e+18
14110.0	1.8525547600543741e+18
14111.0	1.8522079297011707e+18
14112.0	1.8518644094926843e+18
14113.0	1.8515311384854525e+18
14114.0	1.8511756879986683e+18
14115.0	1.8508436048183293e+18
14116.0	1.8504710566707192e+18
14117.0	1.8496739711385597e+18
14118.0	1.8498097759911933e+18
14119.0	1.8494701464190968e+18
14120.0	1.8491372294111227e+18
14121.0	1.8487903285936125e+18
14122.0	1.8484565173600256e+18
14123.0	1.8481143225516027e+18
14124.0	1.8477540670701565e+18
14125.0	1.8470187485364221e+18
14126.0	1.8470837283717115e+18
14127.0	1.846757574259507e+18
14128.0	1.8464184446484475e+18
14129.0	1.846068072624947e+18
14130.0	1.845717420421939e+18
14131.0	1.8453969940512765e+18
14132.0	1.8450318228455421e+18
14133.0	1.8442264644681718e+18
14134.0	1.8443570146967547e+18
14135.0	1.8440266293706747e+18
14136.0	1.843698784115097e+18
14137.0	1.843360632615731e+18
14138.0	1.8430203806089213e+18
14139.0	1.8426833867374587e+18
14140.0	1.8423427639541755e+18
14141.0	1.8419958329376763e+18
14142.0	1.8416449458536443e+18
14143.0	1.8413249741455355e+18
14144.0	1.8409892888969208e+18
14145.0	1.840649238216704e+18
14146.0	1.8403113081765883e+18
14147.0	1.839973349615206e+18
14148.0	1.8396352820019192e+18
14149.0	1.8392972630425597e+18
14150.0	1.8389586770132987e+18
14151.0	1.838618367963955e+18
14152.0	1.8382822884507643e+18
14153.0	1.8379439859564541e+18
14154.0	1.8375797408530432e+18
14155.0	1.8372609368391677e+18
14156.0	1.8369287546732544e+18
14157.0	1.8365911719215104e+18
14158.0	1.836250180039475e+18
14159.0	1.8359147917475835e+18
14160.0	1.835560723703398e+18
14161.0	1.8351887828910077e+18
14162.0	1.8348063428968443e+18
14163.0	1.8345559412703227e+18
14164.0	1.8342057554739197e+18
14165.0	1.8338713704595453e+18
14166.0	1.8335505515020285e+18
14167.0	1.8332015283666941e+18
14168.0	1.8328766308679677e+18
14169.0	1.8325427978239997e+18
14170.0	1.8322032504602621e+18
14171.0	1.8318661324374013e+18
14172.0	1.8315316501151744e+18
14173.0	1.8311777531985917e+18
14174.0	1.830851037049651e+18
14175.0	1.8305222187155456e+18
14176.0	1.8301861878562816e+18
14177.0	1.8298498902392827e+18
14178.0	1.8295130909835261e+18
14179.0	1.8291734966435837e+18
14180.0	1.828841121539686e+18
14181.0	1.8285050386710525e+18
14182.0	1.828168241093017e+18
14183.0	1.8278326078537723e+18
14184.0	1.827491718312755e+18
14185.0	1.827156262912e+18
14186.0	1.826727058105958e+18
14187.0	1.8264542001758205e+18
14188.0	1.8261489001431037e+18
14189.0	1.8258176642121725e+18
14190.0	1.8254823027638272e+18
14191.0	1.8251462735822843e+18
14192.0	1.8248039982432253e+18
14193.0	1.8244645095997435e+18
14194.0	1.8241408016056315e+18
14195.0	1.8238075054325755e+18
14196.0	1.8234725667700733e+18
14197.0	1.8231376130080763e+18
14198.0	1.8227982535491581e+18
14199.0	1.8224623267086333e+18
14200.0	1.8220828546039803e+18
14201.0	1.821788033620377e+18
14202.0	1.8214614433005565e+18
14203.0	1.8211247430303741e+18
14204.0	1.8207919031975933e+18
14205.0	1.8204545268056061e+18
14206.0	1.8200123716665341e+18
14207.0	1.8197834717200381e+18
14208.0	1.819453950420582e+18
14209.0	1.819001163559731e+18
14210.0	1.8186913856880637e+18
14211.0	1.8184461497663485e+18
14212.0	1.818121743840051e+18
14213.0	1.817789603617177e+18
14214.0	1.8174550273425405e+18
14215.0	1.8171108092018685e+18
14216.0	1.8167896547000315e+18
14217.0	1.8164564826783736e+18
14218.0	1.81611080491991e+18
14219.0	1.8157898349674493e+18
14220.0	1.8154567183106043e+18
14221.0	1.8151231788679165e+18
14222.0	1.8147818229202941e+18
14223.0	1.8144566402088955e+18
14224.0	1.8141214482104315e+18
14225.0	1.8136211952500733e+18
14226.0	1.8134446301511677e+18
14227.0	1.813121261056819e+18
14228.0	1.812346237563699e+18
14229.0	1.812343603540787e+18
14230.0	1.8121260634472445e+18
14231.0	1.8117944181522432e+18
14232.0	1.8114502234996728e+18
14233.0	1.8110905904529403e+18
14234.0	1.8107598041513981e+18
14235.0	1.8104251926446075e+18
14236.0	1.810094735176499e+18
14237.0	1.809760170645913e+18
14238.0	1.8094250608558075e+18
14239.0	1.8090658170404861e+18
14240.0	1.8071837070065661e+18
14241.0	1.8083801674547197e+18
14242.0	1.8080821655109627e+18
14243.0	1.8076328465006587e+18
14244.0	1.807435638715187e+18
14245.0	1.8071004098068475e+18
14246.0	1.806770757645107e+18
14247.0	1.8064418571026432e+18
14248.0	1.806100001193984e+18
14249.0	1.8057803717410816e+18
14250.0	1.805440498899353e+18
14251.0	1.805082374124339e+18
14252.0	1.8047510559850493e+18
14253.0	1.8044184879431675e+18
14254.0	1.8040847522070525e+18
14255.0	1.803718109639475e+18
14256.0	1.803261212360704e+18
14257.0	1.803040836917657e+18
14258.0	1.8027612647456765e+18
14259.0	1.802413035172659e+18
14260.0	1.8020930601091064e+18
14261.0	1.8017498502791165e+18
14262.0	1.801455609787187e+18
14263.0	1.8008906336829435e+18
14264.0	1.8006845306175485e+18
14265.0	1.800463232427622e+18
14266.0	1.8001451850661885e+18
14267.0	1.799817010977177e+18
14268.0	1.7994876020850688e+18
14269.0	1.7991486637342715e+18
14270.0	1.798810914888089e+18
14271.0	1.798454274896691e+18
14272.0	1.7981208864489464e+18
14273.0	1.7977699138011133e+18
14274.0	1.7970528270680061e+18
14275.0	1.7970492602318843e+18
14276.0	1.7967866380812288e+18
14277.0	1.7964688004349947e+18
14278.0	1.796147624122777e+18
14279.0	1.7958176733265915e+18
14280.0	1.7954853636538363e+18
14281.0	1.7951622546063355e+18
14282.0	1.7948336694755325e+18
14283.0	1.794504671625216e+18
14284.0	1.794175568078438e+18
14285.0	1.793846219584307e+18
14286.0	1.7935163006648315e+18
14287.0	1.7931847526776832e+18
14288.0	1.792834187716198e+18
14289.0	1.7915139718119406e+18
14290.0	1.7921787891286016e+18
14291.0	1.7918691454746621e+18
14292.0	1.7915410854707195e+18
14293.0	1.7911888964747261e+18
14294.0	1.790720867513139e+18
14295.0	1.790478636390809e+18
14296.0	1.7893877801287685e+18
14297.0	1.7898038282420221e+18
14298.0	1.7893643692015616e+18
14299.0	1.7891796218544125e+18
14300.0	1.7888672804241405e+18
14301.0	1.7885446965035005e+18
14302.0	1.7882193141432317e+18
14303.0	1.7878560135970813e+18
14304.0	1.7875490878521341e+18
14305.0	1.7872365652279293e+18
14306.0	1.7869060708499453e+18
14307.0	1.7865777340219387e+18
14308.0	1.7862530848260093e+18
14309.0	1.7859224964956155e+18
14310.0	1.7855784461271035e+18
14311.0	1.7852486631030781e+18
14312.0	1.7849150078975997e+18
14313.0	1.784504182531686e+18
14314.0	1.784288919106355e+18
14315.0	1.783960075606425e+18
14316.0	1.7835931461484544e+18
14317.0	1.783306864767795e+18
14318.0	1.7829747832651768e+18
14319.0	1.7826161249746944e+18
14320.0	1.7822893534609403e+18
14321.0	1.7819592952905725e+18
14322.0	1.7816036233445368e+18
14323.0	1.781287361078886e+18
14324.0	1.780983698502451e+18
14325.0	1.7806481357275133e+18
14326.0	1.7803323583234043e+18
14327.0	1.7799989061222397e+18
14328.0	1.779674063988326e+18
14329.0	1.7793541510004733e+18
14330.0	1.779028288811827e+18
14331.0	1.7787021279887355e+18
14332.0	1.77837646544896e+18
14333.0	1.7780506653360128e+18
14334.0	1.7777247242944507e+18
14335.0	1.7773872522723325e+18
14336.0	1.7770553469304827e+18
14337.0	1.776744342644326e+18
14338.0	1.7764196145954808e+18
14339.0	1.7760852128038907e+18
14340.0	1.7757713228365821e+18
14341.0	1.7754459018887163e+18
14342.0	1.7751185834377216e+18
14343.0	1.7747947714248704e+18
14344.0	1.7744666225016827e+18
14345.0	1.7741455921512443e+18
14346.0	1.7737975471276027e+18
14347.0	1.7734406420561915e+18
14348.0	1.7731236449484795e+18
14349.0	1.77279962489815e+18
14350.0	1.772460342614425e+18
14351.0	1.7721299119898621e+18
14352.0	1.7718151143751677e+18
14353.0	1.771499335293337e+18
14354.0	1.7711743438422013e+18
14355.0	1.770847209940582e+18
14356.0	1.770523654619136e+18
14357.0	1.7702036996882424e+18
14358.0	1.7698796829933563e+18
14359.0	1.7695393856880637e+18
14360.0	1.7692298712186875e+18
14361.0	1.768906341063065e+18
14362.0	1.7685827102441472e+18
14363.0	1.768257311106662e+18
14364.0	1.7678935340875776e+18
14365.0	1.767591675061862e+18
14366.0	1.7672782716338176e+18
14367.0	1.7669636048814075e+18
14368.0	1.7666399371526144e+18
14369.0	1.7663169103134715e+18
14370.0	1.7659935110201344e+18
14371.0	1.7656701519921147e+18
14372.0	1.765341108843315e+18
14373.0	1.7650231470456827e+18
14374.0	1.7646998215720952e+18
14375.0	1.7643746472493059e+18
14376.0	1.7640538048036861e+18
14377.0	1.763730026345267e+18
14378.0	1.7633889170227197e+18
14379.0	1.7630380651708416e+18
14380.0	1.7627140149215227e+18
14381.0	1.7623798245228541e+18
14382.0	1.7620673857847293e+18
14383.0	1.7617447263666176e+18
14384.0	1.7614040851283965e+18
14385.0	1.761100637300326e+18
14386.0	1.760758757903564e+18
14387.0	1.7604547832709117e+18
14388.0	1.7601290418782205e+18
14389.0	1.7598089678290936e+18
14390.0	1.7594854544506877e+18
14391.0	1.7591648821182461e+18
14392.0	1.7588419794305021e+18
14393.0	1.7585203115458557e+18
14394.0	1.758156965701222e+18
14395.0	1.7578649028919293e+18
14396.0	1.7575532057067515e+18
14397.0	1.7572307677478907e+18
14398.0	1.7569079623679997e+18
14399.0	1.756584844931891e+18
14400.0	1.7562434134867965e+18
14401.0	1.7559277585563648e+18
14402.0	1.7555960763514875e+18
14403.0	1.754928361609625e+18
14404.0	1.7521699742285809e+18
14405.0	1.7527949909557215e+18
14406.0	1.7542815227576315e+18
14407.0	1.7536003593994237e+18
14408.0	1.75365531149271e+18
14409.0	1.75334477529088e+18
14410.0	1.7530426998390784e+18
14411.0	1.752725744674406e+18
14412.0	1.7524033050378235e+18
14413.0	1.752086477379993e+18
14414.0	1.7517635612704768e+18
14415.0	1.7514161319706621e+18
14416.0	1.75107690505175e+18
14417.0	1.7507537070850043e+18
14418.0	1.7504304906633208e+18
14419.0	1.75011126050816e+18
14420.0	1.749786044242329e+18
14421.0	1.7494678811181053e+18
14422.0	1.7491359321554941e+18
14423.0	1.7487676034777088e+18
14424.0	1.7468896189612024e+18
14425.0	1.748117982963302e+18
14426.0	1.7478584847302653e+18
14427.0	1.7475445544976381e+18
14428.0	1.7472019989790715e+18
14429.0	1.7469041849401341e+18
14430.0	1.74658321163223e+18
14431.0	1.746189564457779e+18
14432.0	1.7459329670053885e+18
14433.0	1.7453114852376568e+18
14434.0	1.7452805379850237e+18
14435.0	1.7449714563678203e+18
14436.0	1.7446672502095864e+18
14437.0	1.7443486525554685e+18
14438.0	1.7440175894298621e+18
14439.0	1.7437029444878339e+18
14440.0	1.7433893347000312e+18
14441.0	1.7430605230768123e+18
14442.0	1.7427344159408128e+18
14443.0	1.7423749791875072e+18
14444.0	1.7420992607420416e+18
14445.0	1.7417742055374843e+18
14446.0	1.7404429485473795e+18
14447.0	1.7410871164665856e+18
14448.0	1.7408287557287928e+18
14449.0	1.740514436264755e+18
14450.0	1.740190131001753e+18
14451.0	1.7398738704138237e+18
14452.0	1.739558042678067e+18
14453.0	1.739236923408384e+18
14454.0	1.7389204279394304e+18
14455.0	1.7385932118294525e+18
14456.0	1.7382491950153725e+18
14457.0	1.7379063979048952e+18
14458.0	1.7375891390726141e+18
14459.0	1.7372682479730685e+18
14460.0	1.7369471555469312e+18
14461.0	1.7366110676451325e+18
14462.0	1.736296959574016e+18
14463.0	1.7359867756937219e+18
14464.0	1.7356737715634179e+18
14465.0	1.7353343953272827e+18
14466.0	1.73503750906839e+18
14467.0	1.7347018087202808e+18
14468.0	1.734399031980851e+18
14469.0	1.734061823361024e+18
14470.0	1.733738398901862e+18
14471.0	1.73344098919383e+18
14472.0	1.733127250221465e+18
14473.0	1.7328140732858365e+18
14474.0	1.7324992303726587e+18
14475.0	1.732179085859225e+18
14476.0	1.7318456235917307e+18
14477.0	1.7315456989790203e+18
14478.0	1.7312255678873595e+18
14479.0	1.730908134572032e+18
14480.0	1.7305738300882944e+18
14481.0	1.730275373481984e+18
14482.0	1.7299522224914427e+18
14483.0	1.7296297207791613e+18
14484.0	1.7293019677982715e+18
14485.0	1.72895052538839e+18
14486.0	1.728391790408499e+18
14487.0	1.728360239176089e+18
14488.0	1.7280498741018621e+18
14489.0	1.727729487996518e+18
14490.0	1.727417133144473e+18
14491.0	1.727101159446937e+18
14492.0	1.7267860782972928e+18
14493.0	1.7264614307790848e+18
14494.0	1.7261276648439805e+18
14495.0	1.725823106364211e+18
14496.0	1.7253888096731139e+18
14497.0	1.7251952911974395e+18
14498.0	1.7248841828925437e+18
14499.0	1.7245678535180285e+18
14500.0	1.7242498917203963e+18
14501.0	1.7239086565687293e+18
14502.0	1.723398343989657e+18
14503.0	1.7232812658655227e+18
14504.0	1.7229757947052027e+18
14505.0	1.7226518014984187e+18
14506.0	1.7222728259993597e+18
14507.0	1.7217446893060093e+18
14508.0	1.721663506035507e+18
14509.0	1.7213545267593213e+18
14510.0	1.7210351271542784e+18
14511.0	1.720720525833011e+18
14512.0	1.7203917393756157e+18
14513.0	1.7200829714923515e+18
14514.0	1.7197366411001853e+18
14515.0	1.7194143222595581e+18
14516.0	1.7165266110644234e+18
14517.0	1.718710632133427e+18
14518.0	1.7184969340223485e+18
14519.0	1.7181908924366848e+18
14520.0	1.7178768447635453e+18
14521.0	1.717563028615987e+18
14522.0	1.7172467629948925e+18
14523.0	1.716910987149312e+18
14524.0	1.716596369050828e+18
14525.0	1.7162951760805885e+18
14526.0	1.7159817273540603e+18
14527.0	1.7156308520140795e+18
14528.0	1.715224611861299e+18
14529.0	1.7150256961552381e+18
14530.0	1.71470575632384e+18
14531.0	1.7144057092374528e+18
14532.0	1.7140715624595453e+18
14533.0	1.713776620679987e+18
14534.0	1.71346444198871e+18
14535.0	1.7131371403149312e+18
14536.0	1.71282900493271e+18
14537.0	1.7125054496112637e+18
14538.0	1.712203595618713e+18
14539.0	1.711889098316185e+18
14540.0	1.711573773896908e+18
14541.0	1.7112335051128832e+18
14542.0	1.7109390028963837e+18
14543.0	1.7106014906089467e+18
14544.0	1.7103044214784e+18
14545.0	1.709964610712371e+18
14546.0	1.707388408797592e+18
14547.0	1.707120929642904e+18
14548.0	1.7090011874721787e+18
14549.0	1.7086088237547515e+18
14550.0	1.7084050292342784e+18
14551.0	1.7081091999399933e+18
14552.0	1.7077949157081085e+18
14553.0	1.7074740950728704e+18
14554.0	1.7071685266046968e+18
14555.0	1.7068535763173376e+18
14556.0	1.7065373912268797e+18
14557.0	1.7062179681337341e+18
14558.0	1.705864133292851e+18
14559.0	1.7036530405081062e+18
14560.0	1.705231753045606e+18
14561.0	1.7049541672959995e+18
14562.0	1.7045877579317248e+18
14563.0	1.7042899657031675e+18
14564.0	1.7039766562275328e+18
14565.0	1.7036664253710339e+18
14566.0	1.7033527954505728e+18
14567.0	1.7030380683001853e+18
14568.0	1.7027164473917435e+18
14569.0	1.7023932427141115e+18
14570.0	1.7015618544861181e+18
14571.0	1.7017680984801277e+18
14572.0	1.7014282575151104e+18
14573.0	1.701101140390707e+18
14574.0	1.7008335840608253e+18
14575.0	1.700524554452992e+18
14576.0	1.7002090974937088e+18
14577.0	1.6998931489619965e+18
14578.0	1.6995860319567867e+18
14579.0	1.699274567974912e+18
14580.0	1.6989613524516861e+18
14581.0	1.6986451220627453e+18
14582.0	1.6983338677960696e+18
14583.0	1.6980201791553533e+18
14584.0	1.6976968301936637e+18
14585.0	1.6973928975040512e+18
14586.0	1.697077700591616e+18
14587.0	1.6967668523335675e+18
14588.0	1.6964541669703675e+18
14589.0	1.696142189605683e+18
14590.0	1.695830032724787e+18
14591.0	1.6955168004243453e+18
14592.0	1.6951897990627328e+18
14593.0	1.6947777237942267e+18
14594.0	1.6945732816732152e+18
14595.0	1.694260666774323e+18
14596.0	1.6939127912005624e+18
14597.0	1.6935928312365053e+18
14598.0	1.69332716905431e+18
14599.0	1.6930234410467323e+18
14600.0	1.69271207437271e+18
14601.0	1.692400424163737e+18
14602.0	1.6920857238568957e+18
14603.0	1.6917752463753216e+18
14604.0	1.6914251041996797e+18
14605.0	1.691145523639091e+18
14606.0	1.6907556681154557e+18
14607.0	1.690524689471897e+18
14608.0	1.6902166732079104e+18
14609.0	1.689906626900787e+18
14610.0	1.6895928694734848e+18
14611.0	1.689281621917696e+18
14612.0	1.6889747129499643e+18
14613.0	1.6886645307473915e+18
14614.0	1.6883501726957563e+18
14615.0	1.688041708480102e+18
14616.0	1.68773142225879e+18
14617.0	1.6874195388465147e+18
14618.0	1.6871038000300032e+18
14619.0	1.6867424825507837e+18
14620.0	1.6863831414276093e+18
14621.0	1.6861720454627323e+18
14622.0	1.685860549604147e+18
14623.0	1.685551452887449e+18
14624.0	1.6851876574134272e+18
14625.0	1.684923817236889e+18
14626.0	1.6846185004269565e+18
14627.0	1.6842710476390397e+18
14628.0	1.6839537720295424e+18
14629.0	1.6836429271269379e+18
14630.0	1.6833311091458048e+18
14631.0	1.6830185244459003e+18
14632.0	1.6825771192483835e+18
14633.0	1.6823671591010304e+18
14634.0	1.682085135777792e+18
14635.0	1.681769207378739e+18
14636.0	1.6814414510424061e+18
14637.0	1.6811549448470523e+18
14638.0	1.680839179186995e+18
14639.0	1.6805194574594043e+18
14640.0	1.6802001417404413e+18
14641.0	1.6793947615526907e+18
14642.0	1.6795767792467963e+18
14643.0	1.6792856156962813e+18
14644.0	1.6789639578779648e+18
14645.0	1.6786446404812795e+18
14646.0	1.6783466519592957e+18
14647.0	1.6780358875873277e+18
14648.0	1.6777317720260603e+18
