# Flux units: erg / (cm m2 s)
# Wavelength units: Angstrom
wave	flux
14000.0	2.2984743372980214e+18
14001.0	2.298089910881484e+18
14002.0	2.29763187778519e+18
14003.0	2.2971360892420093e+18
14004.0	2.2966390340190205e+18
14005.0	2.2961416315076608e+18
14006.0	2.2956400296591352e+18
14007.0	2.2951407095119867e+18
14008.0	2.2945875378569213e+18
14009.0	2.2941504142049277e+18
14010.0	2.2936455357661181e+18
14011.0	2.2928124966600701e+18
14012.0	2.2926602333585403e+18
14013.0	2.2921644313935864e+18
14014.0	2.291664052604108e+18
14015.0	2.2911699233275901e+18
14016.0	2.290675017265971e+18
14017.0	2.290178792515174e+18
14018.0	2.289682467101081e+18
14019.0	2.2891865409847293e+18
14020.0	2.2886900259880955e+18
14021.0	2.2881932878544893e+18
14022.0	2.2876860589277176e+18
14023.0	2.2871631198158845e+18
14024.0	2.2866793420816381e+18
14025.0	2.2862087529168893e+18
14026.0	2.2857155514204155e+18
14027.0	2.2852216687689728e+18
14028.0	2.2847258080837635e+18
14029.0	2.2842258000707581e+18
14030.0	2.280311536327068e+18
14031.0	2.2831278453686262e+18
14032.0	2.2827363725213688e+18
14033.0	2.2822037059796987e+18
14034.0	2.2817491860324347e+18
14035.0	2.2812639671353336e+18
14036.0	2.280759060175257e+18
14037.0	2.280277705071001e+18
14038.0	2.2797856863682555e+18
14039.0	2.2792924362178555e+18
14040.0	2.2787942485327867e+18
14041.0	2.2783038605754365e+18
14042.0	2.277805901060505e+18
14043.0	2.2772973366673405e+18
14044.0	2.276821019761049e+18
14045.0	2.2763323950891003e+18
14046.0	2.2758377037758464e+18
14047.0	2.2753306124222456e+18
14048.0	2.2748526781923323e+18
14049.0	2.2743642112262144e+18
14050.0	2.2738725549113336e+18
14051.0	2.2733752866177024e+18
14052.0	2.272888809429401e+18
14053.0	2.2723971984130045e+18
14054.0	2.2719056930930683e+18
14055.0	2.2714142330716155e+18
14056.0	2.2709228703580155e+18
14057.0	2.270431665350246e+18
14058.0	2.2699405559726077e+18
14059.0	2.2694435678584827e+18
14060.0	2.2689584311697405e+18
14061.0	2.2684641827749885e+18
14062.0	2.2679771385167867e+18
14063.0	2.2674754964029437e+18
14064.0	2.266494695322419e+18
14065.0	2.266500901214617e+18
14066.0	2.2660156688957432e+18
14067.0	2.2654724310302717e+18
14068.0	2.2650359348461565e+18
14069.0	2.2645391547695101e+18
14070.0	2.264053543285555e+18
14071.0	2.2635654890389501e+18
14072.0	2.2630778307346424e+18
14073.0	2.2625884963864568e+18
14074.0	2.2620989489676283e+18
14075.0	2.261595775093964e+18
14076.0	2.2610640094887933e+18
14077.0	2.2598395126349824e+18
14078.0	2.260082575907225e+18
14079.0	2.2596490308354045e+18
14080.0	2.2591667177521147e+18
14081.0	2.2586788681875456e+18
14082.0	2.2581874501091323e+18
14083.0	2.257701494692249e+18
14084.0	2.2572114708004861e+18
14085.0	2.256144679777075e+18
14086.0	2.256168850712166e+18
14087.0	2.2557503229263872e+18
14088.0	2.2552456944680955e+18
14089.0	2.2547317378777083e+18
14090.0	2.2542782530846715e+18
14091.0	2.2538021492490237e+18
14092.0	2.2533160747139067e+18
14093.0	2.2528290807873533e+18
14094.0	2.2523415097245693e+18
14095.0	2.25185092379607e+18
14096.0	2.2512173808877568e+18
14097.0	2.2508174523236347e+18
14098.0	2.2503227308113912e+18
14099.0	2.24990741921792e+18
14100.0	2.249413756348006e+18
14101.0	2.248939845294489e+18
14102.0	2.2484543176966136e+18
14103.0	2.2479612940386296e+18
14104.0	2.2474837272297464e+18
14105.0	2.246998033537433e+18
14106.0	2.2465131434737661e+18
14107.0	2.2460269129105403e+18
14108.0	2.2455288225333243e+18
14109.0	2.2450537588850683e+18
14110.0	2.2445663304286205e+18
14111.0	2.2440788029865981e+18
14112.0	2.2435949916979195e+18
14113.0	2.2430865548115965e+18
14114.0	2.2426217789521917e+18
14115.0	2.2421359476867067e+18
14116.0	2.2415258576486395e+18
14117.0	2.2353747111837706e+18
14118.0	2.2406719913066493e+18
14119.0	2.2401017874219003e+18
14120.0	2.239638769814732e+18
14121.0	2.2392131201007608e+18
14122.0	2.2387031833313275e+18
14123.0	2.238175504655974e+18
14124.0	2.2376900559110144e+18
14125.0	2.2370178582970365e+18
14126.0	2.2368044286214144e+18
14127.0	2.236344538287308e+18
14128.0	2.2358671308619768e+18
14129.0	2.2353783837163515e+18
14130.0	2.2348901415649277e+18
14131.0	2.234418010574028e+18
14132.0	2.233934350280294e+18
14133.0	2.233121880041062e+18
14134.0	2.23297337819136e+18
14135.0	2.2324475231993848e+18
14136.0	2.231852487357235e+18
14137.0	2.2315066149830648e+18
14138.0	2.230981967950643e+18
14139.0	2.2305651396968445e+18
14140.0	2.2300738860351483e+18
14141.0	2.229519383946854e+18
14142.0	2.2286821958352893e+18
14143.0	2.2286274702344187e+18
14144.0	2.2281637681168381e+18
14145.0	2.2276860150808573e+18
14146.0	2.2271947916181501e+18
14147.0	2.2267189025308667e+18
14148.0	2.2262263301799933e+18
14149.0	2.2257443257974781e+18
14150.0	2.225288334488371e+18
14151.0	2.2247735239376893e+18
14152.0	2.2243295249825787e+18
14153.0	2.223850013694361e+18
14154.0	2.2233535590957053e+18
14155.0	2.2227297369063421e+18
14156.0	2.222384993638809e+18
14157.0	2.2219327738478587e+18
14158.0	2.2214507023564795e+18
14159.0	2.2207894451650555e+18
14160.0	2.2202868819820536e+18
14161.0	2.2197753480216573e+18
14162.0	2.2192653491765243e+18
14163.0	2.21884388034478e+18
14164.0	2.218189761858764e+18
14165.0	2.2178170190954493e+18
14166.0	2.217414198139289e+18
14167.0	2.2169296050323453e+18
14168.0	2.2164467718553595e+18
14169.0	2.2159786539745275e+18
14170.0	2.215496564028211e+18
14171.0	2.2150272281214973e+18
14172.0	2.2145526443016187e+18
14173.0	2.214036511706316e+18
14174.0	2.2135908450959355e+18
14175.0	2.213120670328422e+18
14176.0	2.2126413754662904e+18
14177.0	2.211970603915673e+18
14178.0	2.211478170815692e+18
14179.0	2.2109944115363832e+18
14180.0	2.2105247820283901e+18
14181.0	2.2100475943845883e+18
14182.0	2.209569936978739e+18
14183.0	2.2090930664243195e+18
14184.0	2.2086117801066493e+18
14185.0	2.2081307001487357e+18
14186.0	2.2065448237400064e+18
14187.0	2.2071491826810875e+18
14188.0	2.2067074671050747e+18
14189.0	2.2062231038459901e+18
14190.0	2.20574881194967e+18
14191.0	2.205267795745177e+18
14192.0	2.2047973676417021e+18
14193.0	2.204137972721254e+18
14194.0	2.20384473382912e+18
14195.0	2.2033792331939837e+18
14196.0	2.2028724757069821e+18
14197.0	2.2022160100884475e+18
14198.0	2.2017372856516605e+18
14199.0	2.201261779084902e+18
14200.0	2.2001322580508675e+18
14201.0	2.200270475467161e+18
14202.0	2.199836777722675e+18
14203.0	2.1993547582406648e+18
14204.0	2.198884048279961e+18
14205.0	2.1984111790915581e+18
14206.0	2.197859717034803e+18
14207.0	2.1974630751272957e+18
14208.0	2.1969889963016184e+18
14209.0	2.196431219300761e+18
14210.0	2.1959811822256118e+18
14211.0	2.1955625638428664e+18
14212.0	2.1950912062816253e+18
14213.0	2.1946085224218621e+18
14214.0	2.194142974810521e+18
14215.0	2.1936594873221117e+18
14216.0	2.193196103971635e+18
14217.0	2.1927228036087805e+18
14218.0	2.1922411364483072e+18
14219.0	2.1915648871366653e+18
14220.0	2.1907267762782203e+18
14221.0	2.190245691287142e+18
14222.0	2.1896998797967357e+18
14223.0	2.1893078935666683e+18
14224.0	2.188833715755417e+18
14225.0	2.1864909050478602e+18
14226.0	2.1877809941053432e+18
14227.0	2.1873253786058747e+18
14228.0	2.182882468141466e+18
14229.0	2.1855743170838492e+18
14230.0	2.1859097523519483e+18
14231.0	2.185357511832371e+18
14232.0	2.184966854357811e+18
14233.0	2.1844915826720765e+18
14234.0	2.1840226880061437e+18
14235.0	2.183549144373657e+18
14236.0	2.1830784998440957e+18
14237.0	2.1826032852008957e+18
14238.0	2.182131681014579e+18
14239.0	2.1816491229839357e+18
14240.0	2.1803306787536893e+18
14241.0	2.1806978615476221e+18
14242.0	2.18023875135406e+18
14243.0	2.179680818325094e+18
14244.0	2.1792515145334776e+18
14245.0	2.178606078256742e+18
14246.0	2.1781317410619387e+18
14247.0	2.1776701679730683e+18
14248.0	2.177193794024243e+18
14249.0	2.1767295936233472e+18
14250.0	2.1762582528393216e+18
14251.0	2.1757886015209467e+18
14252.0	2.1753172557037565e+18
14253.0	2.1748452085989373e+18
14254.0	2.1743716616110077e+18
14255.0	2.173875503969075e+18
14256.0	2.1713854899683336e+18
14257.0	2.1728010289807352e+18
14258.0	2.1724866054979581e+18
14259.0	2.1720050641666043e+18
14260.0	2.1714887788986368e+18
14261.0	2.1710634966056955e+18
14262.0	2.1706164039319547e+18
14263.0	2.1671888874897423e+18
14264.0	2.1690058968924152e+18
14265.0	2.1692048578969595e+18
14266.0	2.1687514234355704e+18
14267.0	2.168284167903641e+18
14268.0	2.1678155668389883e+18
14269.0	2.1673448484896765e+18
14270.0	2.166876643367321e+18
14271.0	2.1664049519394816e+18
14272.0	2.1658016080199677e+18
14273.0	2.1652132562206715e+18
14274.0	2.1602026668425234e+18
14275.0	2.1638196970389507e+18
14276.0	2.1638158936440827e+18
14277.0	2.163358776583782e+18
14278.0	2.1629028255399933e+18
14279.0	2.1624344425791483e+18
14280.0	2.161962603511808e+18
14281.0	2.1614986514137083e+18
14282.0	2.161030370793881e+18
14283.0	2.1605618620039165e+18
14284.0	2.1600931938303995e+18
14285.0	2.1596237002178555e+18
14286.0	2.1591532016500733e+18
14287.0	2.1586879207964664e+18
14288.0	2.1582194069733368e+18
14289.0	2.1571995569225718e+18
14290.0	2.1572825101893627e+18
14291.0	2.156816241157734e+18
14292.0	2.1563491584311293e+18
14293.0	2.1558798409793533e+18
14294.0	2.1553267884425219e+18
14295.0	2.1549349515296765e+18
14296.0	2.1540293492867072e+18
14297.0	2.1540047253667837e+18
14298.0	2.1528892049195003e+18
14299.0	2.1530507560878077e+18
14300.0	2.1526032288841725e+18
14301.0	2.1521376309411837e+18
14302.0	2.1516714910941184e+18
14303.0	2.151180257565081e+18
14304.0	2.1505752241799163e+18
14305.0	2.1500389941575677e+18
14306.0	2.1495213063143421e+18
14307.0	2.1490597818793981e+18
14308.0	2.1486041345032187e+18
14309.0	2.1481071832989693e+18
14310.0	2.1474858256826365e+18
14311.0	2.1469135363899384e+18
14312.0	2.1465807921872893e+18
14313.0	2.1462069740044288e+18
14314.0	2.145787154373017e+18
14315.0	2.1453572449239037e+18
14316.0	2.1448718901313533e+18
14317.0	2.144360668227174e+18
14318.0	2.143982182622822e+18
14319.0	2.1435233190543357e+18
14320.0	2.1430602477600768e+18
14321.0	2.1425970237931515e+18
14322.0	2.1421078756720635e+18
14323.0	2.1416564007895037e+18
14324.0	2.1412035568861181e+18
14325.0	2.1407335129808893e+18
14326.0	2.1402763036459003e+18
14327.0	2.139807346904268e+18
14328.0	2.139343604521369e+18
14329.0	2.138883150472806e+18
14330.0	2.1384187302903803e+18
14331.0	2.1379444904034301e+18
14332.0	2.137490109707059e+18
14333.0	2.137025875751731e+18
14334.0	2.1365615428108288e+18
14335.0	2.1360887642193915e+18
14336.0	2.1354234721075192e+18
14337.0	2.135168376215961e+18
14338.0	2.1347038436261883e+18
14339.0	2.134228110567014e+18
14340.0	2.1337149475389435e+18
14341.0	2.1326417476190205e+18
14342.0	2.1321911719952376e+18
14343.0	2.1317243962916861e+18
14344.0	2.1312574226169853e+18
14345.0	2.1307969954119677e+18
14346.0	2.130324387948134e+18
14347.0	2.1298090673700861e+18
14348.0	2.1293967790309379e+18
14349.0	2.1289420007145464e+18
14350.0	2.128312715863654e+18
14351.0	2.1278385145643003e+18
14352.0	2.1275501343539195e+18
14353.0	2.127092279096115e+18
14354.0	2.1266086355795965e+18
14355.0	2.1261048677924861e+18
14356.0	2.1256555924029435e+18
14357.0	2.1252417488158717e+18
14358.0	2.1247795583254528e+18
14359.0	2.1243062512517117e+18
14360.0	2.1238400275185664e+18
14361.0	2.123384848226713e+18
14362.0	2.1229291857510392e+18
14363.0	2.1224649417293821e+18
14364.0	2.1214671402958843e+18
14365.0	2.121416300298239e+18
14366.0	2.1209923232727037e+18
14367.0	2.1206192499982333e+18
14368.0	2.120157341365043e+18
14369.0	2.119695890749849e+18
14370.0	2.1192346313949181e+18
14371.0	2.1187737814040568e+18
14372.0	2.1183081750724605e+18
14373.0	2.1178481421320187e+18
14374.0	2.1173889581187072e+18
14375.0	2.11692747227136e+18
14376.0	2.1164660988313595e+18
14377.0	2.1160043479039992e+18
14378.0	2.1155417379831803e+18
14379.0	2.1150820993073147e+18
14380.0	2.1146201151766525e+18
14381.0	2.1140773990825984e+18
14382.0	2.1134717013196795e+18
14383.0	2.1130063818784765e+18
14384.0	2.1125361735565312e+18
14385.0	2.1120879752642555e+18
14386.0	2.1116162217607163e+18
14387.0	2.1111649633042427e+18
14388.0	2.1107024372695035e+18
14389.0	2.1102421929361405e+18
14390.0	2.1097800091566075e+18
14391.0	2.109316333882572e+18
14392.0	2.1088577303609344e+18
14393.0	2.1083977678847997e+18
14394.0	2.1079103813713915e+18
14395.0	2.1074494407835643e+18
14396.0	2.107013187869081e+18
14397.0	2.1065544014757883e+18
14398.0	2.1060926824251387e+18
14399.0	2.1056310741041147e+18
14400.0	2.105155624579891e+18
14401.0	2.1047056244146173e+18
14402.0	2.1042465679081472e+18
14403.0	2.102635096178686e+18
14404.0	2.0997360486186995e+18
14405.0	2.101933035120228e+18
14406.0	2.102403401148006e+18
14407.0	2.100337466513818e+18
14408.0	2.101421831670988e+18
14409.0	2.101018136621875e+18
14410.0	2.1005312114819067e+18
14411.0	2.1001081135824893e+18
14412.0	2.0996490168107005e+18
14413.0	2.0991913393913848e+18
14414.0	2.0987297579139064e+18
14415.0	2.0982704027729917e+18
14416.0	2.0977919618711547e+18
14417.0	2.0972876068814843e+18
14418.0	2.0968247117479933e+18
14419.0	2.096427784627814e+18
14420.0	2.095967458086092e+18
14421.0	2.095508958583193e+18
14422.0	2.095039475036979e+18
14423.0	2.094520559101542e+18
14424.0	2.0874539017699297e+18
14425.0	2.093634413395968e+18
14426.0	2.0932101595463677e+18
14427.0	2.0927567234072573e+18
14428.0	2.0922846075158528e+18
14429.0	2.0918379359502333e+18
14430.0	2.0913623471751163e+18
14431.0	2.0898230157967357e+18
14432.0	2.0902333042917373e+18
14433.0	2.0885777118396408e+18
14434.0	2.0893054068064253e+18
14435.0	2.0887516949250043e+18
14436.0	2.0884011316412416e+18
14437.0	2.0879480528568315e+18
14438.0	2.0873743995764733e+18
14439.0	2.0870139377352701e+18
14440.0	2.0865726332010493e+18
14441.0	2.0861108940177408e+18
14442.0	2.0856496464068605e+18
14443.0	2.085166695789363e+18
14444.0	2.0847345667145725e+18
14445.0	2.0842766007271424e+18
14446.0	2.082253439605146e+18
14447.0	2.083344497193779e+18
14448.0	2.0829018085392376e+18
14449.0	2.0824434180882427e+18
14450.0	2.0819805061775355e+18
14451.0	2.0815240048410621e+18
14452.0	2.0810625038942208e+18
14453.0	2.080584422024806e+18
14454.0	2.0801449998942205e+18
14455.0	2.0796812357009403e+18
14456.0	2.0792100727554043e+18
14457.0	2.0787505196433405e+18
14458.0	2.078283883190681e+18
14459.0	2.0778151462305787e+18
14460.0	2.077327820115148e+18
14461.0	2.0767614062034944e+18
14462.0	2.0761205484290045e+18
14463.0	2.075900733344972e+18
14464.0	2.0755114247585787e+18
14465.0	2.0750648303681533e+18
14466.0	2.0746313255616507e+18
14467.0	2.0741487809527808e+18
14468.0	2.0737166384562173e+18
14469.0	2.0731901106978816e+18
14470.0	2.0727833504514043e+18
14471.0	2.0723481779896315e+18
14472.0	2.071894676419379e+18
14473.0	2.0714421378613245e+18
14474.0	2.070986935081369e+18
14475.0	2.0705265951178747e+18
14476.0	2.069994740593459e+18
14477.0	2.069611465093939e+18
14478.0	2.0691591513505787e+18
14479.0	2.068697054812569e+18
14480.0	2.068231483713126e+18
14481.0	2.0677882648985597e+18
14482.0	2.0673286329335803e+18
14483.0	2.0668670866882552e+18
14484.0	2.0664095300648955e+18
14485.0	2.0659267841294328e+18
14486.0	2.0651167331647483e+18
14487.0	2.0645639020871677e+18
14488.0	2.0640054456090621e+18
14489.0	2.063570865383014e+18
14490.0	2.0631832965939197e+18
14491.0	2.062742961782784e+18
14492.0	2.0622857843245048e+18
14493.0	2.0618127742074877e+18
14494.0	2.0613546572251133e+18
14495.0	2.0609124651761661e+18
14496.0	2.0603690175954936e+18
14497.0	2.059998437415321e+18
14498.0	2.0595419310456827e+18
14499.0	2.0590847720423424e+18
14500.0	2.0586268832301056e+18
14501.0	2.05812899250176e+18
14502.0	2.0575088126459901e+18
14503.0	2.0572168773435387e+18
14504.0	2.0567929355501565e+18
14505.0	2.0563004605071355e+18
14506.0	2.055805938643763e+18
14507.0	2.0552665561825277e+18
14508.0	2.0549673915777021e+18
14509.0	2.0545104238346237e+18
14510.0	2.0540511911673853e+18
14511.0	2.05359506564055e+18
14512.0	2.0531271507640317e+18
14513.0	2.052679688991539e+18
14514.0	2.0521992012693501e+18
14515.0	2.0517628443361277e+18
14516.0	2.0499328107806728e+18
14517.0	2.0508446507925501e+18
14518.0	2.0503916273729533e+18
14519.0	2.0499344767582208e+18
14520.0	2.0494768177938427e+18
14521.0	2.0490184021770235e+18
14522.0	2.0485489639292925e+18
14523.0	2.0479336628879355e+18
14524.0	2.0475509175484408e+18
14525.0	2.0471835585937405e+18
14526.0	2.0467277048578045e+18
14527.0	2.0462576726966267e+18
14528.0	2.045729138383257e+18
14529.0	2.0453504564854781e+18
14530.0	2.0448882156634107e+18
14531.0	2.0444402740625403e+18
14532.0	2.043872898816409e+18
14533.0	2.0435251541049344e+18
14534.0	2.0430696057143293e+18
14535.0	2.0426041436667896e+18
14536.0	2.0421511521239035e+18
14537.0	2.0416658963169277e+18
14538.0	2.0411712318472184e+18
14539.0	2.0407135678496765e+18
14540.0	2.0402556773597176e+18
14541.0	2.0397812344684544e+18
14542.0	2.039337519048294e+18
14543.0	2.0388212321026043e+18
14544.0	2.0384213169602555e+18
14545.0	2.0379523165978621e+18
14546.0	2.0305501199794135e+18
14547.0	2.0307173301026765e+18
14548.0	2.0365760396263421e+18
14549.0	2.0360534494806008e+18
14550.0	2.0356695884562427e+18
14551.0	2.0351310381449216e+18
14552.0	2.0345484308643837e+18
14553.0	2.034086493709926e+18
14554.0	2.0336315694317563e+18
14555.0	2.0331719659880443e+18
14556.0	2.0327107536093181e+18
14557.0	2.0322525577740288e+18
14558.0	2.0317886543298552e+18
14559.0	2.030290999233739e+18
14560.0	2.0308388458004477e+18
14561.0	2.0304075287429117e+18
14562.0	2.0299203301343227e+18
14563.0	2.029480220137881e+18
14564.0	2.028959195306393e+18
14565.0	2.0285765372084221e+18
14566.0	2.0281179068432381e+18
14567.0	2.0276470391767035e+18
14568.0	2.0271209744695293e+18
14569.0	2.0267259381415933e+18
14570.0	2.0259391169101821e+18
14571.0	2.025811180571852e+18
14572.0	2.025293457496473e+18
14573.0	2.0248410699333627e+18
14574.0	2.024272104207155e+18
14575.0	2.0239318253568e+18
14576.0	2.0234779882422272e+18
14577.0	2.0230556788719616e+18
14578.0	2.0225983554519037e+18
14579.0	2.0221408357384192e+18
14580.0	2.0216790646783992e+18
14581.0	2.0212098730557437e+18
14582.0	2.020744286856806e+18
14583.0	2.020299115174297e+18
14584.0	2.019798795105075e+18
14585.0	2.0193770410606587e+18
14586.0	2.01891594108928e+18
14587.0	2.0184557990969336e+18
14588.0	2.017996232563097e+18
14589.0	2.01754414195671e+18
14590.0	2.0170925915766784e+18
14591.0	2.0166320569974776e+18
14592.0	2.0161800569880573e+18
14593.0	2.0156589281378301e+18
14594.0	2.015281882018611e+18
14595.0	2.0148246424846333e+18
14596.0	2.0139323177304056e+18
14597.0	2.0133875095175155e+18
14598.0	2.0134163696844797e+18
14599.0	2.013011075766681e+18
14600.0	2.0125466102857725e+18
14601.0	2.012095715894886e+18
14602.0	2.0116264521302016e+18
14603.0	2.011181788797337e+18
14604.0	2.01068255421399e+18
14605.0	2.01020054479831e+18
14606.0	2.0097704440889344e+18
14607.0	2.0093650125979645e+18
14608.0	2.0089124471963645e+18
14609.0	2.0084389824167933e+18
14610.0	2.0079254318350333e+18
14611.0	2.0075209633562621e+18
14612.0	2.0070962045124603e+18
14613.0	2.006650710707405e+18
14614.0	2.0061979641118717e+18
14615.0	2.0057419711250424e+18
14616.0	2.0052936017051645e+18
14617.0	2.004838400602931e+18
14618.0	2.0043285124874235e+18
14619.0	2.0035307088904182e+18
14620.0	2.0022221481181184e+18
14621.0	2.0030137256902653e+18
14622.0	2.0025599657508861e+18
14623.0	2.0021069238763517e+18
14624.0	2.00161258152919e+18
14625.0	2.0011923223347192e+18
14626.0	2.000736205196492e+18
14627.0	2.0002761387016187e+18
14628.0	1.9998246520750075e+18
14629.0	1.9993639446904824e+18
14630.0	1.9987029374795779e+18
14631.0	1.9982540915867645e+18
14632.0	1.9972856016273403e+18
14633.0	1.99722999522263e+18
14634.0	1.9968607907741693e+18
14635.0	1.9962055314374646e+18
14636.0	1.9954263169957888e+18
14637.0	1.995501002450534e+18
14638.0	1.995011304036761e+18
14639.0	1.994546986195353e+18
14640.0	1.9941125653528568e+18
14641.0	1.991656229935512e+18
14642.0	1.9931879947894781e+18
14643.0	1.992730060678758e+18
14644.0	1.9922555724890107e+18
14645.0	1.99179212202967e+18
14646.0	1.991283490527641e+18
14647.0	1.990781291410227e+18
14648.0	1.9903831110320125e+18
