# Flux units: erg / (cm m2 s)
# Wavelength units: Angstrom
wave	flux
14000.0	2.326237525993062e+18
14001.0	2.325613618239897e+18
14002.0	2.3251457906049024e+18
14003.0	2.324591791833088e+18
14004.0	2.324037702464307e+18
14005.0	2.323482213875712e+18
14006.0	2.3229130350788603e+18
14007.0	2.3223491109060603e+18
14008.0	2.321602593580646e+18
14009.0	2.3212593434853376e+18
14010.0	2.320673617320345e+18
14011.0	2.3190506867523584e+18
14012.0	2.3195902554406907e+18
14013.0	2.319041252923801e+18
14014.0	2.318471515445657e+18
14015.0	2.317927858149785e+18
14016.0	2.3173790619926523e+18
14017.0	2.31680412525527e+18
14018.0	2.3162261249982464e+18
14019.0	2.3156755739443195e+18
14020.0	2.3151180200804347e+18
14021.0	2.3145656017223675e+18
14022.0	2.314008227374694e+18
14023.0	2.313401940731494e+18
14024.0	2.3128651302174715e+18
14025.0	2.3123532993003515e+18
14026.0	2.311799669627289e+18
14027.0	2.3112481622720507e+18
14028.0	2.310684714572185e+18
14029.0	2.310136708621926e+18
14030.0	2.307612207375976e+18
14031.0	2.308991155280281e+18
14032.0	2.3084877784023035e+18
14033.0	2.307827589919539e+18
14034.0	2.307383726859878e+18
14035.0	2.3068023728373755e+18
14036.0	2.3062396230696955e+18
14037.0	2.3056860839936e+18
14038.0	2.3051438863155195e+18
14039.0	2.3045836866846715e+18
14040.0	2.3040181904867328e+18
14041.0	2.3034845408002045e+18
14042.0	2.302922584594841e+18
14043.0	2.302315995961753e+18
14044.0	2.301824319514214e+18
14045.0	2.3012847592144893e+18
14046.0	2.3007303393345533e+18
14047.0	2.300170643020185e+18
14048.0	2.299640535003955e+18
14049.0	2.2990966948364285e+18
14050.0	2.2985459089014781e+18
14051.0	2.297972066038579e+18
14052.0	2.297439657866035e+18
14053.0	2.2968998979174392e+18
14054.0	2.2963531032821755e+18
14055.0	2.2957621375926264e+18
14056.0	2.2952173763559421e+18
14057.0	2.2946658656452605e+18
14058.0	2.2941214718296061e+18
14059.0	2.2935714727460861e+18
14060.0	2.2930270319542267e+18
14061.0	2.2924674212036603e+18
14062.0	2.291932766561894e+18
14063.0	2.2913516188991483e+18
14064.0	2.290586017490534e+18
14065.0	2.2902767697788928e+18
14066.0	2.2897401203261432e+18
14067.0	2.28913954464727e+18
14068.0	2.2886536915714043e+18
14069.0	2.2881012363034624e+18
14070.0	2.2875605905178621e+18
14071.0	2.2870111014617083e+18
14072.0	2.2864684793200632e+18
14073.0	2.2859252464877565e+18
14074.0	2.2853782287155192e+18
14075.0	2.28479424570327e+18
14076.0	2.284226348685721e+18
14077.0	2.2832415244287992e+18
14078.0	2.2831184769712123e+18
14079.0	2.2825925364154365e+18
14080.0	2.2820720048340984e+18
14081.0	2.2815276697387005e+18
14082.0	2.2809401198903293e+18
14083.0	2.280433350659276e+18
14084.0	2.2798956861849595e+18
14085.0	2.2785583759753219e+18
14086.0	2.278764997456691e+18
14087.0	2.2782657930723323e+18
14088.0	2.277693929920921e+18
14089.0	2.277123286473113e+18
14090.0	2.2766249645703165e+18
14091.0	2.2760942223753213e+18
14092.0	2.2755483404206077e+18
14093.0	2.2750093757120504e+18
14094.0	2.2744671662899195e+18
14095.0	2.2739248360718333e+18
14096.0	2.27327849046999e+18
14097.0	2.272765522057625e+18
14098.0	2.2722450944950264e+18
14099.0	2.271757572086169e+18
14100.0	2.27118503952384e+18
14101.0	2.270676577471692e+18
14102.0	2.270106517871001e+18
14103.0	2.2695309519880187e+18
14104.0	2.2690080783073277e+18
14105.0	2.26846582023127e+18
14106.0	2.267933252675174e+18
14107.0	2.267370502907494e+18
14108.0	2.266817436948889e+18
14109.0	2.2663021079822333e+18
14110.0	2.265723151423897e+18
14111.0	2.2651274193272827e+18
14112.0	2.2646711478386683e+18
14113.0	2.2641145569869824e+18
14114.0	2.2635782414008315e+18
14115.0	2.2630645599567867e+18
14116.0	2.2623178043949048e+18
14117.0	2.2588492122947592e+18
14118.0	2.261454339807641e+18
14119.0	2.2608505311592443e+18
14120.0	2.2603269494800381e+18
14121.0	2.259789462844211e+18
14122.0	2.259249286820659e+18
14123.0	2.2586587757936637e+18
14124.0	2.2581143064805368e+18
14125.0	2.2567417540509686e+18
14126.0	2.2571273011855355e+18
14127.0	2.2566166161522685e+18
14128.0	2.2560791446159357e+18
14129.0	2.255510710727475e+18
14130.0	2.2549161513582587e+18
14131.0	2.254427211274649e+18
14132.0	2.2538826882744317e+18
14133.0	2.2522561271168986e+18
14134.0	2.252822302792089e+18
14135.0	2.252240980646297e+18
14136.0	2.251526771205734e+18
14137.0	2.2512085292285942e+18
14138.0	2.2506323157450747e+18
14139.0	2.2501430233399296e+18
14140.0	2.2495287356424187e+18
14141.0	2.2490560778469373e+18
14142.0	2.2482088183726077e+18
14143.0	2.2479072596590587e+18
14144.0	2.2474691427958781e+18
14145.0	2.2469329865932795e+18
14146.0	2.2463931159150587e+18
14147.0	2.2458611506610173e+18
14148.0	2.2453135658188792e+18
14149.0	2.2447697776607227e+18
14150.0	2.2442636560302077e+18
14151.0	2.243683842156134e+18
14152.0	2.2431928938397693e+18
14153.0	2.2426635139547136e+18
14154.0	2.24207312036823e+18
14155.0	2.2412080669786112e+18
14156.0	2.241040180733542e+18
14157.0	2.2405278263672827e+18
14158.0	2.239982692676403e+18
14159.0	2.239465172605337e+18
14160.0	2.238929454288076e+18
14161.0	2.2382379410653176e+18
14162.0	2.2376087283564536e+18
14163.0	2.2372953987481595e+18
14164.0	2.236628611786342e+18
14165.0	2.2354208552386563e+18
14166.0	2.23568557286359e+18
14167.0	2.2351402261020667e+18
14168.0	2.2346122689249277e+18
14169.0	2.2341074072633344e+18
14170.0	2.2335615303417848e+18
14171.0	2.233030632118681e+18
14172.0	2.232517980795699e+18
14173.0	2.2316129758216192e+18
14174.0	2.2314442037395453e+18
14175.0	2.2309269017722877e+18
14176.0	2.2303888849764347e+18
14177.0	2.229863808447283e+18
14178.0	2.2293270163881976e+18
14179.0	2.2287284271316992e+18
14180.0	2.2282779605598205e+18
14181.0	2.2277464751341568e+18
14182.0	2.2272173838172155e+18
14183.0	2.226688982043852e+18
14184.0	2.226148876484608e+18
14185.0	2.2256284539551736e+18
14186.0	2.2244366189854717e+18
14187.0	2.2245232582066173e+18
14188.0	2.224035989133721e+18
14189.0	2.2235013261033467e+18
14190.0	2.2229835510185981e+18
14191.0	2.2224538188120056e+18
14192.0	2.2219127435296765e+18
14193.0	2.221299032968396e+18
14194.0	2.2208714354196477e+18
14195.0	2.2203522107834365e+18
14196.0	2.2198244264116221e+18
14197.0	2.2192782324006904e+18
14198.0	2.2187233830240248e+18
14199.0	2.2181828982996987e+18
14200.0	2.2173141119795203e+18
14201.0	2.2171469605765112e+18
14202.0	2.2166227145195515e+18
14203.0	2.216011181640908e+18
14204.0	2.2155625001648123e+18
14205.0	2.2150424198905848e+18
14206.0	2.21426355273728e+18
14207.0	2.2139965232119805e+18
14208.0	2.2134708963901437e+18
14209.0	2.2126524501065718e+18
14210.0	2.2122469213077494e+18
14211.0	2.2118798291107832e+18
14212.0	2.2113686944481277e+18
14213.0	2.2108323268526075e+18
14214.0	2.2103196939845627e+18
14215.0	2.2097689164382205e+18
14216.0	2.209267267613491e+18
14217.0	2.2087481016975357e+18
14218.0	2.2081970959810557e+18
14219.0	2.207695698814566e+18
14220.0	2.20717378479063e+18
14221.0	2.2066388029931515e+18
14222.0	2.2060133567692795e+18
14223.0	2.2056017546182653e+18
14224.0	2.205081952845824e+18
14225.0	2.2035753504604168e+18
14226.0	2.2040343583129592e+18
14227.0	2.2035107061694461e+18
14228.0	2.2008455279673354e+18
14229.0	2.202195833808484e+18
14230.0	2.2019437913702395e+18
14231.0	2.201329790563123e+18
14232.0	2.2009015470915581e+18
14233.0	2.2003615673614333e+18
14234.0	2.1998575495938045e+18
14235.0	2.1993308171534333e+18
14236.0	2.1988105170976763e+18
14237.0	2.1982824072478715e+18
14238.0	2.1977327386755067e+18
14239.0	2.19719423534039e+18
14240.0	2.1940530137006093e+18
14241.0	2.196161495354572e+18
14242.0	2.1956462116863992e+18
14243.0	2.194808746750771e+18
14244.0	2.194610482000691e+18
14245.0	2.1940478765170683e+18
14246.0	2.193502967640883e+18
14247.0	2.1930371633381373e+18
14248.0	2.192503976702771e+18
14249.0	2.191998670444953e+18
14250.0	2.1914849755791355e+18
14251.0	2.190967131707801e+18
14252.0	2.1904489439035387e+18
14253.0	2.1899304322990075e+18
14254.0	2.189407563651481e+18
14255.0	2.1888350109564923e+18
14256.0	2.1874014364368899e+18
14257.0	2.1878276028891133e+18
14258.0	2.1873274287816701e+18
14259.0	2.1867595485413373e+18
14260.0	2.186260109275955e+18
14261.0	2.1857211546337275e+18
14262.0	2.1852610394849275e+18
14263.0	2.1833080104812554e+18
14264.0	2.184002763384422e+18
14265.0	2.1836847898427387e+18
14266.0	2.183187541681766e+18
14267.0	2.182672229492326e+18
14268.0	2.1821526508568573e+18
14269.0	2.1816188501753848e+18
14270.0	2.1811226472349693e+18
14271.0	2.1805887291129853e+18
14272.0	2.1800874141548544e+18
14273.0	2.1795693505019901e+18
14274.0	2.176954300943566e+18
14275.0	2.1783474625052672e+18
14276.0	2.1779298759213053e+18
14277.0	2.177449906615091e+18
14278.0	2.176991378590924e+18
14279.0	2.1764749406502904e+18
14280.0	2.1759438880767995e+18
14281.0	2.1754446400716795e+18
14282.0	2.1749299066961915e+18
14283.0	2.174414668326502e+18
14284.0	2.173899476933017e+18
14285.0	2.1733838510096384e+18
14286.0	2.1728530098290685e+18
14287.0	2.1723164878831616e+18
14288.0	2.17180197093376e+18
14289.0	2.169595334177582e+18
14290.0	2.1707556363698173e+18
14291.0	2.1702589552787453e+18
14292.0	2.169742671688499e+18
14293.0	2.1692295841579005e+18
14294.0	2.1684353725628419e+18
14295.0	2.1681696298500093e+18
14296.0	2.166312395394254e+18
14297.0	2.1671788043829243e+18
14298.0	2.1661005561987067e+18
14299.0	2.166105700093132e+18
14300.0	2.1656178857607163e+18
14301.0	2.165106689022361e+18
14302.0	2.1646053086330877e+18
14303.0	2.164020166315212e+18
14304.0	2.1635524460543995e+18
14305.0	2.1630597394857981e+18
14306.0	2.1623579569291261e+18
14307.0	2.161986348305612e+18
14308.0	2.1615182438465533e+18
14309.0	2.16098174706647e+18
14310.0	2.1595890519113718e+18
14311.0	2.159593905559961e+18
14312.0	2.1592995811819515e+18
14313.0	2.1588384325566464e+18
14314.0	2.158437512459059e+18
14315.0	2.157943879788134e+18
14316.0	2.1573357291962365e+18
14317.0	2.1567969238712317e+18
14318.0	2.1564245485289467e+18
14319.0	2.1559166216699901e+18
14320.0	2.1554063929769981e+18
14321.0	2.1548857842204667e+18
14322.0	2.154290082322841e+18
14323.0	2.1538476134498296e+18
14324.0	2.1533651476938747e+18
14325.0	2.1528354809184253e+18
14326.0	2.1523499969413115e+18
14327.0	2.1518235815903227e+18
14328.0	2.1513133143097336e+18
14329.0	2.1508222770741243e+18
14330.0	2.1503111793213432e+18
14331.0	2.1497892988518395e+18
14332.0	2.1492925154197496e+18
14333.0	2.1487858468519933e+18
14334.0	2.148278186750771e+18
14335.0	2.1477324809568253e+18
14336.0	2.1471225855344632e+18
14337.0	2.1467452038709243e+18
14338.0	2.146238672876339e+18
14339.0	2.145704192717619e+18
14340.0	2.1452286089756672e+18
14341.0	2.144707918010777e+18
14342.0	2.1441759863111675e+18
14343.0	2.1436318206656512e+18
14344.0	2.1431334886965243e+18
14345.0	2.142654514279219e+18
14346.0	2.142141628075212e+18
14347.0	2.1415838644961277e+18
14348.0	2.141128878142259e+18
14349.0	2.1406299455487995e+18
14350.0	2.140037669558681e+18
14351.0	2.1395140761354237e+18
14352.0	2.1390925955596283e+18
14353.0	2.1386010231308283e+18
14354.0	2.1380842882334717e+18
14355.0	2.1375624799059965e+18
14356.0	2.1370664917139453e+18
14357.0	2.136581329859379e+18
14358.0	2.1360756712800253e+18
14359.0	2.135532841100902e+18
14360.0	2.1350564117872637e+18
14361.0	2.1345571587489787e+18
14362.0	2.1340520806612987e+18
14363.0	2.133548376627609e+18
14364.0	2.1327356983508992e+18
14365.0	2.1324988292268027e+18
14366.0	2.1319861745483773e+18
14367.0	2.1315272187052027e+18
14368.0	2.131022115451699e+18
14369.0	2.1305218222260221e+18
14370.0	2.130017859823206e+18
14371.0	2.1295142077988861e+18
14372.0	2.1289952566312957e+18
14373.0	2.1285047663329275e+18
14374.0	2.1279995154399227e+18
14375.0	2.1274938988036093e+18
14376.0	2.1269924093624315e+18
14377.0	2.1264905977987064e+18
14378.0	2.1259831021142008e+18
14379.0	2.1254851140780027e+18
14380.0	2.124981141608857e+18
14381.0	2.1244510017159163e+18
14382.0	2.1239719065026557e+18
14383.0	2.1234133443280896e+18
14384.0	2.122918545640652e+18
14385.0	2.1224681344335867e+18
14386.0	2.1219244167397373e+18
14387.0	2.1214594059993088e+18
14388.0	2.120950895293235e+18
14389.0	2.1204582960988155e+18
14390.0	2.1199526693961725e+18
14391.0	2.1194493730488317e+18
14392.0	2.1189359919169533e+18
14393.0	2.1184520766095355e+18
14394.0	2.1178675131056125e+18
14395.0	2.1173564556181501e+18
14396.0	2.1169438166351867e+18
14397.0	2.116446680881561e+18
14398.0	2.1159309056409592e+18
14399.0	2.1154350181122045e+18
14400.0	2.114872036818944e+18
14401.0	2.1144276251443192e+18
14402.0	2.1139317829140475e+18
14403.0	2.1025592430296906e+18
14404.0	2.0848898851471304e+18
14405.0	2.1100200290418586e+18
14406.0	2.1118893061832701e+18
14407.0	2.0945275384234068e+18
14408.0	2.110789641882828e+18
14409.0	2.1103539510050816e+18
14410.0	2.109865965545062e+18
14411.0	2.10938811687895e+18
14412.0	2.108883520297369e+18
14413.0	2.1083909563351037e+18
14414.0	2.1078892555010043e+18
14415.0	2.1073925794430973e+18
14416.0	2.1068729286655997e+18
14417.0	2.1063030569697275e+18
14418.0	2.1057817418924027e+18
14419.0	2.1053949649879037e+18
14420.0	2.1048860935716856e+18
14421.0	2.1043983580921853e+18
14422.0	2.1038876445376512e+18
14423.0	2.1033613583712253e+18
14424.0	2.0446260599193267e+18
14425.0	2.1023788493701117e+18
14426.0	2.101906381157171e+18
14427.0	2.1014111781388283e+18
14428.0	2.1008508057026557e+18
14429.0	2.1004111956672504e+18
14430.0	2.0999195997503483e+18
14431.0	2.0989602802171901e+18
14432.0	2.0988591387705344e+18
14433.0	2.0856362128900012e+18
14434.0	2.0978948078829565e+18
14435.0	2.0973436830482427e+18
14436.0	2.0969348474601464e+18
14437.0	2.0964362286006267e+18
14438.0	2.0954979409854461e+18
14439.0	2.0953336115101693e+18
14440.0	2.094945965545881e+18
14441.0	2.0944409696665597e+18
14442.0	2.0939360610287616e+18
14443.0	2.0933638841434112e+18
14444.0	2.0929528742281208e+18
14445.0	2.092463786505011e+18
14446.0	2.07826360624743e+18
14447.0	2.0914408007925752e+18
14448.0	2.0909779576684547e+18
14449.0	2.0904825248022525e+18
14450.0	2.0899725544783864e+18
14451.0	2.0894814602002427e+18
14452.0	2.0889790027137021e+18
14453.0	2.0882126144536573e+18
14454.0	2.0879877443944443e+18
14455.0	2.0874763060641787e+18
14456.0	2.086933309790617e+18
14457.0	2.086402148165222e+18
14458.0	2.0859613586915325e+18
14459.0	2.085460372566835e+18
14460.0	2.0849906004525048e+18
14461.0	2.0843891322257403e+18
14462.0	2.083654191179366e+18
14463.0	2.083468942193459e+18
14464.0	2.083019150065663e+18
14465.0	2.082501722269286e+18
14466.0	2.0820358877675515e+18
14467.0	2.081334486053683e+18
14468.0	2.081033157187993e+18
14469.0	2.0805007909584893e+18
14470.0	2.08001079223255e+18
14471.0	2.07954623112151e+18
14472.0	2.0790642972033021e+18
14473.0	2.0785915823652856e+18
14474.0	2.078103132176384e+18
14475.0	2.0775929823363067e+18
14476.0	2.0762528015450115e+18
14477.0	2.0766200313151483e+18
14478.0	2.0761208269307901e+18
14479.0	2.075622993244979e+18
14480.0	2.0751074881175547e+18
14481.0	2.0746528154976253e+18
14482.0	2.0741528074846203e+18
14483.0	2.073634903215308e+18
14484.0	2.0731293956308987e+18
14485.0	2.072555428616601e+18
14486.0	2.0715372999081987e+18
14487.0	2.0716589330464765e+18
14488.0	2.0710352081649664e+18
14489.0	2.0706285452263421e+18
14490.0	2.070163170420326e+18
14491.0	2.0696898365030392e+18
14492.0	2.06920026727383e+18
14493.0	2.0686839903944701e+18
14494.0	2.068169268763033e+18
14495.0	2.0677231407792125e+18
14496.0	2.066949219549184e+18
14497.0	2.066733721242828e+18
14498.0	2.0662416203317243e+18
14499.0	2.0657570960113661e+18
14500.0	2.0652650068443133e+18
14501.0	2.0643398943768573e+18
14502.0	2.0634248499167237e+18
14503.0	2.0637122872475643e+18
14504.0	2.0632839213023224e+18
14505.0	2.0623981547618294e+18
14506.0	2.061391463081574e+18
14507.0	2.0613184620593152e+18
14508.0	2.0613321858220027e+18
14509.0	2.060839722523033e+18
14510.0	2.0603459975774208e+18
14511.0	2.0598600690040827e+18
14512.0	2.0593302210347005e+18
14513.0	2.0588775012827133e+18
14514.0	2.0582728235745275e+18
14515.0	2.0578885682855933e+18
14516.0	2.0533389463388193e+18
14517.0	2.0569120906936317e+18
14518.0	2.056421696025395e+18
14519.0	2.055927865383321e+18
14520.0	2.05543942693847e+18
14521.0	2.0549453379272696e+18
14522.0	2.0544455127859197e+18
14523.0	2.0529727114575862e+18
14524.0	2.052465675468799e+18
14525.0	2.0529736929247227e+18
14526.0	2.0524896366886907e+18
14527.0	2.0519407918776312e+18
14528.0	2.0512252956246019e+18
14529.0	2.051000579915776e+18
14530.0	2.0504884453310464e+18
14531.0	2.0500361181659133e+18
14532.0	2.0481732482433024e+18
14533.0	2.0490576189194237e+18
14534.0	2.0485711266316283e+18
14535.0	2.0480541400760312e+18
14536.0	2.0475800344068093e+18
14537.0	2.0470664972468221e+18
14538.0	2.0466071639162877e+18
14539.0	2.0461164286705661e+18
14540.0	2.045629047190323e+18
14541.0	2.0450835762774016e+18
14542.0	2.0446389112668155e+18
14543.0	2.0435290967506936e+18
14544.0	2.0436616183021568e+18
14545.0	2.0431536897654784e+18
14546.0	1.992434575317379e+18
14547.0	1.9967605066432225e+18
14548.0	2.0416736020922365e+18
14549.0	2.0409633755627517e+18
14550.0	2.0407054963310592e+18
14551.0	2.040236596631961e+18
14552.0	2.0397363872923643e+18
14553.0	2.0392346763919355e+18
14554.0	2.0387644596813824e+18
14555.0	2.0382724023910397e+18
14556.0	2.0377594658553848e+18
14557.0	2.0372946899959805e+18
14558.0	2.0368012888506363e+18
14559.0	2.033191553387716e+18
14560.0	2.035708400867737e+18
14561.0	2.0353187869360125e+18
14562.0	2.034781077163212e+18
14563.0	2.034347533769113e+18
14564.0	2.033808540539289e+18
14565.0	2.0333746465013755e+18
14566.0	2.0328845236240381e+18
14567.0	2.0323857168596987e+18
14568.0	2.031771751284736e+18
14569.0	2.031407897090457e+18
14570.0	2.0299908112187387e+18
14571.0	2.0304245878161405e+18
14572.0	2.0298105903644672e+18
14573.0	2.029336934324633e+18
14574.0	2.028799081945497e+18
14575.0	2.0284188699656187e+18
14576.0	2.0279292856369147e+18
14577.0	2.0274411911249917e+18
14578.0	2.026966055334707e+18
14579.0	2.0264790060433405e+18
14580.0	2.0259885191004155e+18
14581.0	2.0254628318806008e+18
14582.0	2.0250008343281661e+18
14583.0	2.024516987807334e+18
14584.0	2.0239895238803453e+18
14585.0	2.0235344838393848e+18
14586.0	2.023029982887936e+18
14587.0	2.0225193431531515e+18
14588.0	2.0220399308505083e+18
14589.0	2.0215723699732475e+18
14590.0	2.0211005946593277e+18
14591.0	2.020613057150976e+18
14592.0	2.0201333713797117e+18
14593.0	2.0194326659203064e+18
14594.0	2.019197132262604e+18
14595.0	2.0187100410281976e+18
14596.0	2.017956985621708e+18
14597.0	2.017512122639974e+18
14598.0	2.0172792129388544e+18
14599.0	2.0168290315796477e+18
14600.0	2.0163471429599227e+18
14601.0	2.0158734265221115e+18
14602.0	2.0153569181171712e+18
14603.0	2.014916100122214e+18
14604.0	2.0143440893313021e+18
14605.0	2.0139140993515517e+18
14606.0	2.0133560740478979e+18
14607.0	2.0130196338245627e+18
14608.0	2.0125377619820544e+18
14609.0	2.0119736515821568e+18
14610.0	2.0115016917188603e+18
14611.0	2.0110942134075387e+18
14612.0	2.010641495333273e+18
14613.0	2.0101738354704381e+18
14614.0	2.009691680092979e+18
14615.0	2.0092040033337336e+18
14616.0	2.0087460373463037e+18
14617.0	2.0082669001900027e+18
14618.0	2.0077161696198653e+18
14619.0	2.0071680193855475e+18
14620.0	2.0061315649241088e+18
14621.0	2.006348230924697e+18
14622.0	2.0058509877968893e+18
14623.0	2.0053783685890043e+18
14624.0	2.004776202430054e+18
14625.0	2.0044136367259645e+18
14626.0	2.0039116825559037e+18
14627.0	2.003407252068761e+18
14628.0	2.0029840350511101e+18
14629.0	2.0025037973094397e+18
14630.0	2.0020173318651901e+18
14631.0	2.001534085968691e+18
14632.0	1.9953750626009121e+18
14633.0	1.9999498688266214e+18
14634.0	2.0000740856561661e+18
14635.0	1.9992582968836068e+18
14636.0	1.9978697909993464e+18
14637.0	1.9986549496086528e+18
14638.0	1.9981476401512445e+18
14639.0	1.997640399480422e+18
14640.0	1.9971734744596475e+18
14641.0	1.9760643427008358e+18
14642.0	1.996205351921254e+18
14643.0	1.995732351870566e+18
14644.0	1.995220383380275e+18
14645.0	1.9947107637002235e+18
14646.0	1.9941982113628155e+18
14647.0	1.9937157959385083e+18
14648.0	1.9932971238686717e+18
