# Flux units: erg / (cm m2 s)
# Wavelength units: Angstrom
wave	flux
14000.0	1.1967213380567037e+18
14001.0	1.1964777186197501e+18
14002.0	1.196266569806643e+18
14003.0	1.196039272084275e+18
14004.0	1.1958118627934203e+18
14005.0	1.1955845835259901e+18
14006.0	1.1953567489327101e+18
14007.0	1.1951299654320128e+18
14008.0	1.1948960256098301e+18
14009.0	1.1946762424025088e+18
14010.0	1.194448406131507e+18
14011.0	1.194168495059763e+18
14012.0	1.1939955295125501e+18
14013.0	1.1937687376232445e+18
14014.0	1.193541971738624e+18
14015.0	1.1933151026741245e+18
14016.0	1.1930886220021757e+18
14017.0	1.1928620213731325e+18
14018.0	1.1926354710757373e+18
14019.0	1.1924090021478397e+18
14020.0	1.1921824594001917e+18
14021.0	1.1919560156381181e+18
14022.0	1.1917296658284541e+18
14023.0	1.1915030224175101e+18
14024.0	1.1912764293382141e+18
14025.0	1.1910509813039101e+18
14026.0	1.1908247086694397e+18
14027.0	1.1905987447357437e+18
14028.0	1.1903726969159677e+18
14029.0	1.1901466583236605e+18
14030.0	1.1898949598183421e+18
14031.0	1.189693660069888e+18
14032.0	1.189468964493721e+18
14033.0	1.189240225608499e+18
14034.0	1.1890174141136893e+18
14035.0	1.1887917194543101e+18
14036.0	1.1885660658991101e+18
14037.0	1.1883374813642752e+18
14038.0	1.1881114016677888e+18
14039.0	1.1878858949132285e+18
14040.0	1.1876595283263488e+18
14041.0	1.1874347538972667e+18
14042.0	1.1872089350864893e+18
14043.0	1.1869806693187584e+18
14044.0	1.1867579643592704e+18
14045.0	1.1865335128915963e+18
14046.0	1.1863085513965565e+18
14047.0	1.186083344954163e+18
14048.0	1.185858337321779e+18
14049.0	1.1856333691158525e+18
14050.0	1.1854084076208125e+18
14051.0	1.1851828345962493e+18
14052.0	1.1849586331090941e+18
14053.0	1.184733815059251e+18
14054.0	1.1845090565685245e+18
14055.0	1.184284340859699e+18
14056.0	1.184059672965939e+18
14057.0	1.1838350621147136e+18
14058.0	1.1836104957231101e+18
14059.0	1.1833859788242944e+18
14060.0	1.183161513934848e+18
14061.0	1.182936492880691e+18
14062.0	1.1827127250845696e+18
14063.0	1.1824872887943165e+18
14064.0	1.182258366198579e+18
14065.0	1.182039192843059e+18
14066.0	1.1818157371031547e+18
14067.0	1.181591568331571e+18
14068.0	1.181367395365683e+18
14069.0	1.1811432660205563e+18
14070.0	1.1809193925279744e+18
14071.0	1.1806952212398075e+18
14072.0	1.1804715742396413e+18
14073.0	1.1802462646173696e+18
14074.0	1.180022491788083e+18
14075.0	1.1797975881744381e+18
14076.0	1.179575076152934e+18
14077.0	1.179345984946176e+18
14078.0	1.1791274675798013e+18
14079.0	1.1789038675558397e+18
14080.0	1.1786808253743101e+18
14081.0	1.178457370473267e+18
14082.0	1.178233528857395e+18
14083.0	1.1780105370075133e+18
14084.0	1.177787355575091e+18
14085.0	1.1775443275350016e+18
14086.0	1.1773404910714877e+18
14087.0	1.1771177710125053e+18
14088.0	1.17689387319296e+18
14089.0	1.1766716094742525e+18
14090.0	1.1764483164733437e+18
14091.0	1.1762241930002432e+18
14092.0	1.1760012850364413e+18
14093.0	1.175778425726566e+18
14094.0	1.175555619264921e+18
14095.0	1.175332853907456e+18
14096.0	1.1751090064195581e+18
14097.0	1.1748864759431165e+18
14098.0	1.1746643590250496e+18
14099.0	1.174442289083187e+18
14100.0	1.1742187393908733e+18
14101.0	1.173997306983219e+18
14102.0	1.1737748721369085e+18
14103.0	1.1735511345397757e+18
14104.0	1.1733302037708797e+18
14105.0	1.1731078721044477e+18
14106.0	1.172885678011187e+18
14107.0	1.172663347183616e+18
14108.0	1.172441384615936e+18
14109.0	1.172218939703296e+18
14110.0	1.1719960132845565e+18
14111.0	1.1717725038575616e+18
14112.0	1.171551747571712e+18
14113.0	1.1713299695534077e+18
14114.0	1.1711072578830336e+18
14115.0	1.1708862230953981e+18
14116.0	1.1706627455451136e+18
14117.0	1.1703981067730941e+18
14118.0	1.170221238006579e+18
14119.0	1.169999111861043e+18
14120.0	1.1697775217475581e+18
14121.0	1.1695563208654845e+18
14122.0	1.1693339304787965e+18
14123.0	1.1691130391363581e+18
14124.0	1.1688914322456573e+18
14125.0	1.1686361157337085e+18
14126.0	1.1684497854562301e+18
14127.0	1.1682285736689661e+18
14128.0	1.1680072947728384e+18
14129.0	1.1677855234654205e+18
14130.0	1.1675641371951101e+18
14131.0	1.1673441904099325e+18
14132.0	1.1671232126648317e+18
14133.0	1.1668601501122555e+18
14134.0	1.1666799309357056e+18
14135.0	1.1664581663391741e+18
14136.0	1.1662366248796157e+18
14137.0	1.1660175547039741e+18
14138.0	1.1657963596939261e+18
14139.0	1.1655762006769661e+18
14140.0	1.1653546994827261e+18
14141.0	1.1651350647537661e+18
14142.0	1.1649110931144701e+18
14143.0	1.1646933936373757e+18
14144.0	1.1644737421311997e+18
14145.0	1.1642533834653693e+18
14146.0	1.1640329358802944e+18
14147.0	1.1638127382757373e+18
14148.0	1.1635925331214333e+18
14149.0	1.1633724328247293e+18
14150.0	1.1631523123953661e+18
14151.0	1.162932045165363e+18
14152.0	1.1627122208538621e+18
14153.0	1.1624922346422272e+18
14154.0	1.162270629429248e+18
14155.0	1.1620330120413181e+18
14156.0	1.161832142628454e+18
14157.0	1.1616128182779901e+18
14158.0	1.1613915200880637e+18
14159.0	1.1611718333497344e+18
14160.0	1.160952228819763e+18
14161.0	1.1607278687879165e+18
14162.0	1.1605052997238781e+18
14163.0	1.1602934890495997e+18
14164.0	1.160072268034867e+18
14165.0	1.1598447194931197e+18
14166.0	1.159635359970099e+18
14167.0	1.1594151455883261e+18
14168.0	1.1591965988618237e+18
14169.0	1.1589776083779581e+18
14170.0	1.158758133871411e+18
14171.0	1.158539048596275e+18
14172.0	1.1583202367897597e+18
14173.0	1.1580958163599357e+18
14174.0	1.1578819999694848e+18
14175.0	1.157663282115379e+18
14176.0	1.1574443956502525e+18
14177.0	1.1572255502893053e+18
14178.0	1.1570066688573437e+18
14179.0	1.1567868680339453e+18
14180.0	1.1565693161963517e+18
14181.0	1.1563506612568061e+18
14182.0	1.1561319903789053e+18
14183.0	1.155913498178355e+18
14184.0	1.1556946117132288e+18
14185.0	1.155475960967987e+18
14186.0	1.155247954408243e+18
14187.0	1.1550364876668925e+18
14188.0	1.154819876192256e+18
14189.0	1.1546015140151293e+18
14190.0	1.1543833682640893e+18
14191.0	1.1541651637927933e+18
14192.0	1.153946524791603e+18
14193.0	1.1537278019043325e+18
14194.0	1.1535108565630973e+18
14195.0	1.1532929775697917e+18
14196.0	1.153075002946355e+18
14197.0	1.1528571046592511e+18
14198.0	1.1526387718422525e+18
14199.0	1.1524212694974461e+18
14200.0	1.1521985460830205e+18
14201.0	1.1519859376521213e+18
14202.0	1.1517683069616125e+18
14203.0	1.1515494246907903e+18
14204.0	1.1513328660643837e+18
14205.0	1.1511153511366655e+18
14206.0	1.1508890793410559e+18
14207.0	1.1506806165602301e+18
14208.0	1.150463251788595e+18
14209.0	1.1502352796221439e+18
14210.0	1.150022597371494e+18
14211.0	1.1498112942079997e+18
14212.0	1.1495940795924479e+18
14213.0	1.1493769136308221e+18
14214.0	1.1491598013562877e+18
14215.0	1.148941624567398e+18
14216.0	1.148725806655078e+18
14217.0	1.1485079075291132e+18
14218.0	1.1482896938303487e+18
14219.0	1.1480735839944703e+18
14220.0	1.1478566982123519e+18
14221.0	1.147639709250355e+18
14222.0	1.1474229711077375e+18
14223.0	1.1472062874910719e+18
14224.0	1.1469896542060541e+18
14225.0	1.1467567545712637e+18
14226.0	1.1465564891381757e+18
14227.0	1.1463399808434173e+18
14228.0	1.1460710705922047e+18
14229.0	1.1459025132584957e+18
14230.0	1.145690724394598e+18
14231.0	1.1454743930994685e+18
14232.0	1.1452581146525693e+18
14233.0	1.1450418781487101e+18
14234.0	1.144825691137638e+18
14235.0	1.1446093514539005e+18
14236.0	1.1443934404280316e+18
14237.0	1.1441772886491132e+18
14238.0	1.1439613658791933e+18
14239.0	1.1437450110959613e+18
14240.0	1.1433889985724415e+18
14241.0	1.1433136512565247e+18
14242.0	1.143097840055091e+18
14243.0	1.1428704668352511e+18
14244.0	1.1426663409647613e+18
14245.0	1.142449539068723e+18
14246.0	1.1422326146990079e+18
14247.0	1.1420194350039037e+18
14248.0	1.1418023546060797e+18
14249.0	1.1415882286759933e+18
14250.0	1.1413727546966013e+18
14251.0	1.1411575365697531e+18
14252.0	1.1409421682868223e+18
14253.0	1.1407263646351357e+18
14254.0	1.1405099762974719e+18
14255.0	1.140292130858598e+18
14256.0	1.1400648734015485e+18
14257.0	1.1398640962633728e+18
14258.0	1.1396495416754175e+18
14259.0	1.1394334872043519e+18
14260.0	1.1392185089916924e+18
14261.0	1.1390037010677759e+18
14262.0	1.1387998771871741e+18
14263.0	1.138562702717747e+18
14264.0	1.138366753223475e+18
14265.0	1.138155423216435e+18
14266.0	1.1379406849179645e+18
14267.0	1.1377260045008893e+18
14268.0	1.1375113710600191e+18
14269.0	1.1372965639749631e+18
14270.0	1.137082239234867e+18
14271.0	1.136867591533363e+18
14272.0	1.1366532785373183e+18
14273.0	1.1364388422287359e+18
14274.0	1.1361923161391103e+18
14275.0	1.1360073280389116e+18
14276.0	1.1357950970953725e+18
14277.0	1.1355800685510652e+18
14278.0	1.1353674852859901e+18
14279.0	1.1351533350289405e+18
14280.0	1.1349386378346493e+18
14281.0	1.1347251964149757e+18
14282.0	1.1345112248352765e+18
14283.0	1.1342972557721597e+18
14284.0	1.13408334626816e+18
14285.0	1.1336328906014719e+18
14286.0	1.1333772578390013e+18
14287.0	1.1331635622445055e+18
14288.0	1.1329498255458301e+18
14289.0	1.1326468760010747e+18
14290.0	1.1325223160774655e+18
14291.0	1.1323088503308285e+18
14292.0	1.1320953812287487e+18
14293.0	1.1318817040891904e+18
14294.0	1.1316569766363136e+18
14295.0	1.131452749263667e+18
14296.0	1.1311683418980351e+18
14297.0	1.1310269116448767e+18
14298.0	1.1307996885811197e+18
14299.0	1.1306001386962941e+18
14300.0	1.1303872324698111e+18
14301.0	1.1301740217368575e+18
14302.0	1.1299606373597183e+18
14303.0	1.1297455249293311e+18
14304.0	1.1295337536815103e+18
14305.0	1.1293217441972224e+18
14306.0	1.1291065487196159e+18
14307.0	1.1288955148304383e+18
14308.0	1.128683330024243e+18
14309.0	1.128470464063078e+18
14310.0	1.128247801885491e+18
14311.0	1.1280377259753472e+18
14312.0	1.127830211946086e+18
14313.0	1.1276042018750464e+18
14314.0	1.1274071291461631e+18
14315.0	1.1271947555962879e+18
14316.0	1.1269784033296383e+18
14317.0	1.1267690656169984e+18
14318.0	1.126557476401971e+18
14319.0	1.1263451699609597e+18
14320.0	1.1261328383541245e+18
14321.0	1.1259206267043839e+18
14322.0	1.1257050159906813e+18
14323.0	1.12549538299904e+18
14324.0	1.1252841502998524e+18
14325.0	1.125072080417587e+18
14326.0	1.1248600524783615e+18
14327.0	1.1246480673210367e+18
14328.0	1.1244356014964733e+18
14329.0	1.1242242421293055e+18
14330.0	1.1240123819622397e+18
14331.0	1.123800551994163e+18
14332.0	1.1235888176562173e+18
14333.0	1.1233771059675133e+18
14334.0	1.1231654345441277e+18
14335.0	1.1229552000892927e+18
14336.0	1.122757441172275e+18
14337.0	1.1225478878724093e+18
14338.0	1.122336286913331e+18
14339.0	1.1221248176553984e+18
14340.0	1.1219135782453245e+18
14341.0	1.1217021022765052e+18
14342.0	1.1214908855156733e+18
14343.0	1.1212780287819776e+18
14344.0	1.1210667658838012e+18
14345.0	1.1208557991034879e+18
14346.0	1.1206444690964477e+18
14347.0	1.1204322037596156e+18
14348.0	1.1202224826875903e+18
14349.0	1.1200114739642367e+18
14350.0	1.1197993059352575e+18
14351.0	1.1195883198611456e+18
14352.0	1.1193782582116351e+18
14353.0	1.1191676613689341e+18
14354.0	1.1189568053182461e+18
14355.0	1.1187458502819837e+18
14356.0	1.1185353138372605e+18
14357.0	1.1183249107714045e+18
14358.0	1.1181142887628796e+18
14359.0	1.117902773367603e+18
14360.0	1.1176930330017791e+18
14361.0	1.1174826643292157e+18
14362.0	1.1172722386141183e+18
14363.0	1.1170618170933245e+18
14364.0	1.1168475678507005e+18
14365.0	1.1166408146681855e+18
14366.0	1.1164301297451007e+18
14367.0	1.1162206645256192e+18
14368.0	1.1160104434925567e+18
14369.0	1.1158003390611455e+18
14370.0	1.1155902405017597e+18
14371.0	1.1153801914351615e+18
14372.0	1.1151701289467901e+18
14373.0	1.1149601939652605e+18
14374.0	1.1147502531117052e+18
14375.0	1.1145400278843388e+18
14376.0	1.1143305676980221e+18
14377.0	1.1141207233134588e+18
14378.0	1.1139108076257276e+18
14379.0	1.1137012937523197e+18
14380.0	1.1134916523720703e+18
14381.0	1.1132817886937085e+18
14382.0	1.1130723436068861e+18
14383.0	1.1128621854883839e+18
14384.0	1.1126521716539392e+18
14385.0	1.1124439714365439e+18
14386.0	1.112233579275878e+18
14387.0	1.1120251785707519e+18
14388.0	1.1118157234175997e+18
14389.0	1.1116065954201597e+18
14390.0	1.1113971629162495e+18
14391.0	1.1111881632645116e+18
14392.0	1.1109786292584443e+18
14393.0	1.1107699290800124e+18
14394.0	1.1105581771259903e+18
14395.0	1.1103510640721916e+18
14396.0	1.1101428663713791e+18
14397.0	1.1099339388616701e+18
14398.0	1.109724702651187e+18
14399.0	1.1095148096126973e+18
14400.0	1.1093042924617727e+18
14401.0	1.1090967985651711e+18
14402.0	1.1088884783906815e+18
14403.0	1.1084911872049144e+18
14404.0	1.107759284512358e+18
14405.0	1.108139835391999e+18
14406.0	1.108054027481907e+18
14407.0	1.1075440588357632e+18
14408.0	1.1076367848308733e+18
14409.0	1.1074269169582077e+18
14410.0	1.1072199112785919e+18
14411.0	1.1070118394068988e+18
14412.0	1.1068032935788543e+18
14413.0	1.1065953760575485e+18
14414.0	1.106386971158118e+18
14415.0	1.1061788892200957e+18
14416.0	1.1059708651634685e+18
14417.0	1.1057624501977085e+18
14418.0	1.1055530638311421e+18
14419.0	1.1053465757286396e+18
14420.0	1.1051383276961788e+18
14421.0	1.1049307775959039e+18
14422.0	1.1047229531881468e+18
14423.0	1.1045147143831551e+18
14424.0	1.1030614266347507e+18
14425.0	1.104099340713984e+18
14426.0	1.1038919005044733e+18
14427.0	1.1036841004236796e+18
14428.0	1.10347480465408e+18
14429.0	1.1032689054318588e+18
14430.0	1.1030615121985533e+18
14431.0	1.1028471086055421e+18
14432.0	1.1026458239565823e+18
14433.0	1.1022128610541564e+18
14434.0	1.1022310022578175e+18
14435.0	1.102022877537894e+18
14436.0	1.10181717377024e+18
14437.0	1.1016099306930173e+18
14438.0	1.1013973012905983e+18
14439.0	1.1011945494740992e+18
14440.0	1.1009883776221183e+18
14441.0	1.1007805330817023e+18
14442.0	1.1005724620488704e+18
14443.0	1.1003623181910015e+18
14444.0	1.1001597609902077e+18
14445.0	1.0999532502384637e+18
14446.0	1.0994583190110209e+18
14447.0	1.0995390828511232e+18
14448.0	1.099332795236352e+18
14449.0	1.0991260529590272e+18
14450.0	1.0989193215868928e+18
14451.0	1.0987126657122303e+18
14452.0	1.0985060064821247e+18
14453.0	1.0982961696473087e+18
14454.0	1.0980929145143293e+18
14455.0	1.0978859667161085e+18
14456.0	1.0976793175523327e+18
14457.0	1.09747248300032e+18
14458.0	1.0972670820614141e+18
14459.0	1.0970605318832127e+18
14460.0	1.0968544950878205e+18
14461.0	1.0966471295369215e+18
14462.0	1.0964356267245567e+18
14463.0	1.0962344746156031e+18
14464.0	1.0960284671803391e+18
14465.0	1.0958200295653375e+18
14466.0	1.0956163239641085e+18
14467.0	1.0954068000243711e+18
14468.0	1.0952041673261055e+18
14469.0	1.0949966818181119e+18
14470.0	1.0947897021431804e+18
14471.0	1.0945855108415487e+18
14472.0	1.0943807633752064e+18
14473.0	1.0941751334273021e+18
14474.0	1.0939694321762303e+18
14475.0	1.0937636487168e+18
14476.0	1.0935433009561597e+18
14477.0	1.0933524592852992e+18
14478.0	1.0931468905742333e+18
14479.0	1.0929409745747965e+18
14480.0	1.0927350921297916e+18
14481.0	1.0925305115967485e+18
14482.0	1.0923248740990975e+18
14483.0	1.0921188884742141e+18
14484.0	1.09191412842496e+18
14485.0	1.0917058292219901e+18
14486.0	1.0914798426390528e+18
14487.0	1.0912987393032191e+18
14488.0	1.091093582472806e+18
14489.0	1.0908878359232511e+18
14490.0	1.0906830725185533e+18
14491.0	1.0904782587822079e+18
14492.0	1.0902733024395261e+18
14493.0	1.0900683511300095e+18
14494.0	1.0898619242643455e+18
14495.0	1.089658615444275e+18
14496.0	1.0894429787258877e+18
14497.0	1.0892489376399357e+18
14498.0	1.0890441733963775e+18
14499.0	1.0888395072995324e+18
14500.0	1.0886348017762301e+18
14501.0	1.0884248995102716e+18
14502.0	1.0882013179412476e+18
14503.0	1.0880197557485565e+18
14504.0	1.0878161566826493e+18
14505.0	1.0876073625518077e+18
14506.0	1.087395721327411e+18
14507.0	1.0871833670713343e+18
14508.0	1.0869988277616637e+18
14509.0	1.0867945030811648e+18
14510.0	1.0865898931879933e+18
14511.0	1.0863859719995391e+18
14512.0	1.0861805593165821e+18
14513.0	1.0859775969460223e+18
14514.0	1.0857700787224575e+18
14515.0	1.0855692151816192e+18
14516.0	1.0851347171639296e+18
14517.0	1.0851612956295165e+18
14518.0	1.0849573316591615e+18
14519.0	1.0847534045986815e+18
14520.0	1.0845495094149116e+18
14521.0	1.0843452266774524e+18
14522.0	1.0841418222272511e+18
14523.0	1.0839257870499837e+18
14524.0	1.0837213398958077e+18
14525.0	1.0835300754391039e+18
14526.0	1.0833267867516927e+18
14527.0	1.0831223807016959e+18
14528.0	1.0829062549274621e+18
14529.0	1.0827152689725439e+18
14530.0	1.0825111993057277e+18
14531.0	1.0823089155735551e+18
14532.0	1.0820852828340221e+18
14533.0	1.0819021662322685e+18
14534.0	1.081698866639667e+18
14535.0	1.0814947139256319e+18
14536.0	1.0812922146062333e+18
14537.0	1.0810880274989052e+18
14538.0	1.0808857873874941e+18
14539.0	1.0806826253680637e+18
14540.0	1.0804794876755965e+18
14541.0	1.0802739936231421e+18
14542.0	1.0800719841984511e+18
14543.0	1.0798604478316543e+18
14544.0	1.0796659512442876e+18
14545.0	1.079462827812454e+18
14546.0	1.0771994815496173e+18
14547.0	1.0772562011226089e+18
14548.0	1.0788533459484672e+18
14549.0	1.0786418305531903e+18
14550.0	1.0784487734509565e+18
14551.0	1.0782460786769916e+18
14552.0	1.0780433134387197e+18
14553.0	1.0778396598468608e+18
14554.0	1.0776381050847232e+18
14555.0	1.0774354908413948e+18
14556.0	1.077232633328435e+18
14557.0	1.0770304569704447e+18
14558.0	1.0768279660396541e+18
14559.0	1.0764570251493367e+18
14560.0	1.0764226763161597e+18
14561.0	1.0762201216319485e+18
14562.0	1.0760165863194623e+18
14563.0	1.0758161338204157e+18
14564.0	1.0756132805017596e+18
14565.0	1.075411646886707e+18
14566.0	1.0752094545903613e+18
14567.0	1.0750072975261693e+18
14568.0	1.0748042890182655e+18
14569.0	1.0746031234875392e+18
14570.0	1.0741322801479677e+18
14571.0	1.0738766650015741e+18
14572.0	1.0736715819909116e+18
14573.0	1.073469210178355e+18
14574.0	1.0732695923458045e+18
14575.0	1.0730691322970111e+18
14576.0	1.0728672210190333e+18
14577.0	1.0726655647547391e+18
14578.0	1.0724635788181503e+18
14579.0	1.0722620643213311e+18
14580.0	1.0720603619196927e+18
14581.0	1.071858333201203e+18
14582.0	1.0716570326138877e+18
14583.0	1.0714554459750397e+18
14584.0	1.0712529567219711e+18
14585.0	1.0710523238678527e+18
14586.0	1.0708505359024127e+18
14587.0	1.0706490641874944e+18
14588.0	1.0704484791484415e+18
14589.0	1.0702526798102524e+18
14590.0	1.0700577696645117e+18
14591.0	1.0698628100259837e+18
14592.0	1.0696679149797375e+18
14593.0	1.0694638578958332e+18
14594.0	1.0692784151330813e+18
14595.0	1.0690831308554239e+18
14596.0	1.0688843300732927e+18
14597.0	1.0686895474343933e+18
14598.0	1.0684990849286141e+18
14599.0	1.0683048701984767e+18
14600.0	1.0681101706067964e+18
14601.0	1.0679156824080383e+18
14602.0	1.0677206590160893e+18
14603.0	1.0675265785036797e+18
14604.0	1.0673286576865277e+18
14605.0	1.0671365963120639e+18
14606.0	1.0669357436764159e+18
14607.0	1.066748487296614e+18
14608.0	1.0665539412164605e+18
14609.0	1.0663591124402173e+18
14610.0	1.066163822290534e+18
14611.0	1.0659710596284413e+18
14612.0	1.0657770294476797e+18
14613.0	1.0655827937460221e+18
14614.0	1.0653881822347263e+18
14615.0	1.0651942325846012e+18
14616.0	1.0650001394892797e+18
14617.0	1.0648059482472445e+18
14618.0	1.064611750294323e+18
14619.0	1.064416253784883e+18
14620.0	1.0642140983984127e+18
14621.0	1.064029551538995e+18
14622.0	1.0638355045810175e+18
14623.0	1.0636414811111421e+18
14624.0	1.0634429202432e+18
14625.0	1.0632534954082301e+18
14626.0	1.0630592462848e+18
14627.0	1.0628647480197119e+18
14628.0	1.0626717068558332e+18
14629.0	1.062477818442547e+18
14630.0	1.0622838629203967e+18
14631.0	1.0620897102659583e+18
14632.0	1.0617898158522365e+18
14633.0	1.0616932889788413e+18
14634.0	1.0615070266490879e+18
14635.0	1.0612976688037885e+18
14636.0	1.0610499037167615e+18
14637.0	1.0609261230948351e+18
14638.0	1.0607322237763583e+18
14639.0	1.0605377506770941e+18
14640.0	1.0603447732666365e+18
14641.0	1.0597570422243322e+18
14642.0	1.0599573588279293e+18
14643.0	1.059764112143155e+18
14644.0	1.0595704460279804e+18
14645.0	1.0593751625891837e+18
14646.0	1.0591829065990144e+18
