# Flux units: erg / (cm m2 s)
# Wavelength units: Angstrom
wave	flux
14000.0	1.7197393808195581e+18
14001.0	1.7192248236048381e+18
14002.0	1.7189458973556733e+18
14003.0	1.7185503694553085e+18
14004.0	1.718142015373312e+18
14005.0	1.717739494729318e+18
14006.0	1.7173268624572413e+18
14007.0	1.7169235868385275e+18
14008.0	1.7163698145591293e+18
14009.0	1.7161402653343744e+18
14010.0	1.715714833724211e+18
14011.0	1.7143394845327365e+18
14012.0	1.7149340975890432e+18
14013.0	1.714539296142131e+18
14014.0	1.7141283432693757e+18
14015.0	1.7137370465828861e+18
14016.0	1.713340144628531e+18
14017.0	1.7129412377968637e+18
14018.0	1.7125406297554944e+18
14019.0	1.7121459306495997e+18
14020.0	1.711744168335769e+18
14021.0	1.7113467563540477e+18
14022.0	1.7109376909180925e+18
14023.0	1.7104418319106043e+18
14024.0	1.7101000347222013e+18
14025.0	1.7097525316026365e+18
14026.0	1.709355159886233e+18
14027.0	1.7089576287862781e+18
14028.0	1.7085490633113597e+18
14029.0	1.70815294317527e+18
14030.0	1.7038567343652897e+18
14031.0	1.7073255244365821e+18
14032.0	1.706964263999897e+18
14033.0	1.7064507637497856e+18
14034.0	1.7061737551364093e+18
14035.0	1.705773086697062e+18
14036.0	1.7053720793579515e+18
14037.0	1.704967584035635e+18
14038.0	1.7045879844241403e+18
14039.0	1.7041860006510587e+18
14040.0	1.7037716755578875e+18
14041.0	1.7033934248345595e+18
14042.0	1.7029885318922235e+18
14043.0	1.702539372265472e+18
14044.0	1.7021947346943997e+18
14045.0	1.70181019083735e+18
14046.0	1.7014127083913213e+18
14047.0	1.700996428752486e+18
14048.0	1.7006164080328704e+18
14049.0	1.700232337293312e+18
14050.0	1.6998356232437757e+18
14051.0	1.6994189761839104e+18
14052.0	1.6990383028305915e+18
14053.0	1.698649616678912e+18
14054.0	1.6982575549513723e+18
14055.0	1.6978566214320123e+18
14056.0	1.697468458729472e+18
14057.0	1.6970706877153277e+18
14058.0	1.6966794665263104e+18
14059.0	1.6962806033154048e+18
14060.0	1.695891227620147e+18
14061.0	1.695485297845862e+18
14062.0	1.6951031900405752e+18
14063.0	1.694683217736499e+18
14064.0	1.6937144593416195e+18
14065.0	1.693909108601651e+18
14066.0	1.6935245714554875e+18
14067.0	1.693025553298227e+18
14068.0	1.6927416257609725e+18
14069.0	1.6923363771416576e+18
14070.0	1.691953076476313e+18
14071.0	1.6915539783843837e+18
14072.0	1.6911648207929341e+18
14073.0	1.6907719000719357e+18
14074.0	1.6903807376031741e+18
14075.0	1.6899563042373632e+18
14076.0	1.689473385496576e+18
14077.0	1.6882370472837123e+18
14078.0	1.6887402698113021e+18
14079.0	1.688403891663667e+18
14080.0	1.6880302899068925e+18
14081.0	1.687637122560819e+18
14082.0	1.6872070570835963e+18
14083.0	1.6868497309040635e+18
14084.0	1.6864636838084603e+18
14085.0	1.685066309487821e+18
14086.0	1.6856066667053053e+18
14087.0	1.6852903910178808e+18
14088.0	1.6848694657679357e+18
14089.0	1.684406792093696e+18
14090.0	1.684097388353945e+18
14091.0	1.683727153784422e+18
14092.0	1.6833332583071741e+18
14093.0	1.6829457650155515e+18
14094.0	1.6825558675488765e+18
14095.0	1.6821628864299003e+18
14096.0	1.681579453710336e+18
14097.0	1.681295334912819e+18
14098.0	1.680897716571341e+18
14099.0	1.6806022496649213e+18
14100.0	1.6801799319060475e+18
14101.0	1.6798238321410048e+18
14102.0	1.6794298779435005e+18
14103.0	1.6790219130929147e+18
14104.0	1.6786508564398075e+18
14105.0	1.6782581873770493e+18
14106.0	1.6778769251434493e+18
14107.0	1.6774625413300221e+18
14108.0	1.677067018462822e+18
14109.0	1.6767024344596475e+18
14110.0	1.676276764613017e+18
14111.0	1.6758394195017728e+18
14112.0	1.675525348340531e+18
14113.0	1.6750883589062656e+18
14114.0	1.6747377687789565e+18
14115.0	1.6743655528202237e+18
14116.0	1.673659205183078e+18
14117.0	1.6674585306988572e+18
14118.0	1.673210335802163e+18
14119.0	1.6727233267761147e+18
14120.0	1.6723413414445056e+18
14121.0	1.672015014526976e+18
14122.0	1.6715153303142395e+18
14123.0	1.6710924152864763e+18
14124.0	1.670652011688755e+18
14125.0	1.6697314978562043e+18
14126.0	1.6700663408885757e+18
14127.0	1.669727394149171e+18
14128.0	1.6693407229411325e+18
14129.0	1.668937383568998e+18
14130.0	1.6685309722886144e+18
14131.0	1.6681744832921595e+18
14132.0	1.667785986723021e+18
14133.0	1.666513746945635e+18
14134.0	1.6670254553890813e+18
14135.0	1.666596681757491e+18
14136.0	1.6657768580644867e+18
14137.0	1.6658628547182587e+18
14138.0	1.6653889856077821e+18
14139.0	1.6650972818309115e+18
14140.0	1.6646399902875643e+18
14141.0	1.6643220670775293e+18
14142.0	1.6633477537464323e+18
14143.0	1.6634519201251325e+18
14144.0	1.6631728814686205e+18
14145.0	1.6627860089339904e+18
14146.0	1.6623897344475133e+18
14147.0	1.6620097271496704e+18
14148.0	1.6615996332703741e+18
14149.0	1.6611969431764992e+18
14150.0	1.6608639406047232e+18
14151.0	1.660403666072371e+18
14152.0	1.6600946867961853e+18
14153.0	1.6597137802395643e+18
14154.0	1.6592840519843837e+18
14155.0	1.6558376175534103e+18
14156.0	1.6584550444433393e+18
14157.0	1.6581707712954365e+18
14158.0	1.6577648499097597e+18
14159.0	1.6574062637613053e+18
14160.0	1.6570243757375485e+18
14161.0	1.6565300904329216e+18
14162.0	1.6560816908140534e+18
14163.0	1.655874819352166e+18
14164.0	1.6552653987250168e+18
14165.0	1.6543693175521285e+18
14166.0	1.6547194916044797e+18
14167.0	1.654323136587366e+18
14168.0	1.653913188669849e+18
14169.0	1.6535781057232896e+18
14170.0	1.653167902792089e+18
14171.0	1.6527939856236541e+18
14172.0	1.6524368825810941e+18
14173.0	1.6517170309627904e+18
14174.0	1.6516560021618685e+18
14175.0	1.6512889217089528e+18
14176.0	1.6508798344626176e+18
14177.0	1.6505199128477693e+18
14178.0	1.650139231105843e+18
14179.0	1.64969311151063e+18
14180.0	1.649385731103129e+18
14181.0	1.6490033498292221e+18
14182.0	1.6486223392538621e+18
14183.0	1.6482422916907003e+18
14184.0	1.6478528992182267e+18
14185.0	1.647478368003686e+18
14186.0	1.645913835569152e+18
14187.0	1.6466807019798523e+18
14188.0	1.6463329690124285e+18
14189.0	1.645940303305113e+18
14190.0	1.645568033659289e+18
14191.0	1.6451821560135677e+18
14192.0	1.644800598500966e+18
14193.0	1.644237791690752e+18
14194.0	1.6440459173822461e+18
14195.0	1.643679566738227e+18
14196.0	1.6432988145319933e+18
14197.0	1.642917570753331e+18
14198.0	1.6425324396937213e+18
14199.0	1.6421440857309181e+18
14200.0	1.6410510467530757e+18
14201.0	1.6413963185029115e+18
14202.0	1.6410216933359613e+18
14203.0	1.6405652775632893e+18
14204.0	1.6402536105771005e+18
14205.0	1.639885473159577e+18
14206.0	1.6393029111775232e+18
14207.0	1.6391334663290877e+18
14208.0	1.6387556484579328e+18
14209.0	1.6381375103893496e+18
14210.0	1.637864291749068e+18
14211.0	1.6376095146246144e+18
14212.0	1.6372423569965056e+18
14213.0	1.6368389605818363e+18
14214.0	1.6364869779455995e+18
14215.0	1.6360841133686784e+18
14216.0	1.635731434477977e+18
14217.0	1.6353577941336061e+18
14218.0	1.6349607495729147e+18
14219.0	1.634601081294028e+18
14220.0	1.6342210941288448e+18
14221.0	1.633825626626457e+18
14222.0	1.6332752752214013e+18
14223.0	1.633085383979827e+18
14224.0	1.6327210818338813e+18
14225.0	1.63028548808868e+18
14226.0	1.6319682092990461e+18
14227.0	1.6315907605266432e+18
14228.0	1.6261571336470554e+18
14229.0	1.6302895917957074e+18
14230.0	1.6304623199453181e+18
14231.0	1.6299035665104893e+18
14232.0	1.6297104121004035e+18
14233.0	1.6293192915746813e+18
14234.0	1.628959962195558e+18
14235.0	1.6285798592675837e+18
14236.0	1.628205708895846e+18
14237.0	1.6278261663268861e+18
14238.0	1.6274526081908733e+18
14239.0	1.627055065346867e+18
14240.0	1.6243031841701903e+18
14241.0	1.6263195756855293e+18
14242.0	1.625955191331225e+18
14243.0	1.6253275774910467e+18
14244.0	1.6252125226991608e+18
14245.0	1.6248016369352701e+18
14246.0	1.624401394637209e+18
14247.0	1.6240807216414715e+18
14248.0	1.6236901178540032e+18
14249.0	1.6233342009606144e+18
14250.0	1.6229645653377021e+18
14251.0	1.6225919584698365e+18
14252.0	1.6222196418478077e+18
14253.0	1.6218470886670333e+18
14254.0	1.6214706532384765e+18
14255.0	1.621049986357657e+18
14256.0	1.6189762922610703e+18
14257.0	1.6203341042286587e+18
14258.0	1.6199828044251133e+18
14259.0	1.6195669341503485e+18
14260.0	1.6191797529149437e+18
14261.0	1.6188280554913792e+18
14262.0	1.6184948415266813e+18
14263.0	1.615550423341468e+18
14264.0	1.6173949641555965e+18
14265.0	1.6173285767118843e+18
14266.0	1.6170039174496253e+18
14267.0	1.616634249950003e+18
14268.0	1.6162569320398843e+18
14269.0	1.6158759332085757e+18
14270.0	1.6155203921248253e+18
14271.0	1.6151342963752957e+18
14272.0	1.6147748176789501e+18
14273.0	1.6144043364843512e+18
14274.0	1.6103371668717596e+18
14275.0	1.61332586348544e+18
14276.0	1.6132125484908541e+18
14277.0	1.6128718317551613e+18
14278.0	1.612549954155315e+18
14279.0	1.612171523915776e+18
14280.0	1.6117872535273467e+18
14281.0	1.6114300447883261e+18
14282.0	1.6110587633205243e+18
14283.0	1.6106898491179003e+18
14284.0	1.6103182740488184e+18
14285.0	1.6099491954294784e+18
14286.0	1.6095676228173821e+18
14287.0	1.6092067163799547e+18
14288.0	1.6088374448226304e+18
14289.0	1.6069294810988493e+18
14290.0	1.608081190001049e+18
14291.0	1.607726898819891e+18
14292.0	1.6073572178984957e+18
14293.0	1.6069886694391805e+18
14294.0	1.6063863304749053e+18
14295.0	1.6062233767313405e+18
14296.0	1.6046334335254536e+18
14297.0	1.6055168093126653e+18
14298.0	1.6043064355192824e+18
14299.0	1.6047258508197885e+18
14300.0	1.6043947759501307e+18
14301.0	1.6040255245254653e+18
14302.0	1.6036656482091005e+18
14303.0	1.6032397384482808e+18
14304.0	1.602908836383948e+18
14305.0	1.6025582999437307e+18
14306.0	1.6019949025755133e+18
14307.0	1.601773958384844e+18
14308.0	1.6014563237429243e+18
14309.0	1.601077224092467e+18
14310.0	1.5999197908041723e+18
14311.0	1.5990863574335485e+18
14312.0	1.5998154717528061e+18
14313.0	1.5994646115123197e+18
14314.0	1.599224074888806e+18
14315.0	1.5988823951409155e+18
14316.0	1.5984406359441405e+18
14317.0	1.597981467030323e+18
14318.0	1.5977932551880704e+18
14319.0	1.5974283155079165e+18
14320.0	1.597060027095449e+18
14321.0	1.596686967242752e+18
14322.0	1.5962496019988477e+18
14323.0	1.5959414196404221e+18
14324.0	1.595580313554124e+18
14325.0	1.5952147766050816e+18
14326.0	1.5948655370436605e+18
14327.0	1.594487032984371e+18
14328.0	1.594119779726131e+18
14329.0	1.5937684916666363e+18
14330.0	1.5934014464458747e+18
14331.0	1.5930140823388157e+18
14332.0	1.5926699497619456e+18
14333.0	1.5923062448848893e+18
14334.0	1.5919394597109757e+18
14335.0	1.591520693688729e+18
14336.0	1.5909604554702848e+18
14337.0	1.5908372469514235e+18
14338.0	1.5904727501897725e+18
14339.0	1.5900844901793792e+18
14340.0	1.5897499071938552e+18
14341.0	1.5893636839374843e+18
14342.0	1.589013447809433e+18
14343.0	1.5886222954070013e+18
14344.0	1.5882686870585344e+18
14345.0	1.587928337743872e+18
14346.0	1.587560218781286e+18
14347.0	1.5870820261822464e+18
14348.0	1.5868345605685243e+18
14349.0	1.5864742363004925e+18
14350.0	1.585945651655475e+18
14351.0	1.5855636394803195e+18
14352.0	1.5853660995059707e+18
14353.0	1.5850013426974715e+18
14354.0	1.5846189899448315e+18
14355.0	1.5842229016854523e+18
14356.0	1.583879233837465e+18
14357.0	1.5835518298226685e+18
14358.0	1.5831885024329725e+18
14359.0	1.5828010577952763e+18
14360.0	1.5824497630248957e+18
14361.0	1.5820986192494587e+18
14362.0	1.5817372799598587e+18
14363.0	1.5813768583839741e+18
14364.0	1.5804263619887101e+18
14365.0	1.580590840781209e+18
14366.0	1.5801928147533821e+18
14367.0	1.5799264445726715e+18
14368.0	1.5795651489038333e+18
14369.0	1.5792070207733757e+18
14370.0	1.578844686594867e+18
14371.0	1.578485140789657e+18
14372.0	1.578104643597107e+18
14373.0	1.577759279572582e+18
14374.0	1.5773971970523139e+18
14375.0	1.5770354685313021e+18
14376.0	1.5766766542127104e+18
14377.0	1.5763168651378685e+18
14378.0	1.5759527206977533e+18
14379.0	1.5755964531605504e+18
14380.0	1.5752330368516093e+18
14381.0	1.5748540496084987e+18
14382.0	1.5745123312730107e+18
14383.0	1.574101839773696e+18
14384.0	1.5737569169899512e+18
14385.0	1.5734347944427515e+18
14386.0	1.5730443248730112e+18
14387.0	1.572711756831129e+18
14388.0	1.5723474077089792e+18
14389.0	1.5719946365435904e+18
14390.0	1.5716315322908667e+18
14391.0	1.571266194990694e+18
14392.0	1.5708868604592125e+18
14393.0	1.570557340837478e+18
14394.0	1.5701347059892221e+18
14395.0	1.569667824589209e+18
14396.0	1.56947225593774e+18
14397.0	1.5691213118111744e+18
14398.0	1.5687442271043581e+18
14399.0	1.568395391873843e+18
14400.0	1.567923331347251e+18
14401.0	1.567672911265792e+18
14402.0	1.5673193968697344e+18
14403.0	1.5564753191567173e+18
14404.0	1.5389573001510853e+18
14405.0	1.564118617790863e+18
14406.0	1.5658889814999037e+18
14407.0	1.548409233001686e+18
14408.0	1.5650304276037632e+18
14409.0	1.5647847437303803e+18
14410.0	1.564414477284147e+18
14411.0	1.5640900025712635e+18
14412.0	1.5637368841175037e+18
14413.0	1.5633851799830525e+18
14414.0	1.563026246546227e+18
14415.0	1.562670886656409e+18
14416.0	1.562281349899878e+18
14417.0	1.5618097994006528e+18
14418.0	1.5614465156317187e+18
14419.0	1.5612425936044024e+18
14420.0	1.5608777009004544e+18
14421.0	1.5605302430793725e+18
14422.0	1.5601659728101376e+18
14423.0	1.559802105194086e+18
14424.0	1.5039382809476787e+18
14425.0	1.5590973648142339e+18
14426.0	1.558747779642163e+18
14427.0	1.5583933894754301e+18
14428.0	1.5579848055455741e+18
14429.0	1.5576789132771325e+18
14430.0	1.557327046403686e+18
14431.0	1.5560442218807296e+18
14432.0	1.5565590592749565e+18
14433.0	1.543231498931396e+18
14434.0	1.5558796071927803e+18
14435.0	1.5554034345705467e+18
14436.0	1.5551934626791421e+18
14437.0	1.5548382202298368e+18
14438.0	1.5540455118733312e+18
14439.0	1.5540418980610043e+18
14440.0	1.5537731304161275e+18
14441.0	1.5534067042746363e+18
14442.0	1.5530434658041853e+18
14443.0	1.5526225690755067e+18
14444.0	1.5523458121203712e+18
14445.0	1.5519993961644032e+18
14446.0	1.537834114193824e+18
14447.0	1.551274734518272e+18
14448.0	1.5509387825119232e+18
14449.0	1.5505841759191035e+18
14450.0	1.550221044822835e+18
14451.0	1.5498698121281533e+18
14452.0	1.5495161299599357e+18
14453.0	1.5489141181513728e+18
14454.0	1.5488096128729085e+18
14455.0	1.548447030391603e+18
14456.0	1.5480486419759101e+18
14457.0	1.547666267412889e+18
14458.0	1.547336496132915e+18
14459.0	1.5470082868117504e+18
14460.0	1.546686939371929e+18
14461.0	1.546257347012198e+18
14462.0	1.5448942066008064e+18
14463.0	1.5456090418315264e+18
14464.0	1.545278572619366e+18
14465.0	1.5448957131948032e+18
14466.0	1.544570309024153e+18
14467.0	1.5440322184085501e+18
14468.0	1.543854393340723e+18
14469.0	1.543431839023104e+18
14470.0	1.5431159039131643e+18
14471.0	1.542785441411891e+18
14472.0	1.542445894048153e+18
14473.0	1.5421111114137597e+18
14474.0	1.5417640797339648e+18
14475.0	1.5413994135224315e+18
14476.0	1.5401571965730819e+18
14477.0	1.540702172558131e+18
14478.0	1.5403483863711741e+18
14479.0	1.5399808411893757e+18
14480.0	1.5396246239838203e+18
14481.0	1.5393044576600064e+18
14482.0	1.538947446892134e+18
14483.0	1.5385829098651648e+18
14484.0	1.5382453606678523e+18
14485.0	1.537826322854707e+18
14486.0	1.537048893508813e+18
14487.0	1.5371946220847101e+18
14488.0	1.5366165110980605e+18
14489.0	1.5363999373721595e+18
14490.0	1.5361197008224253e+18
14491.0	1.535798636917555e+18
14492.0	1.5354392723062781e+18
14493.0	1.5350620634480637e+18
14494.0	1.5347087520563197e+18
14495.0	1.5344017608802304e+18
14496.0	1.5338237824335872e+18
14497.0	1.5336988760604667e+18
14498.0	1.5333479235452925e+18
14499.0	1.5330048563216381e+18
14500.0	1.5326549842591741e+18
14501.0	1.5319121092673533e+18
14502.0	1.5311195519057923e+18
14503.0	1.531523931465318e+18
14504.0	1.5312487851229181e+18
14505.0	1.5305565118922742e+18
14506.0	1.529709301071872e+18
14507.0	1.5298025924591616e+18
14508.0	1.529864859418624e+18
14509.0	1.5295154034311168e+18
14510.0	1.5291639157227523e+18
14511.0	1.5288207545466877e+18
14512.0	1.5284429098319867e+18
14513.0	1.5281237182644221e+18
14514.0	1.5276426047520768e+18
14515.0	1.5274179192422397e+18
14516.0	1.523370558488579e+18
14517.0	1.526732412262809e+18
14518.0	1.52638448467968e+18
14519.0	1.5260348709863421e+18
14520.0	1.5256884449640443e+18
14521.0	1.5253284864393216e+18
14522.0	1.5249766816415741e+18
14523.0	1.5236786905153528e+18
14524.0	1.523374289741413e+18
14525.0	1.5239421917921275e+18
14526.0	1.5235971213688832e+18
14527.0	1.5232065763016696e+18
14528.0	1.5225680824369147e+18
14529.0	1.5225473642528765e+18
14530.0	1.5221825822785536e+18
14531.0	1.5218684406530048e+18
14532.0	1.5200824690999296e+18
14533.0	1.521177113657344e+18
14534.0	1.5208335011741693e+18
14535.0	1.5204658066751485e+18
14536.0	1.5201337016844285e+18
14537.0	1.5197685757771776e+18
14538.0	1.5194457804636157e+18
14539.0	1.5191009298219003e+18
14540.0	1.5187566714159101e+18
14541.0	1.518371231655526e+18
14542.0	1.5180586956095483e+18
14543.0	1.517148838664601e+18
14544.0	1.5173701737644032e+18
14545.0	1.5170053699796987e+18
14546.0	1.4667691491065654e+18
14547.0	1.4711250596396797e+18
14548.0	1.5159681722875901e+18
14549.0	1.5154440218607613e+18
14550.0	1.5152875927764992e+18
14551.0	1.5149591636738048e+18
14552.0	1.514604481583513e+18
14553.0	1.5142467124854781e+18
14554.0	1.5139234054668285e+18
14555.0	1.513577776362291e+18
14556.0	1.513211593490432e+18
14557.0	1.5128911100772347e+18
14558.0	1.5125458282610683e+18
14559.0	1.5091235681206175e+18
14560.0	1.511551580241919e+18
14561.0	1.5115027887423485e+18
14562.0	1.5111079470301181e+18
14563.0	1.5108243416154107e+18
14564.0	1.510378718625792e+18
14565.0	1.5101406599970813e+18
14566.0	1.5097958529761277e+18
14567.0	1.5094452158726141e+18
14568.0	1.508802301211443e+18
14569.0	1.5087555984752635e+18
14570.0	1.507467309613056e+18
14571.0	1.5080642429583357e+18
14572.0	1.507544100608409e+18
14573.0	1.507270586689126e+18
14574.0	1.5067516304883707e+18
14575.0	1.5066589095264253e+18
14576.0	1.5063142082019328e+18
14577.0	1.505983416867225e+18
14578.0	1.50565145280512e+18
14579.0	1.5053137408688125e+18
14580.0	1.504970933692006e+18
14581.0	1.5045935084077053e+18
14582.0	1.504276234475929e+18
14583.0	1.503945949813145e+18
14584.0	1.503558124332646e+18
14585.0	1.5032614712770557e+18
14586.0	1.5029136712007677e+18
14587.0	1.5025592525127675e+18
14588.0	1.5022293923135485e+18
14589.0	1.5019067798716413e+18
14590.0	1.5015805016080381e+18
14591.0	1.5012332233031675e+18
14592.0	1.5009110168698877e+18
14593.0	1.5003954647662587e+18
14594.0	1.5002655453609981e+18
14595.0	1.4999284223049725e+18
14596.0	1.4990877965418486e+18
14597.0	1.4987317789851638e+18
14598.0	1.4989173014396923e+18
14599.0	1.4986336943472637e+18
14600.0	1.4982898100731901e+18
14601.0	1.4979745108197373e+18
14602.0	1.4975660527190013e+18
14603.0	1.4973137032577021e+18
14604.0	1.496881070866432e+18
14605.0	1.4965147135115264e+18
14606.0	1.4961504180764675e+18
14607.0	1.496014839716249e+18
14608.0	1.4956838185336824e+18
14609.0	1.4952807928954877e+18
14610.0	1.4947407611559939e+18
14611.0	1.494695588501913e+18
14612.0	1.4943848895610877e+18
14613.0	1.4940632535531515e+18
14614.0	1.4937303566778365e+18
14615.0	1.4933494316662784e+18
14616.0	1.493085227424153e+18
14617.0	1.4927572110409725e+18
14618.0	1.4923137187577853e+18
14619.0	1.4918631028686835e+18
14620.0	1.4904257081769984e+18
14621.0	1.4914565489819645e+18
14622.0	1.4911253768044541e+18
14623.0	1.4908036837539837e+18
14624.0	1.4903804835135488e+18
14625.0	1.4901473506754557e+18
14626.0	1.4898016410402816e+18
14627.0	1.4894503143931904e+18
14628.0	1.4891777953628152e+18
14629.0	1.488852354282291e+18
14630.0	1.4885161153855485e+18
14631.0	1.4881933049724923e+18
14632.0	1.481889648581021e+18
14633.0	1.486936186499889e+18
14634.0	1.4871953491886075e+18
14635.0	1.4843540555169603e+18
14636.0	1.4770181842665452e+18
14637.0	1.4862503926300672e+18
14638.0	1.4858916437426173e+18
14639.0	1.4855637464776707e+18
14640.0	1.4852682577608704e+18
14641.0	1.463937636551868e+18
14642.0	1.4846168924159997e+18
14643.0	1.4842951305789435e+18
14644.0	1.4839453306585088e+18
14645.0	1.4836038690144253e+18
14646.0	1.4831743924174845e+18
14647.0	1.4828568148180992e+18
