# Flux units: erg / (cm m2 s)
# Wavelength units: Angstrom
wave	flux
14000.0	1.7161850554679293e+18
14001.0	1.7157070692286467e+18
14002.0	1.7155793459609597e+18
14003.0	1.715270695518208e+18
14004.0	1.7149602331361275e+18
14005.0	1.7146496935788536e+18
14006.0	1.7143291548008448e+18
14007.0	1.7140182209789947e+18
14008.0	1.7135975205437437e+18
14009.0	1.7134066629345277e+18
14010.0	1.7130819466297341e+18
14011.0	1.7119644900917248e+18
14012.0	1.7124767555387387e+18
14013.0	1.7121676034572288e+18
14014.0	1.7118509502824448e+18
14015.0	1.7115449556729853e+18
14016.0	1.7112380836151293e+18
14017.0	1.710928418150809e+18
14018.0	1.7106186419568635e+18
14019.0	1.7103091643973632e+18
14020.0	1.7099987389251581e+18
14021.0	1.709688459414733e+18
14022.0	1.7093780976959485e+18
14023.0	1.7090563962568696e+18
14024.0	1.7087438954430461e+18
14025.0	1.7084524181585915e+18
14026.0	1.7081414558154747e+18
14027.0	1.707834791795097e+18
14028.0	1.7075185530175485e+18
14029.0	1.7072127966445565e+18
14030.0	1.7062444727795715e+18
14031.0	1.7065692847144957e+18
14032.0	1.7062882042707965e+18
14033.0	1.7059293983408128e+18
14034.0	1.7056721633542141e+18
14035.0	1.7053647745581053e+18
14036.0	1.7050564613373947e+18
14037.0	1.7047481279840253e+18
14038.0	1.704439849995468e+18
14039.0	1.7041267837894653e+18
14040.0	1.7038155194564603e+18
14041.0	1.7035119827091456e+18
14042.0	1.703192985757286e+18
14043.0	1.7028468885684221e+18
14044.0	1.7025749047312381e+18
14045.0	1.702278437902745e+18
14046.0	1.7019711296372733e+18
14047.0	1.7016579527016443e+18
14048.0	1.7013581287522304e+18
14049.0	1.7010530954772477e+18
14050.0	1.7007456412499965e+18
14051.0	1.7004273606852605e+18
14052.0	1.7001266106335227e+18
14053.0	1.6998233339330557e+18
14054.0	1.699516426643046e+18
14055.0	1.6992092861497344e+18
14056.0	1.6989021607559165e+18
14057.0	1.6985952165560315e+18
14058.0	1.698288262289817e+18
14059.0	1.697981398620569e+18
14060.0	1.6976745987047421e+18
14061.0	1.6973589001535488e+18
14062.0	1.6970611381239803e+18
14063.0	1.6967355678588928e+18
14064.0	1.696286112953139e+18
14065.0	1.6960338943541243e+18
14066.0	1.6957386187079675e+18
14067.0	1.6954277033410557e+18
14068.0	1.6951259634335741e+18
14069.0	1.6948175713599485e+18
14070.0	1.6945131605196795e+18
14071.0	1.694203597396377e+18
14072.0	1.6939013038407675e+18
14073.0	1.6935953394302976e+18
14074.0	1.6932895209816061e+18
14075.0	1.692962994415206e+18
14076.0	1.6926721982857213e+18
14077.0	1.6922248354988032e+18
14078.0	1.6920558755119104e+18
14079.0	1.6917488356818941e+18
14080.0	1.6914554726383616e+18
14081.0	1.6911500501319675e+18
14082.0	1.690841595982643e+18
14083.0	1.690537503909478e+18
14084.0	1.6902336785940477e+18
14085.0	1.6895802412630016e+18
14086.0	1.6896114653396987e+18
14087.0	1.6893187096313856e+18
14088.0	1.6889993553248253e+18
14089.0	1.68870471050199e+18
14090.0	1.688400301339443e+18
14091.0	1.6880993583497216e+18
14092.0	1.6877946975289344e+18
14093.0	1.6874900585185277e+18
14094.0	1.687185466484326e+18
14095.0	1.6868808274739197e+18
14096.0	1.686545227789107e+18
14097.0	1.6862550356393981e+18
14098.0	1.6859546681081853e+18
14099.0	1.685663491135897e+18
14100.0	1.685343425475379e+18
14101.0	1.685055400941977e+18
14102.0	1.6847510840541181e+18
14103.0	1.6844268274450432e+18
14104.0	1.684140088046387e+18
14105.0	1.683839344705536e+18
14106.0	1.6835357257498621e+18
14107.0	1.683231180691865e+18
14108.0	1.682915047610777e+18
14109.0	1.6826187686871035e+18
14110.0	1.6823171613196285e+18
14111.0	1.6820035783753725e+18
14112.0	1.6817052526313472e+18
14113.0	1.6814109819404285e+18
14114.0	1.681092350731878e+18
14115.0	1.6808024303730685e+18
14116.0	1.6804774439550976e+18
14117.0	1.6790477147734013e+18
14118.0	1.6798940531785725e+18
14119.0	1.6795697898586107e+18
14120.0	1.679274653463347e+18
14121.0	1.678972395139891e+18
14122.0	1.6786587417313275e+18
14123.0	1.6783688280834043e+18
14124.0	1.6780627026116605e+18
14125.0	1.677198055230668e+18
14126.0	1.6774732485492733e+18
14127.0	1.6771716025942016e+18
14128.0	1.6768676564828157e+18
14129.0	1.676552884033945e+18
14130.0	1.6762404385849341e+18
14131.0	1.6759628410912763e+18
14132.0	1.6756536571330557e+18
14133.0	1.6746819627253745e+18
14134.0	1.6750557809082365e+18
14135.0	1.6747377385799675e+18
14136.0	1.674433126413107e+18
14137.0	1.6741493666480125e+18
14138.0	1.6738368792559613e+18
14139.0	1.6735475511328765e+18
14140.0	1.6732404710375421e+18
14141.0	1.6729393787305981e+18
14142.0	1.6725577171992576e+18
14143.0	1.6723377343430653e+18
14144.0	1.672041138330009e+18
14145.0	1.6717379237052413e+18
14146.0	1.6714350949564413e+18
14147.0	1.6711362205974525e+18
14148.0	1.670834244131225e+18
14149.0	1.6705339638415357e+18
14150.0	1.6702352589324285e+18
14151.0	1.6699280815292413e+18
14152.0	1.6696337454071803e+18
14153.0	1.66933286617088e+18
14154.0	1.6690025278210043e+18
14155.0	1.6686584103436288e+18
14156.0	1.6684217861668861e+18
14157.0	1.668130916217651e+18
14158.0	1.6678254735785981e+18
14159.0	1.6675299580182525e+18
14160.0	1.6672225071464443e+18
14161.0	1.666855104570982e+18
14162.0	1.666497971329433e+18
14163.0	1.6663270920290307e+18
14164.0	1.6659840231276541e+18
14165.0	1.6656595215712253e+18
14166.0	1.6654283466342395e+18
14167.0	1.665113265484595e+18
14168.0	1.664827457221427e+18
14169.0	1.664530886374195e+18
14170.0	1.6642266550501376e+18
14171.0	1.66392786625495e+18
14172.0	1.6636322550644733e+18
14173.0	1.6632849348165632e+18
14174.0	1.6630280689287165e+18
14175.0	1.66273433510871e+18
14176.0	1.6624351671484416e+18
14177.0	1.6621360763633661e+18
14178.0	1.6618360728977403e+18
14179.0	1.66152843076567e+18
14180.0	1.6612390976094205e+18
14181.0	1.6609402198949885e+18
14182.0	1.6606403607134205e+18
14183.0	1.6603426305605632e+18
14184.0	1.6600375469539323e+18
14185.0	1.6597449070084093e+18
14186.0	1.6592248686772221e+18
14187.0	1.6591173502107643e+18
14188.0	1.658844822791782e+18
14189.0	1.658549065639526e+18
14190.0	1.6582512163684347e+18
14191.0	1.657952422540083e+18
14192.0	1.657646223248588e+18
14193.0	1.657324954661683e+18
14194.0	1.657057696966246e+18
14195.0	1.6567626343907323e+18
14196.0	1.6564643237462013e+18
14197.0	1.656166496285491e+18
14198.0	1.655862083767501e+18
14199.0	1.6555684153786365e+18
14200.0	1.6551436414353403e+18
14201.0	1.6549703025950715e+18
14202.0	1.65467640603607e+18
14203.0	1.6543696967172093e+18
14204.0	1.6540797310599165e+18
14205.0	1.653782472346828e+18
14206.0	1.6533315427237885e+18
14207.0	1.653190996629913e+18
14208.0	1.6528943569960957e+18
14209.0	1.652429378132377e+18
14210.0	1.652184103623065e+18
14211.0	1.651997203759104e+18
14212.0	1.6517053271769088e+18
14213.0	1.6514088150499325e+18
14214.0	1.6511117073317885e+18
14215.0	1.65079885587415e+18
14216.0	1.6505198574829565e+18
14217.0	1.6502232530812925e+18
14218.0	1.6499127202349053e+18
14219.0	1.6496301231308797e+18
14220.0	1.6493339348041723e+18
14221.0	1.6490101580234747e+18
14222.0	1.6486926592770043e+18
14223.0	1.6484129092665341e+18
14224.0	1.648116813214515e+18
14225.0	1.6474124067012605e+18
14226.0	1.647522830981529e+18
14227.0	1.6472282633338875e+18
14228.0	1.6458209720008707e+18
14229.0	1.6464337027727347e+18
14230.0	1.6463405892239357e+18
14231.0	1.6460370793201661e+18
14232.0	1.6457490380095488e+18
14233.0	1.6454486167912443e+18
14234.0	1.645157813950873e+18
14235.0	1.6448589345587197e+18
14236.0	1.644566594925363e+18
14237.0	1.6442694251315197e+18
14238.0	1.643975075587686e+18
14239.0	1.6436494130479096e+18
14240.0	1.6412022379905024e+18
14241.0	1.6430528907444221e+18
14242.0	1.6427611366359037e+18
14243.0	1.6422731092328443e+18
14244.0	1.6421727311495168e+18
14245.0	1.6418604668944381e+18
14246.0	1.641561065730867e+18
14247.0	1.6412822267232253e+18
14248.0	1.6409701403066368e+18
14249.0	1.6406954805035005e+18
14250.0	1.6404004229611515e+18
14251.0	1.6401088248807421e+18
14252.0	1.6398140257075197e+18
14253.0	1.6395184480714747e+18
14254.0	1.6392216456986621e+18
14255.0	1.6388855343087613e+18
14256.0	1.638223096001331e+18
14257.0	1.6383184543416315e+18
14258.0	1.63804703925207e+18
14259.0	1.637703044248371e+18
14260.0	1.637408921196953e+18
14261.0	1.6371102766858235e+18
14262.0	1.6368613682315261e+18
14263.0	1.63596138971136e+18
14264.0	1.6361548964429821e+18
14265.0	1.6359744490962941e+18
14266.0	1.6356846075903997e+18
14267.0	1.6353924961271805e+18
14268.0	1.6350987153309693e+18
14269.0	1.6347938447949821e+18
14270.0	1.6345111688380413e+18
14271.0	1.6342164434845693e+18
14272.0	1.6339235015491581e+18
14273.0	1.6336273568432128e+18
14274.0	1.6324217796558848e+18
14275.0	1.6329580046450688e+18
14276.0	1.6327320390336507e+18
14277.0	1.6324393202352125e+18
14278.0	1.6321630028431357e+18
14279.0	1.631868648266137e+18
14280.0	1.631567634812108e+18
14281.0	1.6312837710282747e+18
14282.0	1.630961351524352e+18
14283.0	1.630667963314995e+18
14284.0	1.630374898905907e+18
14285.0	1.6300817053122557e+18
14286.0	1.6297873104699387e+18
14287.0	1.6294959288156157e+18
14288.0	1.6292021966733307e+18
14289.0	1.6275283170557926e+18
14290.0	1.6286155511169021e+18
14291.0	1.6283237684871165e+18
14292.0	1.6280298450845696e+18
14293.0	1.6277369484476413e+18
14294.0	1.6272727396581376e+18
14295.0	1.6271387215790075e+18
14296.0	1.6257474239660037e+18
14297.0	1.626567695610675e+18
14298.0	1.6260074624253947e+18
14299.0	1.6259664605872123e+18
14300.0	1.6256831873613821e+18
14301.0	1.6253967398862848e+18
14302.0	1.625106302789222e+18
14303.0	1.6247749376737277e+18
14304.0	1.6245024924631037e+18
14305.0	1.624231392785203e+18
14306.0	1.6239217659084797e+18
14307.0	1.6236164927193085e+18
14308.0	1.6233264465313787e+18
14309.0	1.6230302615601147e+18
14310.0	1.622655092811366e+18
14311.0	1.6223024692854781e+18
14312.0	1.622104212924006e+18
14313.0	1.6216874366795779e+18
14314.0	1.6215728969482237e+18
14315.0	1.6212866977759232e+18
14316.0	1.6209304184946688e+18
14317.0	1.6206905261162496e+18
14318.0	1.620414453671526e+18
14319.0	1.6201241524699133e+18
14320.0	1.6198324302381053e+18
14321.0	1.6195386662191101e+18
14322.0	1.6192004358668285e+18
14323.0	1.6189371224948728e+18
14324.0	1.618669651728793e+18
14325.0	1.6183677457268733e+18
14326.0	1.6180881735548925e+18
14327.0	1.6175817566453757e+18
14328.0	1.6171459416162304e+18
14329.0	1.6168640676102144e+18
14330.0	1.6165735852146688e+18
14331.0	1.6162827488198653e+18
14332.0	1.6159926657220605e+18
14333.0	1.615702374586777e+18
14334.0	1.615412101906432e+18
14335.0	1.615075116423577e+18
14336.0	1.6147583961399293e+18
14337.0	1.6145087260000253e+18
14338.0	1.6142181295194112e+18
14339.0	1.6139183290580992e+18
14340.0	1.6136414697619453e+18
14341.0	1.6133488533045248e+18
14342.0	1.6130588926803963e+18
14343.0	1.6127675731017725e+18
14344.0	1.6124761394380797e+18
14345.0	1.6121921447919616e+18
14346.0	1.6118982398443515e+18
14347.0	1.6115858464047104e+18
14348.0	1.6113221656117248e+18
14349.0	1.6110335136104443e+18
14350.0	1.610711943033651e+18
14351.0	1.6104133622759421e+18
14352.0	1.610152765135257e+18
14353.0	1.609872822186803e+18
14354.0	1.6095811016327168e+18
14355.0	1.6092851095994363e+18
14356.0	1.6089991352418304e+18
14357.0	1.6087189993553915e+18
14358.0	1.6084297668624381e+18
14359.0	1.6081233125572605e+18
14360.0	1.607848419550822e+18
14361.0	1.6075617170620408e+18
14362.0	1.6072739525754877e+18
14363.0	1.6069846647177213e+18
14364.0	1.6065946145783803e+18
14365.0	1.6063886004322301e+18
14366.0	1.6060994870575101e+18
14367.0	1.6058037668151293e+18
14368.0	1.6055124036157435e+18
14369.0	1.6052244445134843e+18
14370.0	1.6049359183413243e+18
14371.0	1.6046475012210685e+18
14372.0	1.604352178598707e+18
14373.0	1.6040691821969405e+18
14374.0	1.603781258326835e+18
14375.0	1.6034901383970813e+18
14376.0	1.6032054927949821e+18
14377.0	1.602916392842035e+18
14378.0	1.6026255061155837e+18
14379.0	1.602340862191206e+18
14380.0	1.602051500513689e+18
14381.0	1.601750315932057e+18
14382.0	1.601474676339507e+18
14383.0	1.6011831873110013e+18
14384.0	1.6008786120540152e+18
14385.0	1.6006128877961213e+18
14386.0	1.6003036988047357e+18
14387.0	1.6000368152412157e+18
14388.0	1.599746703622144e+18
14389.0	1.599461232581017e+18
14390.0	1.5991710270095352e+18
14391.0	1.5988862270570493e+18
14392.0	1.5985968066592765e+18
14393.0	1.5983113926606843e+18
14394.0	1.5979772257501181e+18
14395.0	1.597722435203891e+18
14396.0	1.5974490068484093e+18
14397.0	1.597161757422387e+18
14398.0	1.5968738016755707e+18
14399.0	1.5965869985234941e+18
14400.0	1.5962737158914048e+18
14401.0	1.5960042318594048e+18
14402.0	1.5957229047906301e+18
14403.0	1.5941839592882153e+18
14404.0	1.589379316947351e+18
14405.0	1.5925590355869645e+18
14406.0	1.5945458237046781e+18
14407.0	1.5924605734617093e+18
14408.0	1.5939591647264763e+18
14409.0	1.5936608356270077e+18
14410.0	1.5933930595155968e+18
14411.0	1.5931134672109565e+18
14412.0	1.5928231576207357e+18
14413.0	1.592541805386137e+18
14414.0	1.592251858183782e+18
14415.0	1.5919667478527997e+18
14416.0	1.591680149382758e+18
14417.0	1.5913875933233147e+18
14418.0	1.5910889739780093e+18
14419.0	1.590819681206272e+18
14420.0	1.5905282794192893e+18
14421.0	1.5902479724052475e+18
14422.0	1.5899564313673725e+18
14423.0	1.5896583606370301e+18
14424.0	1.5821241004851156e+18
14425.0	1.5890903159799805e+18
14426.0	1.5888170990174203e+18
14427.0	1.5885304384716797e+18
14428.0	1.5882188318834688e+18
14429.0	1.5879544028266493e+18
14430.0	1.5876743726366715e+18
14431.0	1.5872066423095293e+18
14432.0	1.5870963841236984e+18
14433.0	1.5854471485587443e+18
14434.0	1.5865091580755965e+18
14435.0	1.5862103910907904e+18
14436.0	1.5859592395227133e+18
14437.0	1.5856740352393216e+18
14438.0	1.5853396904902653e+18
14439.0	1.5850929177755648e+18
14440.0	1.5848162547728381e+18
14441.0	1.5845177058918397e+18
14442.0	1.584223235552051e+18
14443.0	1.5838827033657341e+18
14444.0	1.5836612122378235e+18
14445.0	1.5833610745544704e+18
14446.0	1.5807362438791178e+18
14447.0	1.5827754574413821e+18
14448.0	1.5825060556177403e+18
14449.0	1.5822211013148672e+18
14450.0	1.581928874088857e+18
14451.0	1.5816453877923837e+18
14452.0	1.5813636513595392e+18
14453.0	1.5810578094227453e+18
14454.0	1.580794189027737e+18
14455.0	1.5804975762374653e+18
14456.0	1.5802193378541565e+18
14457.0	1.5799318367698941e+18
14458.0	1.5796516874616832e+18
14459.0	1.5793639028424701e+18
14460.0	1.579077772456755e+18
14461.0	1.5787567521726464e+18
14462.0	1.578377751507763e+18
14463.0	1.5782143246467072e+18
14464.0	1.5779414767828987e+18
14465.0	1.5776235032412157e+18
14466.0	1.5773711353249795e+18
14467.0	1.5770512760242176e+18
14468.0	1.5767996496609277e+18
14469.0	1.5764819277774843e+18
14470.0	1.5761949786636288e+18
14471.0	1.5759368125415421e+18
14472.0	1.5756597569519613e+18
14473.0	1.5753807484944384e+18
14474.0	1.5750989785071613e+18
14475.0	1.5748115311099901e+18
14476.0	1.5744433618157565e+18
14477.0	1.5742462530158592e+18
14478.0	1.5739591344521216e+18
14479.0	1.573673921780121e+18
14480.0	1.5733706081697787e+18
14481.0	1.5731106519187453e+18
14482.0	1.5728216274632704e+18
14483.0	1.5725280547045368e+18
14484.0	1.5722448099999744e+18
14485.0	1.5719212194463741e+18
14486.0	1.5712805478989821e+18
14487.0	1.5714049425670141e+18
14488.0	1.5711131314159616e+18
14489.0	1.570821501458841e+18
14490.0	1.5705463517609981e+18
14491.0	1.5702680915673085e+18
14492.0	1.5699861588410365e+18
14493.0	1.569693951747686e+18
14494.0	1.5693700625596413e+18
14495.0	1.5691072021725181e+18
14496.0	1.5686399986499581e+18
14497.0	1.568538223024537e+18
14498.0	1.5678941004038144e+18
14499.0	1.5675257885032448e+18
14500.0	1.5672416395067392e+18
14501.0	1.5669141063073787e+18
14502.0	1.5663402080796675e+18
14503.0	1.566367175776665e+18
14504.0	1.566099307390566e+18
14505.0	1.565787934005657e+18
14506.0	1.565464106893312e+18
14507.0	1.5649201157308416e+18
14508.0	1.564973067979981e+18
14509.0	1.564669975828889e+18
14510.0	1.5642201233031165e+18
14511.0	1.5639410024382464e+18
14512.0	1.563636702327603e+18
14513.0	1.5633739694473213e+18
14514.0	1.5630448994549757e+18
14515.0	1.562804810783129e+18
14516.0	1.5590090847813658e+18
14517.0	1.5622352226222075e+18
14518.0	1.561956420524441e+18
14519.0	1.5616734476107776e+18
14520.0	1.561388679535001e+18
14521.0	1.5611057955405821e+18
14522.0	1.5608232823226365e+18
14523.0	1.5604468787707901e+18
14524.0	1.5601698802237437e+18
14525.0	1.5599659850399744e+18
14526.0	1.559687082278912e+18
14527.0	1.5593762692530173e+18
14528.0	1.5589311764234237e+18
14529.0	1.5588253759438843e+18
14530.0	1.5585326588231677e+18
14531.0	1.5582708117798912e+18
14532.0	1.557871299290726e+18
14533.0	1.5577065839394813e+18
14534.0	1.557425349145395e+18
14535.0	1.5571282816925693e+18
14536.0	1.5568541117841405e+18
14537.0	1.5565566802657275e+18
14538.0	1.5562927075491837e+18
14539.0	1.5560098101329915e+18
14540.0	1.5557266577031163e+18
14541.0	1.5554147239591933e+18
14542.0	1.5551577842515965e+18
14543.0	1.554810254288486e+18
14544.0	1.5545928215691264e+18
14545.0	1.5543008963330043e+18
14546.0	1.54411357280665e+18
14547.0	1.544676594365228e+18
14548.0	1.5534401932754944e+18
14549.0	1.5530122987700221e+18
14550.0	1.5528705296171005e+18
14551.0	1.5525862514360315e+18
14552.0	1.5523013407539197e+18
14553.0	1.5520071606599683e+18
14554.0	1.551737319273267e+18
14555.0	1.5514539118297085e+18
14556.0	1.551168913906073e+18
14557.0	1.5508877260881915e+18
14558.0	1.5506026878992381e+18
14559.0	1.5476997614469071e+18
14560.0	1.550032113238016e+18
14561.0	1.5497450936598525e+18
14562.0	1.5494387433734141e+18
14563.0	1.5491880246575104e+18
14564.0	1.548890519319347e+18
14565.0	1.5486231609606144e+18
14566.0	1.5483400521515e+18
14567.0	1.5480560021405693e+18
14568.0	1.5477569465876477e+18
14569.0	1.547489390257766e+18
14570.0	1.5464753820336123e+18
14571.0	1.5469190253117437e+18
14572.0	1.5465852677652475e+18
14573.0	1.5462926227865597e+18
14574.0	1.5460386744565757e+18
14575.0	1.545787296396083e+18
14576.0	1.5455000318705667e+18
14577.0	1.545216030513561e+18
14578.0	1.5449374532304893e+18
14579.0	1.544658599123353e+18
14580.0	1.5443755809112064e+18
14581.0	1.5440867812704253e+18
14582.0	1.5438082627076093e+18
14583.0	1.5435257696223232e+18
14584.0	1.5432236941705213e+18
14585.0	1.5429589463465984e+18
14586.0	1.542671057708646e+18
14587.0	1.5423904117948413e+18
14588.0	1.5421088632668157e+18
14589.0	1.5418308798971904e+18
14590.0	1.5415527371440125e+18
14591.0	1.5412722556469248e+18
14592.0	1.5409856253001723e+18
14593.0	1.5405560430067704e+18
14594.0	1.5404383508365312e+18
14595.0	1.5401490210357243e+18
14596.0	1.5397781875195901e+18
14597.0	1.5394833967349757e+18
14598.0	1.5393120225067005e+18
14599.0	1.5390456170938363e+18
14600.0	1.5387645282615296e+18
14601.0	1.5384872931557368e+18
14602.0	1.5382009647988733e+18
14603.0	1.5379294171693053e+18
14604.0	1.5375880746434557e+18
14605.0	1.5373495160537085e+18
14606.0	1.5369887522226173e+18
14607.0	1.5367998189600765e+18
14608.0	1.5365305043779581e+18
14609.0	1.536248264628633e+18
14610.0	1.5359395017785341e+18
14611.0	1.5356886874324995e+18
14612.0	1.535418654785536e+18
14613.0	1.5351408274440192e+18
14614.0	1.534856463699148e+18
14615.0	1.5345665064304635e+18
14616.0	1.5342780255567872e+18
14617.0	1.5339981715275773e+18
14618.0	1.5336300273991683e+18
14619.0	1.5328287978946557e+18
14620.0	1.532368016690381e+18
14621.0	1.5323358967103488e+18
14622.0	1.5320532610187264e+18
14623.0	1.5317778294636541e+18
14624.0	1.5314182366822397e+18
14625.0	1.531214291166822e+18
14626.0	1.530934091526963e+18
14627.0	1.530651571598131e+18
14628.0	1.5303791599419387e+18
14629.0	1.5300991565955072e+18
14630.0	1.5298166987423741e+18
14631.0	1.529538421771468e+18
14632.0	1.5286504473493504e+18
14633.0	1.528904164153753e+18
14634.0	1.528693120198246e+18
14635.0	1.5283156999471096e+18
14636.0	1.527877700524441e+18
14637.0	1.527856767592038e+18
14638.0	1.5275686876938237e+18
14639.0	1.5272769704951805e+18
14640.0	1.5270080367558653e+18
14641.0	1.5243990186065905e+18
14642.0	1.5264441679478784e+18
14643.0	1.5261705047113728e+18
14644.0	1.5258749757292544e+18
14645.0	1.5255763614171136e+18
14646.0	1.5253140597112824e+18
14647.0	1.5250220103237632e+18
