# Flux units: erg / (cm m2 s)
# Wavelength units: Angstrom
wave	flux
14000.0	1.8682465522548733e+18
14001.0	1.8677705205612541e+18
14002.0	1.867335843027353e+18
14003.0	1.8668829873799165e+18
14004.0	1.866429724046131e+18
14005.0	1.8659757409697784e+18
14006.0	1.8655146829414403e+18
14007.0	1.8650582856237053e+18
14008.0	1.8645584369942525e+18
14009.0	1.8641544550547453e+18
14010.0	1.8636927276154877e+18
14011.0	1.8629763774021632e+18
14012.0	1.86279194043351e+18
14013.0	1.8623394471739387e+18
14014.0	1.8618823284359165e+18
14015.0	1.8614312847278077e+18
14016.0	1.860977996228198e+18
14017.0	1.8605237329723387e+18
14018.0	1.860067672876646e+18
14019.0	1.8596185098944507e+18
14020.0	1.859164434543411e+18
14021.0	1.8587124462780416e+18
14022.0	1.8582589413523456e+18
14023.0	1.8577851242512381e+18
14024.0	1.8573434908835837e+18
14025.0	1.8569033070673915e+18
14026.0	1.856451080565555e+18
14027.0	1.8559985755619325e+18
14028.0	1.855543842544025e+18
14029.0	1.8550891850235904e+18
14030.0	1.853892112207053e+18
14031.0	1.8541791871500283e+18
14032.0	1.8537392331816952e+18
14033.0	1.8532576918503421e+18
14034.0	1.8528382882938875e+18
14035.0	1.8523860315930621e+18
14036.0	1.851935647229542e+18
14037.0	1.8514795686789115e+18
14038.0	1.8510363498643453e+18
14039.0	1.8505843347554296e+18
14040.0	1.8501297409884155e+18
14041.0	1.8496847974760445e+18
14042.0	1.849232423334707e+18
14043.0	1.8487688185249787e+18
14044.0	1.8483334581583872e+18
14045.0	1.8478865735221243e+18
14046.0	1.8474365498687483e+18
14047.0	1.846983625434726e+18
14048.0	1.8465395358826496e+18
14049.0	1.846092850895257e+18
14050.0	1.8456438691069952e+18
14051.0	1.845189365936947e+18
14052.0	1.844744685826867e+18
14053.0	1.844295422181376e+18
14054.0	1.8438482573656061e+18
14055.0	1.8433959033569277e+18
14056.0	1.8429523640975355e+18
14057.0	1.8425033068118016e+18
14058.0	1.842056610080358e+18
14059.0	1.8416094536531963e+18
14060.0	1.8411621797855227e+18
14061.0	1.8407114816880635e+18
14062.0	1.8402680330256384e+18
14063.0	1.8398132949745661e+18
14064.0	1.83927598785495e+18
14065.0	1.8389241109151741e+18
14066.0	1.8384791690805243e+18
14067.0	1.8380093097246717e+18
14068.0	1.83758882907095e+18
14069.0	1.8371403388551165e+18
14070.0	1.836696477473177e+18
14071.0	1.8362492908470264e+18
14072.0	1.8358041627852792e+18
14073.0	1.83535783683031e+18
14074.0	1.834914310992691e+18
14075.0	1.834459269274009e+18
14076.0	1.8339957047295997e+18
14077.0	1.8333918004510715e+18
14078.0	1.83311895929815e+18
14079.0	1.8326837885140987e+18
14080.0	1.8322433110966272e+18
14081.0	1.8317973190082555e+18
14082.0	1.8313347510304765e+18
14083.0	1.8309070494629885e+18
14084.0	1.830464825537331e+18
14085.0	1.8297811875397632e+18
14086.0	1.829562415998566e+18
14087.0	1.829133434329497e+18
14088.0	1.8286823771996155e+18
14089.0	1.8282196414496765e+18
14090.0	1.8277989745688576e+18
14091.0	1.8273600607879163e+18
14092.0	1.82691625477079e+18
14093.0	1.8264739419258877e+18
14094.0	1.8260313371574264e+18
14095.0	1.825588888417075e+18
14096.0	1.8251072464224256e+18
14097.0	1.8246781053698045e+18
14098.0	1.8242342808977405e+18
14099.0	1.8238188787073016e+18
14100.0	1.8233683265716221e+18
14101.0	1.8229360767008765e+18
14102.0	1.8224926515265533e+18
14103.0	1.8220466158174205e+18
14104.0	1.8216099535388664e+18
14105.0	1.8211613207166976e+18
14106.0	1.8207289332727805e+18
14107.0	1.8202615217127416e+18
14108.0	1.8198380463259645e+18
14109.0	1.8194038301655037e+18
14110.0	1.818947530155622e+18
14111.0	1.818486713719193e+18
14112.0	1.8180765158211584e+18
14113.0	1.8176251801894907e+18
14114.0	1.8171878384336893e+18
14115.0	1.8167583551258621e+18
14116.0	1.8162321880776704e+18
14117.0	1.814708706135245e+18
14118.0	1.8154400803454976e+18
14119.0	1.8149808493559803e+18
14120.0	1.8145440646037504e+18
14121.0	1.8141111067344896e+18
14122.0	1.8136656817160187e+18
14123.0	1.8131987751501821e+18
14124.0	1.8127571367493632e+18
14125.0	1.812145860562124e+18
14126.0	1.8119194084114427e+18
14127.0	1.8114929550688253e+18
14128.0	1.8110539473354747e+18
14129.0	1.8106106781892605e+18
14130.0	1.8101664477085693e+18
14131.0	1.8097383501987835e+18
14132.0	1.809299654521651e+18
14133.0	1.8086063679471603e+18
14134.0	1.8084275731562493e+18
14135.0	1.8079794117738488e+18
14136.0	1.8074494144872443e+18
14137.0	1.8071150479278077e+18
14138.0	1.8066610145198077e+18
14139.0	1.806242560553779e+18
14140.0	1.805775598623129e+18
14141.0	1.8053683770032125e+18
14142.0	1.8048055248945152e+18
14143.0	1.8043994944569341e+18
14144.0	1.8040609352712187e+18
14145.0	1.8036244608974843e+18
14146.0	1.8031868775497728e+18
14147.0	1.8027517285761021e+18
14148.0	1.80230776988631e+18
14149.0	1.8018674065539064e+18
14150.0	1.8014433221541885e+18
14151.0	1.8009905587814397e+18
14152.0	1.8005731080929275e+18
14153.0	1.8001390563491837e+18
14154.0	1.7996912439328763e+18
14155.0	1.7984162292039685e+18
14156.0	1.798803823158886e+18
14157.0	1.7983981299433464e+18
14158.0	1.797952924706406e+18
14159.0	1.7975305331277821e+18
14160.0	1.7970973605101563e+18
14161.0	1.7966311535542272e+18
14162.0	1.7961783465607165e+18
14163.0	1.7957960256847872e+18
14164.0	1.7953154825977853e+18
14165.0	1.7946188070256637e+18
14166.0	1.7944928789200893e+18
14167.0	1.7940561394663421e+18
14168.0	1.79361775920087e+18
14169.0	1.793197268480819e+18
14170.0	1.7927571484180475e+18
14171.0	1.7923224406851581e+18
14172.0	1.7918997437612027e+18
14173.0	1.7913298401886203e+18
14174.0	1.7910303299731453e+18
14175.0	1.7906029454950397e+18
14176.0	1.7901566027628544e+18
14177.0	1.789734675913113e+18
14178.0	1.7893035517935616e+18
14179.0	1.7888459481939965e+18
14180.0	1.7884445398794237e+18
14181.0	1.7880127513821184e+18
14182.0	1.7875815635091453e+18
14183.0	1.7871506692374525e+18
14184.0	1.7867171694641152e+18
14185.0	1.786288249870745e+18
14186.0	1.7856229141381117e+18
14187.0	1.7854162523914237e+18
14188.0	1.7849933474299904e+18
14189.0	1.7845591379804155e+18
14190.0	1.7841323105058813e+18
14191.0	1.7837014279782397e+18
14192.0	1.7832694901637115e+18
14193.0	1.7828053283504125e+18
14194.0	1.7824118724362237e+18
14195.0	1.7819850684497915e+18
14196.0	1.7815555801088e+18
14197.0	1.7811254911434747e+18
14198.0	1.7806947847766016e+18
14199.0	1.7802592516046848e+18
14200.0	1.7797041304371197e+18
14201.0	1.7794087826489341e+18
14202.0	1.7789809065983995e+18
14203.0	1.7785200683515904e+18
14204.0	1.7781210054918141e+18
14205.0	1.7776953306120187e+18
14206.0	1.777208539689779e+18
14207.0	1.7768406673522685e+18
14208.0	1.776412829889331e+18
14209.0	1.7759154407997437e+18
14210.0	1.7755179885527035e+18
14211.0	1.7751264603406328e+18
14212.0	1.7747022585004032e+18
14213.0	1.7742676413644797e+18
14214.0	1.7738480465477627e+18
14215.0	1.7734102148972541e+18
14216.0	1.7729937087660032e+18
14217.0	1.7725676412993533e+18
14218.0	1.7721352672772093e+18
14219.0	1.7717126726942715e+18
14220.0	1.771287281349427e+18
14221.0	1.7708566806790144e+18
14222.0	1.7703903713820672e+18
14223.0	1.7700046933852155e+18
14224.0	1.7695844476125181e+18
14225.0	1.7687902913822717e+18
14226.0	1.7687332253597693e+18
14227.0	1.7683071897698304e+18
14228.0	1.7670389949792256e+18
14229.0	1.7673552421453816e+18
14230.0	1.7670317757431805e+18
14231.0	1.7665660603596797e+18
14232.0	1.7661825130692605e+18
14233.0	1.7657533720166397e+18
14234.0	1.765333247039897e+18
14235.0	1.7649071644737533e+18
14236.0	1.7644808520597496e+18
14237.0	1.7640557811597307e+18
14238.0	1.7636316078407677e+18
14239.0	1.7632024097456123e+18
14240.0	1.7621435191132163e+18
14241.0	1.762360198535577e+18
14242.0	1.761938387448627e+18
14243.0	1.7614406812696576e+18
14244.0	1.7610923560665088e+18
14245.0	1.760658779117977e+18
14246.0	1.76022640174039e+18
14247.0	1.759819403257446e+18
14248.0	1.7593932737150976e+18
14249.0	1.7589752274354176e+18
14250.0	1.758553956574822e+18
14251.0	1.7581263875473405e+18
14252.0	1.7577043617120253e+18
14253.0	1.7572824600281085e+18
14254.0	1.7568593956831227e+18
14255.0	1.7564250083950595e+18
14256.0	1.7557973828108288e+18
14257.0	1.755591418996326e+18
14258.0	1.7551738810662912e+18
14259.0	1.7547342609645563e+18
14260.0	1.7543240831991803e+18
14261.0	1.753898569380659e+18
14262.0	1.7534902287204344e+18
14263.0	1.7527403777622013e+18
14264.0	1.7526018684223485e+18
14265.0	1.7522054597181435e+18
14266.0	1.7518065847631864e+18
14267.0	1.751385476641587e+18
14268.0	1.7509650748407805e+18
14269.0	1.7505414618808317e+18
14270.0	1.7501266435375096e+18
14271.0	1.7497008528949248e+18
14272.0	1.7492848651796472e+18
14273.0	1.7488670588141563e+18
14274.0	1.7479722174775293e+18
14275.0	1.74798634221568e+18
14276.0	1.7475752198930432e+18
14277.0	1.7471714694791165e+18
14278.0	1.7467707825848315e+18
14279.0	1.7463512984977405e+18
14280.0	1.7459292290416637e+18
14281.0	1.745514380499353e+18
14282.0	1.7450959802204157e+18
14283.0	1.7446775698751485e+18
14284.0	1.7442592719372285e+18
14285.0	1.7438410713071613e+18
14286.0	1.7434206409850877e+18
14287.0	1.743003277538099e+18
14288.0	1.7425862647349243e+18
14289.0	1.7417601596522478e+18
14290.0	1.7417447447461888e+18
14291.0	1.7413332197703675e+18
14292.0	1.74091419034583e+18
14293.0	1.7404967681785853e+18
14294.0	1.7400109956333565e+18
14295.0	1.739653412762419e+18
14296.0	1.738914461961421e+18
14297.0	1.7388304198533115e+18
14298.0	1.738233021779148e+18
14299.0	1.7379835445772285e+18
14300.0	1.7375759974793213e+18
14301.0	1.737151980188467e+18
14302.0	1.7367459967270912e+18
14303.0	1.7363112134967293e+18
14304.0	1.735909009942118e+18
14305.0	1.7354968558206976e+18
14306.0	1.7350090096115712e+18
14307.0	1.7346506767990781e+18
14308.0	1.7342524645441533e+18
14309.0	1.7338325509603323e+18
14310.0	1.7331006264573947e+18
14311.0	1.7327489340669947e+18
14312.0	1.7325521138352125e+18
14313.0	1.7321463736434688e+18
14314.0	1.7317584575660032e+18
14315.0	1.7313485583024125e+18
14316.0	1.7309117165076477e+18
14317.0	1.730425178921369e+18
14318.0	1.7301077690941437e+18
14319.0	1.7296943080275963e+18
14320.0	1.7292808805154816e+18
14321.0	1.7288654296711165e+18
14322.0	1.7284309148762104e+18
14323.0	1.728033570003353e+18
14324.0	1.7276199931740157e+18
14325.0	1.7272083339804667e+18
14326.0	1.7268004647600125e+18
14327.0	1.7263818329554941e+18
14328.0	1.7259705697042424e+18
14329.0	1.725562034428313e+18
14330.0	1.7251487495225341e+18
14331.0	1.7247306814324733e+18
14332.0	1.7243230236049405e+18
14333.0	1.7239118056521723e+18
14334.0	1.7235000424398843e+18
14335.0	1.72306688156631e+18
14336.0	1.7226245754322941e+18
14337.0	1.722262279841382e+18
14338.0	1.7218503639564285e+18
14339.0	1.72143261295575e+18
14340.0	1.7210296225497085e+18
14341.0	1.7206137271091197e+18
14342.0	1.7202045677207547e+18
14343.0	1.7197810352914432e+18
14344.0	1.7193751105503227e+18
14345.0	1.7189740864339965e+18
14346.0	1.718563197314662e+18
14347.0	1.7181330496290816e+18
14348.0	1.7177395165396987e+18
14349.0	1.7173331119702016e+18
14350.0	1.7168939985403896e+18
14351.0	1.7164809468379133e+18
14352.0	1.7160979649396733e+18
14353.0	1.7156919798005757e+18
14354.0	1.7152793861160957e+18
14355.0	1.714866594460467e+18
14356.0	1.714457302532096e+18
14357.0	1.7140523324145661e+18
14358.0	1.7136430589411328e+18
14359.0	1.713225710593638e+18
14360.0	1.7128229047369728e+18
14361.0	1.7124155975532541e+18
14362.0	1.7120067820978176e+18
14363.0	1.7115983424520187e+18
14364.0	1.711078990308966e+18
14365.0	1.7107689423241208e+18
14366.0	1.7103559073988605e+18
14367.0	1.7099644949495803e+18
14368.0	1.7095563505827835e+18
14369.0	1.7091493202231293e+18
14370.0	1.7087413922824187e+18
14371.0	1.7083338602840061e+18
14372.0	1.7079209025339387e+18
14373.0	1.707518457387417e+18
14374.0	1.7071094120841213e+18
14375.0	1.7067032004526075e+18
14376.0	1.7062963462537213e+18
14377.0	1.7058900054376443e+18
14378.0	1.705482057364275e+18
14379.0	1.705076669494067e+18
14380.0	1.7046695720255485e+18
14381.0	1.7042571914117115e+18
14382.0	1.7038554072875003e+18
14383.0	1.703427668810137e+18
14384.0	1.7030320939335675e+18
14385.0	1.7026386212421632e+18
14386.0	1.7022234740654077e+18
14387.0	1.7018259865862141e+18
14388.0	1.7014188152979453e+18
14389.0	1.7010149977751552e+18
14390.0	1.7006090176692221e+18
14391.0	1.7002011115388925e+18
14392.0	1.6997788592111616e+18
14393.0	1.6993945032589307e+18
14394.0	1.6989706856169467e+18
14395.0	1.6984699847049213e+18
14396.0	1.698174447334195e+18
14397.0	1.697775317365555e+18
14398.0	1.69735438204928e+18
14399.0	1.696963736318771e+18
14400.0	1.6964748348227581e+18
14401.0	1.696154587968307e+18
14402.0	1.6957514264346621e+18
14403.0	1.6908631110844332e+18
14404.0	1.6835215909453806e+18
14405.0	1.6939699192987615e+18
14406.0	1.6941380102258685e+18
14407.0	1.6868245432696865e+18
14408.0	1.6932907306188797e+18
14409.0	1.6929176271454205e+18
14410.0	1.692513081491456e+18
14411.0	1.6921172079804413e+18
14412.0	1.691717213985177e+18
14413.0	1.6913155624009725e+18
14414.0	1.6909132330172413e+18
14415.0	1.6905116116320253e+18
14416.0	1.6901014137339904e+18
14417.0	1.6896694390095872e+18
14418.0	1.6892602494222333e+18
14419.0	1.6889024484474875e+18
14420.0	1.6884981661958141e+18
14421.0	1.688098907042611e+18
14422.0	1.687694623113216e+18
14423.0	1.6872914884231165e+18
14424.0	1.6608551845756754e+18
14425.0	1.6864903511932925e+18
14426.0	1.686090909168435e+18
14427.0	1.685690921884057e+18
14428.0	1.685265931514675e+18
14429.0	1.6848880482123776e+18
14430.0	1.68448855417815e+18
14431.0	1.6839189442068477e+18
14432.0	1.6836632393023488e+18
14433.0	1.6781043554058204e+18
14434.0	1.6828771478798333e+18
14435.0	1.6824540751462397e+18
14436.0	1.68208421135319e+18
14437.0	1.681683898590822e+18
14438.0	1.6811198284562432e+18
14439.0	1.6808477556998144e+18
14440.0	1.680484632992153e+18
14441.0	1.6800816476192763e+18
14442.0	1.679681266070323e+18
14443.0	1.6792643203760123e+18
14444.0	1.678885510971392e+18
14445.0	1.6784879630942205e+18
14446.0	1.67269482899702e+18
14447.0	1.6776835157196797e+18
14448.0	1.677291886844313e+18
14449.0	1.6768937685417981e+18
14450.0	1.67649211360215e+18
14451.0	1.6760949348237307e+18
14452.0	1.675695155576832e+18
14453.0	1.675191570661376e+18
14454.0	1.6748996068376576e+18
14455.0	1.674500101059379e+18
14456.0	1.6740823936794624e+18
14457.0	1.6736697479856125e+18
14458.0	1.6732460326846461e+18
14459.0	1.6728767560941565e+18
14460.0	1.672514264209817e+18
14461.0	1.6720994693545981e+18
14462.0	1.671502952084275e+18
14463.0	1.671319199626035e+18
14464.0	1.6709266580701184e+18
14465.0	1.6705222885769213e+18
14466.0	1.6701299617693693e+18
14467.0	1.669660174555545e+18
14468.0	1.6693331396395003e+18
14469.0	1.6689293456048123e+18
14470.0	1.6685339804434432e+18
14471.0	1.6681413449351165e+18
14472.0	1.6677494174253053e+18
14473.0	1.6673601054834685e+18
14474.0	1.6669652486717437e+18
14475.0	1.6665647278718976e+18
14476.0	1.6658316088311805e+18
14477.0	1.6657779569721344e+18
14478.0	1.6653810483068925e+18
14479.0	1.6649803211472893e+18
14480.0	1.6645852244213757e+18
14481.0	1.6641989726437376e+18
14482.0	1.6638023189921792e+18
14483.0	1.6634027259723776e+18
14484.0	1.663012571814297e+18
14485.0	1.6625986896396288e+18
14486.0	1.662083327118541e+18
14487.0	1.661830071687577e+18
14488.0	1.6613810479562747e+18
14489.0	1.6610243408560123e+18
14490.0	1.6606353040605181e+18
14491.0	1.6602550870474747e+18
14492.0	1.659858631367065e+18
14493.0	1.6594558355767296e+18
14494.0	1.6590631379927037e+18
14495.0	1.658681706309222e+18
14496.0	1.658223419876966e+18
14497.0	1.657894052927897e+18
14498.0	1.6575003805876221e+18
14499.0	1.6571095905730557e+18
14500.0	1.6567167336054781e+18
14501.0	1.656161966437171e+18
14502.0	1.6556520095350784e+18
14503.0	1.6555151477178363e+18
14504.0	1.65514344178647e+18
14505.0	1.654602438646169e+18
14506.0	1.6540074615242747e+18
14507.0	1.6538537839034363e+18
14508.0	1.65357816947671e+18
14509.0	1.6531860137967608e+18
14510.0	1.6527936098140157e+18
14511.0	1.6524032694288384e+18
14512.0	1.6520029918986235e+18
14513.0	1.6516199479246843e+18
14514.0	1.6511566534934523e+18
14515.0	1.6508307862716413e+18
14516.0	1.649458745547162e+18
14517.0	1.6500556335939581e+18
14518.0	1.6496643822059515e+18
14519.0	1.649273270068838e+18
14520.0	1.6488831142330365e+18
14521.0	1.6484867776708605e+18
14522.0	1.6480978012733437e+18
14523.0	1.6473334279569403e+18
14524.0	1.6469361418043387e+18
14525.0	1.64692667442135e+18
14526.0	1.646537333958246e+18
14527.0	1.646103706678067e+18
14528.0	1.6456462121304061e+18
14529.0	1.645364779365171e+18
14530.0	1.6449704594243581e+18
14531.0	1.6445895176355835e+18
14532.0	1.643515138277376e+18
14533.0	1.6438113937129472e+18
14534.0	1.64342304646103e+18
14535.0	1.6430269129031672e+18
14536.0	1.6426424177000448e+18
14537.0	1.642248134669107e+18
14538.0	1.641864540402483e+18
14539.0	1.641478092331417e+18
14540.0	1.641090146054963e+18
14541.0	1.640689551435366e+18
14542.0	1.6403113242001405e+18
14543.0	1.6396914295570424e+18
14544.0	1.6395360826032128e+18
14545.0	1.639138628678451e+18
14546.0	1.6132508575858542e+18
14547.0	1.6156414045060938e+18
14548.0	1.6379775782223872e+18
14549.0	1.6375400905048061e+18
14550.0	1.6372060511010813e+18
14551.0	1.636823364481843e+18
14552.0	1.6364269540999168e+18
14553.0	1.6360360986542077e+18
14554.0	1.6356614718095357e+18
14555.0	1.6352733074292733e+18
14556.0	1.6348779858886656e+18
14557.0	1.6345011293519872e+18
14558.0	1.6341141762867197e+18
14559.0	1.63287041080033e+18
14560.0	1.6332227122036728e+18
14561.0	1.632952130941747e+18
14562.0	1.6325522527092733e+18
14563.0	1.6321825852096507e+18
14564.0	1.6317766470467581e+18
14565.0	1.6314116402577405e+18
14566.0	1.6310259102515197e+18
14567.0	1.630638811224473e+18
14568.0	1.630166089675571e+18
14569.0	1.6298675693158397e+18
14570.0	1.6292424049491968e+18
14571.0	1.629096295530496e+18
14572.0	1.628669125800755e+18
14573.0	1.6282989818281981e+18
14574.0	1.627885898249011e+18
14575.0	1.6275518722670587e+18
14576.0	1.6271681102282747e+18
14577.0	1.626783458997043e+18
14578.0	1.626402020602675e+18
14579.0	1.6260175354658813e+18
14580.0	1.6256345300795387e+18
14581.0	1.6252218072104957e+18
14582.0	1.6248643182919675e+18
14583.0	1.6244813095501821e+18
14584.0	1.6240889944866813e+18
14585.0	1.6237128895692795e+18
14586.0	1.6233276192587776e+18
14587.0	1.6229378140667904e+18
14588.0	1.6225602361098235e+18
14589.0	1.6221936354852861e+18
14590.0	1.6218268368895995e+18
14591.0	1.6214545672437757e+18
14592.0	1.621088075671142e+18
14593.0	1.6206667226021885e+18
14594.0	1.6203563826937853e+18
14595.0	1.619987201733427e+18
14596.0	1.6195150539653115e+18
14597.0	1.619163794427084e+18
14598.0	1.6188843128520704e+18
14599.0	1.61852499689472e+18
14600.0	1.6181549435191293e+18
14601.0	1.6177906262736893e+18
14602.0	1.6173939592003581e+18
14603.0	1.6170489525305341e+18
14604.0	1.616663739262566e+18
14605.0	1.616296304810393e+18
14606.0	1.6158973610688507e+18
14607.0	1.6155938830417915e+18
14608.0	1.615222477422592e+18
14609.0	1.614813485806387e+18
14610.0	1.6144386156920832e+18
14611.0	1.614128299271782e+18
14612.0	1.613765983548211e+18
14613.0	1.6134019481599997e+18
14614.0	1.6130345120301053e+18
14615.0	1.6126432556089341e+18
14616.0	1.6123058238521341e+18
14617.0	1.6119404915851261e+18
14618.0	1.6115369525641213e+18
14619.0	1.6111628458131453e+18
14620.0	1.6105915614756861e+18
14621.0	1.6104778236952576e+18
14622.0	1.6101113757433853e+18
14623.0	1.6097480349319165e+18
14624.0	1.6093551494430715e+18
14625.0	1.609017229469286e+18
14626.0	1.608641919791923e+18
14627.0	1.6082689471807485e+18
14628.0	1.6079257759383547e+18
14629.0	1.607561440237977e+18
14630.0	1.6071957204172795e+18
14631.0	1.6068269471432701e+18
14632.0	1.604171493015553e+18
14633.0	1.6058671209381875e+18
14634.0	1.6057326263861243e+18
14635.0	1.6046377251373e+18
14636.0	1.6022796572295163e+18
14637.0	1.604647152254976e+18
14638.0	1.6042712201428987e+18
14639.0	1.6039124041465853e+18
14640.0	1.6035533918568448e+18
14641.0	1.594618599912236e+18
14642.0	1.6028259233824763e+18
14643.0	1.6024643274014715e+18
14644.0	1.6020941012205565e+18
14645.0	1.6017252256055293e+18
14646.0	1.6013413276712957e+18
14647.0	1.6009823220924416e+18
14648.0	1.6006453718417405e+18
