# Flux units: erg / (cm m2 s)
# Wavelength units: Angstrom
wave	flux
14000.0	1.1492524367544319e+18
14001.0	1.1489747528581119e+18
14002.0	1.1489536865468413e+18
14003.0	1.1488027285127164e+18
14004.0	1.1486515213369341e+18
14005.0	1.1485003191943165e+18
14006.0	1.1483470198996991e+18
14007.0	1.1481951760285692e+18
14008.0	1.1480028999057405e+18
14009.0	1.1478951155204095e+18
14010.0	1.1477422826323967e+18
14011.0	1.1474218789109759e+18
14012.0	1.1474418261819391e+18
14013.0	1.147291950278246e+18
14014.0	1.1471411801489405e+18
14015.0	1.1469899746508797e+18
14016.0	1.1468395962695677e+18
14017.0	1.146688859694694e+18
14018.0	1.1465134975221757e+18
14019.0	1.1463874259714047e+18
14020.0	1.1462366591975423e+18
14021.0	1.1460859268169725e+18
14022.0	1.1459353722748925e+18
14023.0	1.1457848538038268e+18
14024.0	1.1456329679896575e+18
14025.0	1.1454839603068925e+18
14026.0	1.1453332455424e+18
14027.0	1.1451831204970493e+18
14028.0	1.1450327286939647e+18
14029.0	1.1448822253223933e+18
14030.0	1.1446751080742911e+18
14031.0	1.1445775200419837e+18
14032.0	1.1444313477087231e+18
14033.0	1.1442747223310333e+18
14034.0	1.1441311387222013e+18
14035.0	1.1439811478945788e+18
14036.0	1.1438219967070205e+18
14037.0	1.1436784223256573e+18
14038.0	1.1435311234023421e+18
14039.0	1.1433811300581373e+18
14040.0	1.1432311761403901e+18
14041.0	1.1430812272558077e+18
14042.0	1.1429295134081021e+18
14043.0	1.1427720701411328e+18
14044.0	1.1426141839556605e+18
14045.0	1.1424667441037312e+18
14046.0	1.1423321706987519e+18
14047.0	1.142182286406451e+18
14048.0	1.1420327275921405e+18
14049.0	1.1418831427731452e+18
14050.0	1.1417335327883261e+18
14051.0	1.1415823314845695e+18
14052.0	1.141434370700083e+18
14053.0	1.1412849293262844e+18
14054.0	1.1411354644643839e+18
14055.0	1.1409860323180541e+18
14056.0	1.1408366228209661e+18
14057.0	1.1406872695275516e+18
14058.0	1.1405378902294524e+18
14059.0	1.1403660646940668e+18
14060.0	1.140239375741747e+18
14061.0	1.1400882977505277e+18
14062.0	1.1399409149411328e+18
14063.0	1.1397890559705085e+18
14064.0	1.1396241149657085e+18
14065.0	1.1394914222866431e+18
14066.0	1.1393445369217021e+18
14067.0	1.1391955334332413e+18
14068.0	1.1390465467219967e+18
14069.0	1.1388974174044159e+18
14070.0	1.138748665574195e+18
14071.0	1.1385990203572221e+18
14072.0	1.1384509521985532e+18
14073.0	1.1383021450035197e+18
14074.0	1.1381533789126655e+18
14075.0	1.1380019293061116e+18
14076.0	1.1378558710579197e+18
14077.0	1.137694574064435e+18
14078.0	1.137557786066944e+18
14079.0	1.1374089662889983e+18
14080.0	1.1372537032212477e+18
14081.0	1.1371115507089405e+18
14082.0	1.1369643608375293e+18
14083.0	1.1368155830026235e+18
14084.0	1.1366671742664701e+18
14085.0	1.136471313691443e+18
14086.0	1.1363614875189247e+18
14087.0	1.1362066774360061e+18
14088.0	1.1360721367465983e+18
14089.0	1.1359258595557375e+18
14090.0	1.1357775087009788e+18
14091.0	1.1356294556418045e+18
14092.0	1.1354813061136384e+18
14093.0	1.1353331834290176e+18
14094.0	1.1351850901045245e+18
14095.0	1.1350370110406652e+18
14096.0	1.1348870588006397e+18
14097.0	1.1347385569509373e+18
14098.0	1.1345922713714685e+18
14099.0	1.1344450831777791e+18
14100.0	1.134293982537318e+18
14101.0	1.1341493864235005e+18
14102.0	1.1340015288188925e+18
14103.0	1.1338488276320255e+18
14104.0	1.133706038424371e+18
14105.0	1.1335583175540733e+18
14106.0	1.1334106252050431e+18
14107.0	1.1332436080197631e+18
14108.0	1.1331153814355965e+18
14109.0	1.1329669097848831e+18
14110.0	1.132820154443366e+18
14111.0	1.1326721559101437e+18
14112.0	1.1325248133660672e+18
14113.0	1.1323777510014975e+18
14114.0	1.1322283121442815e+18
14115.0	1.1320824703221757e+18
14116.0	1.1319342939504637e+18
14117.0	1.1316858544193533e+18
14118.0	1.1316404594671613e+18
14119.0	1.1314926563885055e+18
14120.0	1.1313456678436861e+18
14121.0	1.131199170032435e+18
14122.0	1.131050188354355e+18
14123.0	1.1309045050769405e+18
14124.0	1.1307566399225852e+18
14125.0	1.1305193874391039e+18
14126.0	1.1304634127745023e+18
14127.0	1.1303170198208511e+18
14128.0	1.1301698609872893e+18
14129.0	1.1300213599764477e+18
14130.0	1.1298709522350077e+18
14131.0	1.1297256632221695e+18
14132.0	1.1295818220830719e+18
14133.0	1.1293285121261564e+18
14134.0	1.1292698942111743e+18
14135.0	1.1291401878765565e+18
14136.0	1.1289956764876797e+18
14137.0	1.1288490788519937e+18
14138.0	1.1287019468619775e+18
14139.0	1.1285560177983485e+18
14140.0	1.1284095174705151e+18
14141.0	1.1282623754141693e+18
14142.0	1.1281116530999293e+18
14143.0	1.1279701062451197e+18
14144.0	1.1278237845946364e+18
14145.0	1.1276765972398079e+18
14146.0	1.1275308049104895e+18
14147.0	1.1273846686482431e+18
14148.0	1.1272384870875136e+18
14149.0	1.1270923566972925e+18
14150.0	1.1269461482930175e+18
14151.0	1.1267994550272e+18
14152.0	1.126653861507891e+18
14153.0	1.1265077336342525e+18
14154.0	1.1263577511952383e+18
14155.0	1.1262096494821375e+18
14156.0	1.1260692015349759e+18
14157.0	1.1259236692525055e+18
14158.0	1.12577703051264e+18
14159.0	1.1256318035755005e+18
14160.0	1.1254845172350973e+18
14161.0	1.1253286434766847e+18
14162.0	1.12517418319872e+18
14163.0	1.1250329374949373e+18
14164.0	1.1248989504536575e+18
14165.0	1.1247549641916413e+18
14166.0	1.124611415814963e+18
14167.0	1.1244636043476988e+18
14168.0	1.1243200140279805e+18
14169.0	1.1241746780389373e+18
14170.0	1.1240284008480765e+18
14171.0	1.1238827888738303e+18
14172.0	1.1237381432672256e+18
14173.0	1.1235894434463743e+18
14174.0	1.1234463170166783e+18
14175.0	1.1233019373289472e+18
14176.0	1.1231566172782591e+18
14177.0	1.1230113198768124e+18
14178.0	1.1228660300251136e+18
14179.0	1.1227200036536316e+18
14180.0	1.1225755954446333e+18
14181.0	1.1224304213557248e+18
14182.0	1.1222850862055421e+18
14183.0	1.1221401545474045e+18
14184.0	1.1219941072044031e+18
14185.0	1.1218498969665536e+18
14186.0	1.1216756404125693e+18
14187.0	1.121554976158515e+18
14188.0	1.1214111778013184e+18
14189.0	1.1212687946022912e+18
14190.0	1.1211251371737087e+18
14191.0	1.1209802617192447e+18
14192.0	1.1208340667367421e+18
14193.0	1.1206884606345212e+18
14194.0	1.1205458274549759e+18
14195.0	1.1204013773029373e+18
14196.0	1.1202566486491133e+18
14197.0	1.1201119921373183e+18
14198.0	1.1199660798509055e+18
14199.0	1.1198224467492861e+18
14200.0	1.1196669764829183e+18
14201.0	1.1195330632613885e+18
14202.0	1.1193892321886205e+18
14203.0	1.1192439138156541e+18
14204.0	1.1190997975302143e+18
14205.0	1.1189552710418431e+18
14206.0	1.1187880206532607e+18
14207.0	1.1186668648267775e+18
14208.0	1.118522812294758e+18
14209.0	1.1183528557412348e+18
14210.0	1.1182160065069052e+18
14211.0	1.118089990320947e+18
14212.0	1.1179459335946239e+18
14213.0	1.117802021152358e+18
14214.0	1.1176576171376637e+18
14215.0	1.1175101412147197e+18
14216.0	1.1173698509733887e+18
14217.0	1.1172258512895996e+18
14218.0	1.1170800488939519e+18
14219.0	1.1169379139977213e+18
14220.0	1.1167940292378621e+18
14221.0	1.1166500622696447e+18
14222.0	1.1165062362300412e+18
14223.0	1.1163624202567677e+18
14224.0	1.1162185615015936e+18
14225.0	1.1160328729526268e+18
14226.0	1.115930497541734e+18
14227.0	1.1157783617470461e+18
14228.0	1.1154785193426941e+18
14229.0	1.1154749197910012e+18
14230.0	1.1153565070393343e+18
14231.0	1.1152130987524095e+18
14232.0	1.1150696124514303e+18
14233.0	1.1149261295058941e+18
14234.0	1.114782659982131e+18
14235.0	1.1146386309382143e+18
14236.0	1.1144957939154943e+18
14237.0	1.1143520366624767e+18
14238.0	1.114208693806694e+18
14239.0	1.1140630247899132e+18
14240.0	1.1134405598773248e+18
14241.0	1.1137760203112445e+18
14242.0	1.1136350724030461e+18
14243.0	1.1134625455800316e+18
14244.0	1.113349587101286e+18
14245.0	1.1132062970937343e+18
14246.0	1.1130629257166847e+18
14247.0	1.1129205920104447e+18
14248.0	1.1127718888341504e+18
14249.0	1.1126341965447165e+18
14250.0	1.1124912538255357e+18
14251.0	1.1123487917735933e+18
14252.0	1.1122055596474365e+18
14253.0	1.1120606221172733e+18
14254.0	1.1119187262963711e+18
14255.0	1.1117680257925116e+18
14256.0	1.1115979517984765e+18
14257.0	1.1114861324926973e+18
14258.0	1.1113490961924092e+18
14259.0	1.1112041209135101e+18
14260.0	1.111059124663091e+18
14261.0	1.1109190223265791e+18
14262.0	1.1107945077014528e+18
14263.0	1.1105978627915775e+18
14264.0	1.110495917716275e+18
14265.0	1.110367107284992e+18
14266.0	1.110224852431667e+18
14267.0	1.1100825195642876e+18
14268.0	1.1099401531424767e+18
14269.0	1.1097971902906367e+18
14270.0	1.109655458886451e+18
14271.0	1.1095131394408445e+18
14272.0	1.1093707738578941e+18
14273.0	1.1092276809826303e+18
14274.0	1.109003122979635e+18
14275.0	1.1089350318096383e+18
14276.0	1.10880183329751e+18
14277.0	1.1086593444020223e+18
14278.0	1.1085179477032959e+18
14279.0	1.1083757423427583e+18
14280.0	1.1082325362212861e+18
14281.0	1.1080919959994367e+18
14282.0	1.1079501261832191e+18
14283.0	1.1078082060353533e+18
14284.0	1.1076663135698941e+18
14285.0	1.1075244118769664e+18
14286.0	1.1073824304922623e+18
14287.0	1.1072405875195903e+18
14288.0	1.1070975298764797e+18
14289.0	1.1066494809014262e+18
14290.0	1.1068142096744445e+18
14291.0	1.1066735352348672e+18
14292.0	1.1065321980952575e+18
14293.0	1.1063899566637055e+18
14294.0	1.1062213448040445e+18
14295.0	1.1061039688843261e+18
14296.0	1.1057211941847041e+18
14297.0	1.1058208583974911e+18
14298.0	1.1056397466730493e+18
14299.0	1.1055402980474879e+18
14300.0	1.105400006128435e+18
14301.0	1.1052587126095868e+18
14302.0	1.1051165617750015e+18
14303.0	1.1049700379590655e+18
14304.0	1.104831338197811e+18
14305.0	1.1046932097007613e+18
14306.0	1.1045518482341887e+18
14307.0	1.1044104674738173e+18
14308.0	1.1042699180244992e+18
14309.0	1.1041285104205823e+18
14310.0	1.1039849427501055e+18
14311.0	1.103836231185203e+18
14312.0	1.1036971841355775e+18
14313.0	1.1034506152640512e+18
14314.0	1.1034229940944896e+18
14315.0	1.1032822248636412e+18
14316.0	1.103131244180275e+18
14317.0	1.1029998274084864e+18
14318.0	1.102859911299072e+18
14319.0	1.1027192259543037e+18
14320.0	1.1025783686430716e+18
14321.0	1.1024376900091903e+18
14322.0	1.1022895111208957e+18
14323.0	1.1021527197679612e+18
14324.0	1.1020156608184319e+18
14325.0	1.1018750677483519e+18
14326.0	1.1017344839057405e+18
14327.0	1.1015939042574333e+18
14328.0	1.1014518272425984e+18
14329.0	1.1013128926003196e+18
14330.0	1.101172432909107e+18
14331.0	1.1010319153364991e+18
14332.0	1.1008912996171775e+18
14333.0	1.1007508231487485e+18
14334.0	1.1006104641208316e+18
14335.0	1.1004666313703421e+18
14336.0	1.1003261305749501e+18
14337.0	1.1001894650511357e+18
14338.0	1.1000489449619455e+18
14339.0	1.0999086647869437e+18
14340.0	1.0997689458098175e+18
14341.0	1.0996286421467133e+18
14342.0	1.0994837650145279e+18
14343.0	1.0993486237007868e+18
14344.0	1.0991970130329597e+18
14345.0	1.0990621074391037e+18
14346.0	1.0989279383650303e+18
14347.0	1.0987856751230973e+18
14348.0	1.0986485599698941e+18
14349.0	1.0985087730450431e+18
14350.0	1.0983659964203008e+18
14351.0	1.0982260828274687e+18
14352.0	1.0980861910450175e+18
14353.0	1.097947369648947e+18
14354.0	1.0978090138206204e+18
14355.0	1.0976687193849855e+18
14356.0	1.0975239185891327e+18
14357.0	1.0973848614731775e+18
14358.0	1.0972506873659388e+18
14359.0	1.0971109574836221e+18
14360.0	1.0969711898525695e+18
14361.0	1.0968318492016637e+18
14362.0	1.0966924347310077e+18
14363.0	1.0965528625545215e+18
14364.0	1.096404743225344e+18
14365.0	1.0962721621147647e+18
14366.0	1.096132594971443e+18
14367.0	1.0959953170792445e+18
14368.0	1.0958556224290815e+18
14369.0	1.0957161400107005e+18
14370.0	1.0955766718529536e+18
14371.0	1.0954381818068988e+18
14372.0	1.0952989418192893e+18
14373.0	1.0951586943598588e+18
14374.0	1.0950174268456959e+18
14375.0	1.0948743121600511e+18
14376.0	1.0947423736168448e+18
14377.0	1.0946031587950592e+18
14378.0	1.0944636579217405e+18
14379.0	1.0943252433731583e+18
14380.0	1.0941860570726397e+18
14381.0	1.094046360744755e+18
14382.0	1.0939076223959039e+18
14383.0	1.0937688454594557e+18
14384.0	1.0936274487607293e+18
14385.0	1.0934914065104892e+18
14386.0	1.0933502597922813e+18
14387.0	1.0932137310027773e+18
14388.0	1.0930747225407487e+18
14389.0	1.0929362241060861e+18
14390.0	1.0927970638102528e+18
14391.0	1.0926589562847228e+18
14392.0	1.0925194260512767e+18
14393.0	1.092381213668147e+18
14394.0	1.0922363105312767e+18
14395.0	1.0921027437592573e+18
14396.0	1.091963456795443e+18
14397.0	1.0918275479240703e+18
14398.0	1.0916890520059901e+18
14399.0	1.0915479916904447e+18
14400.0	1.0914066931384315e+18
14401.0	1.0912722573066237e+18
14402.0	1.0911345717280765e+18
14403.0	1.0909759045631997e+18
14404.0	1.0900780542328823e+18
14405.0	1.0902083091824625e+18
14406.0	1.0905799127728127e+18
14407.0	1.0904114292588541e+18
14408.0	1.0903050247995391e+18
14409.0	1.0901616777494527e+18
14410.0	1.090028573189734e+18
14411.0	1.0898910402838527e+18
14412.0	1.089752219726643e+18
14413.0	1.0896153730088957e+18
14414.0	1.0894769165172736e+18
14415.0	1.089339164668723e+18
14416.0	1.0892014891565055e+18
14417.0	1.0890634638393343e+18
14418.0	1.088924813570867e+18
14419.0	1.088787349451571e+18
14420.0	1.0886486329131005e+18
14421.0	1.088511976616755e+18
14422.0	1.0883741350100991e+18
14423.0	1.0882343682179068e+18
14424.0	1.0879806975508477e+18
14425.0	1.0879589391794173e+18
14426.0	1.0878234916814845e+18
14427.0	1.0876847759818748e+18
14428.0	1.0875442156273663e+18
14429.0	1.0874082656518143e+18
14430.0	1.0872730656178173e+18
14431.0	1.0871186229559293e+18
14432.0	1.0869979788345343e+18
14433.0	1.0868347918876668e+18
14434.0	1.0867203343646716e+18
14435.0	1.0865818711621631e+18
14436.0	1.0864481391345663e+18
14437.0	1.0863110978011136e+18
14438.0	1.0861717554724863e+18
14439.0	1.0860363658559485e+18
14440.0	1.0858991156461567e+18
14441.0	1.085756646044467e+18
14442.0	1.0856154968096765e+18
14443.0	1.0854696767979516e+18
14444.0	1.0853484999999487e+18
14445.0	1.0852122857832447e+18
14446.0	1.0848249426477056e+18
14447.0	1.0849348996825085e+18
14448.0	1.0848016357392381e+18
14449.0	1.0846648460640252e+18
14450.0	1.0845278592565248e+18
14451.0	1.0843909252972543e+18
14452.0	1.0842540467027965e+18
14453.0	1.0841168518578175e+18
14454.0	1.0839802140164093e+18
14455.0	1.0838419890503677e+18
14456.0	1.0837065902063612e+18
14457.0	1.0835697711710208e+18
14458.0	1.0834322533646333e+18
14459.0	1.0832949612118013e+18
14460.0	1.0831590229803005e+18
14461.0	1.0830177495941116e+18
14462.0	1.0828766456578047e+18
14463.0	1.0827480759795711e+18
14464.0	1.0826127341780991e+18
14465.0	1.0824661474476031e+18
14466.0	1.0823395717414911e+18
14467.0	1.0821996715704319e+18
14468.0	1.0820668480290813e+18
14469.0	1.0819143381024767e+18
14470.0	1.0817860368596991e+18
14471.0	1.0816545244577791e+18
14472.0	1.0815213838270463e+18
14473.0	1.0813850379091965e+18
14474.0	1.0812487683276797e+18
14475.0	1.0811124526088191e+18
14476.0	1.0809746831441916e+18
14477.0	1.0808397364461565e+18
14478.0	1.0807033846562813e+18
14479.0	1.0805670194446336e+18
14480.0	1.0804277291253757e+18
14481.0	1.0802948913233919e+18
14482.0	1.08015794562007e+18
14483.0	1.0800204244582397e+18
14484.0	1.0798842471514111e+18
14485.0	1.0797422515060732e+18
14486.0	1.079546370798387e+18
14487.0	1.0794782351687677e+18
14488.0	1.0793426643582973e+18
14489.0	1.0792053017411583e+18
14490.0	1.0790703709814783e+18
14491.0	1.0789347766829055e+18
14492.0	1.0787992905973759e+18
14493.0	1.0786634119249919e+18
14494.0	1.0785235100762111e+18
14495.0	1.0783914331209727e+18
14496.0	1.0782264384290815e+18
14497.0	1.078120064168755e+18
14498.0	1.077983802975846e+18
14499.0	1.0778491205189628e+18
14500.0	1.0777135035711485e+18
14501.0	1.0775768867012605e+18
14502.0	1.077376049165107e+18
14503.0	1.0773038282833916e+18
14504.0	1.0771700467630077e+18
14505.0	1.0770353794056191e+18
14506.0	1.0768987977678847e+18
14507.0	1.076708605375283e+18
14508.0	1.0766281401696256e+18
14509.0	1.0764942152040447e+18
14510.0	1.0763576276942845e+18
14511.0	1.0762234359709695e+18
14512.0	1.0760851438960637e+18
14513.0	1.0759526198280188e+18
14514.0	1.0758107827273727e+18
14515.0	1.0756797056942079e+18
14516.0	1.0747076623204356e+18
14517.0	1.0754047858442239e+18
14518.0	1.0752761297633277e+18
14519.0	1.075127491179315e+18
14520.0	1.0750056021884927e+18
14521.0	1.0748713047687164e+18
14522.0	1.0747363924639741e+18
14523.0	1.0745995407130623e+18
14524.0	1.0744650411278336e+18
14525.0	1.0743302739460093e+18
14526.0	1.0741965284966396e+18
14527.0	1.0740559253602303e+18
14528.0	1.0738854864617472e+18
14529.0	1.0737895493074943e+18
14530.0	1.0736537620709375e+18
14531.0	1.0735220391149567e+18
14532.0	1.0733858307702783e+18
14533.0	1.0732527530541055e+18
14534.0	1.0731182215921664e+18
14535.0	1.0729816365989884e+18
14536.0	1.0728486821953533e+18
14537.0	1.0727117364920319e+18
14538.0	1.0725795840393212e+18
14539.0	1.0724450156675068e+18
14540.0	1.0723104447791103e+18
14541.0	1.072173148431974e+18
14542.0	1.0720413256515583e+18
14543.0	1.0719041157070848e+18
14544.0	1.0717713232035837e+18
14545.0	1.0716372950581245e+18
14546.0	1.0712521077948412e+18
14547.0	1.0711066048724987e+18
14548.0	1.0712307235553279e+18
14549.0	1.0710724296835072e+18
14550.0	1.0709656863244285e+18
14551.0	1.0708318158847997e+18
14552.0	1.0706971166507004e+18
14553.0	1.0705584194060285e+18
14554.0	1.0704291627007996e+18
14555.0	1.0702949441339388e+18
14556.0	1.0701598439243776e+18
14557.0	1.0700261488066559e+18
14558.0	1.0698896250503167e+18
14559.0	1.0691446403235826e+18
14560.0	1.069621158556467e+18
14561.0	1.0694878736416765e+18
14562.0	1.06935131045888e+18
14563.0	1.0692222634688511e+18
14564.0	1.0690684054929408e+18
14565.0	1.0689546148642812e+18
14566.0	1.0688207276474367e+18
14567.0	1.0686867842269181e+18
14568.0	1.0685525849538557e+18
14569.0	1.0684176718102527e+18
14570.0	1.0681186204516351e+18
14571.0	1.068149779936051e+18
14572.0	1.0680083597492221e+18
14573.0	1.0678724936597503e+18
14574.0	1.0677478951485436e+18
14575.0	1.0676159549276159e+18
14576.0	1.0674821968953344e+18
14577.0	1.0673490000609277e+18
14578.0	1.0672147613614079e+18
14579.0	1.0670818497396733e+18
14580.0	1.0669483299438591e+18
14581.0	1.0668141298319357e+18
14582.0	1.0666812031107072e+18
14583.0	1.0665477630066689e+18
14584.0	1.066411807997952e+18
14585.0	1.0662808215617536e+18
14586.0	1.066146739729203e+18
14587.0	1.0660136762736637e+18
14588.0	1.0658807285809151e+18
14589.0	1.0657476248600575e+18
14590.0	1.0656145471438845e+18
14591.0	1.0654813419208703e+18
14592.0	1.0653477902483456e+18
14593.0	1.0651888789749757e+18
14594.0	1.0650821045780476e+18
14595.0	1.0649481091481597e+18
14596.0	1.0648052008222719e+18
14597.0	1.0646706584551421e+18
14598.0	1.0645491469516797e+18
14599.0	1.0644178258100223e+18
14600.0	1.0642849259323391e+18
14601.0	1.0641521619501055e+18
14602.0	1.0640188921348093e+18
14603.0	1.0638865568104447e+18
14604.0	1.063740501078835e+18
14605.0	1.0635983535996927e+18
14606.0	1.0634615748296703e+18
14607.0	1.063353597506355e+18
14608.0	1.0632091993636864e+18
14609.0	1.0630689569374205e+18
14610.0	1.0629335807426559e+18
14611.0	1.0627949019529213e+18
14612.0	1.0626926624374783e+18
14613.0	1.0625603673784317e+18
14614.0	1.0624116306477055e+18
14615.0	1.0622851430219775e+18
14616.0	1.0621629193256957e+18
14617.0	1.0619979212783615e+18
14618.0	1.0618751900712956e+18
14619.0	1.0617575876591613e+18
14620.0	1.0616106184081408e+18
14621.0	1.0615008165625855e+18
14622.0	1.0613685860958208e+18
14623.0	1.0612362121838592e+18
14624.0	1.0610915447668736e+18
14625.0	1.060971181663846e+18
14626.0	1.0608254883201021e+18
14627.0	1.0606927427928063e+18
14628.0	1.0605746915901437e+18
14629.0	1.0604425223602175e+18
14630.0	1.0602981292507133e+18
14631.0	1.0601658685849597e+18
14632.0	1.0600108806635517e+18
14633.0	1.0599070171135997e+18
14634.0	1.0597815629643773e+18
14635.0	1.0596427382128636e+18
14636.0	1.0594949955321855e+18
14637.0	1.0593858714861567e+18
14638.0	1.0592533574844415e+18
14639.0	1.0591188738375677e+18
14640.0	1.0589889695318015e+18
14641.0	1.0588188141682685e+18
14642.0	1.0587248349151231e+18
14643.0	1.058594131175014e+18
14644.0	1.0584621901152252e+18
