# Flux units: erg / (cm m2 s)
# Wavelength units: Angstrom
wave	flux
14000.0	1.9185996969017334e+18
14001.0	1.9182603911299064e+18
14002.0	1.9179903433834493e+18
14003.0	1.9176181727231997e+18
14004.0	1.9172400763502587e+18
14005.0	1.9168700380741627e+18
14006.0	1.9164883027230717e+18
14007.0	1.9161122498150397e+18
14008.0	1.91564571738112e+18
14009.0	1.9153715843825661e+18
14010.0	1.914985557419622e+18
14011.0	1.9140097777598461e+18
14012.0	1.9142502908952573e+18
14013.0	1.9138773149286397e+18
14014.0	1.9134980055629821e+18
14015.0	1.9131276837519355e+18
14016.0	1.9127564962365437e+18
14017.0	1.912383070640537e+18
14018.0	1.9120056789106683e+18
14019.0	1.9116362882351096e+18
14020.0	1.9112622804697083e+18
14021.0	1.910888170363289e+18
14022.0	1.9104948100792315e+18
14023.0	1.9100921317294077e+18
14024.0	1.9097294032863227e+18
14025.0	1.909392697982976e+18
14026.0	1.9090228576780288e+18
14027.0	1.9086520929484792e+18
14028.0	1.908272662786867e+18
14029.0	1.9078995056263163e+18
14030.0	1.9022712496193577e+18
14031.0	1.9070337543045105e+18
14032.0	1.9067777323106304e+18
14033.0	1.9063286280486912e+18
14034.0	1.9060327383564283e+18
14035.0	1.905672595282329e+18
14036.0	1.9052865465090043e+18
14037.0	1.904929458565939e+18
14038.0	1.9045594890764283e+18
14039.0	1.9041838841200637e+18
14040.0	1.903809571009331e+18
14041.0	1.9034421516566525e+18
14042.0	1.903062404405657e+18
14043.0	1.9026631335084027e+18
14044.0	1.9023176939864061e+18
14045.0	1.901954411895193e+18
14046.0	1.9015847292960763e+18
14047.0	1.90119158040494e+18
14048.0	1.900838844471705e+18
14049.0	1.9004765958569981e+18
14050.0	1.900106342832537e+18
14051.0	1.8997272096276477e+18
14052.0	1.8993615854370813e+18
14053.0	1.898994815362662e+18
14054.0	1.898624840839987e+18
14055.0	1.8982546331140093e+18
14056.0	1.8978844891414528e+18
14057.0	1.8975144693202936e+18
14058.0	1.8971444847312893e+18
14059.0	1.8967638851977213e+18
14060.0	1.8964044870320125e+18
14061.0	1.8960284106358781e+18
14062.0	1.8956653298712573e+18
14063.0	1.895279195534131e+18
14064.0	1.8939805433856003e+18
14065.0	1.8945482407542781e+18
14066.0	1.8941873024401403e+18
14067.0	1.8937628741074941e+18
14068.0	1.8934493817602043e+18
14069.0	1.893068515468902e+18
14070.0	1.8927076593631224e+18
14071.0	1.8923397316607997e+18
14072.0	1.891973830646169e+18
14073.0	1.8916050741493755e+18
14074.0	1.8912362354442237e+18
14075.0	1.8908460175327227e+18
14076.0	1.8904394250584061e+18
14077.0	1.8889303614554115e+18
14078.0	1.8896716174458877e+18
14079.0	1.8893834821828605e+18
14080.0	1.8890264496046075e+18
14081.0	1.8886586527645693e+18
14082.0	1.8882873645858813e+18
14083.0	1.8879201448820733e+18
14084.0	1.8875530157752317e+18
14085.0	1.8863629977780216e+18
14086.0	1.8867186009374715e+18
14087.0	1.8864490548297725e+18
14088.0	1.8860577447215104e+18
14089.0	1.885672221075046e+18
14090.0	1.8853304440193021e+18
14091.0	1.8849826506539005e+18
14092.0	1.8846161188159483e+18
14093.0	1.8842490501070845e+18
14094.0	1.8838817179959293e+18
14095.0	1.8835128709021696e+18
14096.0	1.8829084414967805e+18
14097.0	1.8827229844733947e+18
14098.0	1.8823034416660477e+18
14099.0	1.8820469515878397e+18
14100.0	1.8816662262251515e+18
14101.0	1.8813163910725627e+18
14102.0	1.8809500488171515e+18
14103.0	1.8805693788192765e+18
14104.0	1.8802153158082552e+18
14105.0	1.8798517854142461e+18
14106.0	1.879486087403929e+18
14107.0	1.87911923344343e+18
14108.0	1.8787345167810555e+18
14109.0	1.878382448581017e+18
14110.0	1.8780147607928827e+18
14111.0	1.8776466317639677e+18
14112.0	1.8772809119432704e+18
14113.0	1.8768940830294013e+18
14114.0	1.876544942453555e+18
14115.0	1.8761838162345981e+18
14116.0	1.8756819929268221e+18
14117.0	1.866490299862222e+18
14118.0	1.8750793184182272e+18
14119.0	1.8745799462617083e+18
14120.0	1.8742379745902587e+18
14121.0	1.8739649086226427e+18
14122.0	1.8734727020150781e+18
14123.0	1.873152768894566e+18
14124.0	1.872768456563097e+18
14125.0	1.8720801259782136e+18
14126.0	1.8721567106138107e+18
14127.0	1.8718135041392637e+18
14128.0	1.8714532989894653e+18
14129.0	1.871079289546342e+18
14130.0	1.8707080483438587e+18
14131.0	1.870360684475187e+18
14132.0	1.869993912723046e+18
14133.0	1.8690982174261238e+18
14134.0	1.869272215610982e+18
14135.0	1.8688659234488312e+18
14136.0	1.868347490697216e+18
14137.0	1.8681598291476477e+18
14138.0	1.8677115771682816e+18
14139.0	1.8674550501801981e+18
14140.0	1.867083884475187e+18
14141.0	1.866661974402662e+18
14142.0	1.8656618459693056e+18
14143.0	1.8659939509600253e+18
14144.0	1.8656420069113853e+18
14145.0	1.8652792767905787e+18
14146.0	1.8648993953218555e+18
14147.0	1.8645445488148477e+18
14148.0	1.86416742048727e+18
14149.0	1.86380834612183e+18
14150.0	1.863469894310297e+18
14151.0	1.8630710428434432e+18
14152.0	1.8627458869755904e+18
14153.0	1.862383772578611e+18
14154.0	1.8619968950108155e+18
14155.0	1.8612170698784765e+18
14156.0	1.8612330233331702e+18
14157.0	1.860935989434777e+18
14158.0	1.860569341834035e+18
14159.0	1.8602136916983803e+18
14160.0	1.8598454854942715e+18
14161.0	1.8594313818603517e+18
14162.0	1.8590229875130363e+18
14163.0	1.8587613065641981e+18
14164.0	1.8581202592071675e+18
14165.0	1.8579665312546808e+18
14166.0	1.857682318504755e+18
14167.0	1.8573093207277565e+18
14168.0	1.8569428358660093e+18
14169.0	1.8565955156180987e+18
14170.0	1.8562278613843965e+18
14171.0	1.8558779121467387e+18
14172.0	1.8555219298222077e+18
14173.0	1.855115709802086e+18
14174.0	1.854791342463385e+18
14175.0	1.8544396081299453e+18
14176.0	1.8540784416456704e+18
14177.0	1.8537202430509053e+18
14178.0	1.8533603499573243e+18
14179.0	1.8529924960747512e+18
14180.0	1.8526418036064253e+18
14181.0	1.8522820782850045e+18
14182.0	1.8519215577235453e+18
14183.0	1.8515625773105152e+18
14184.0	1.8511973020860408e+18
14185.0	1.850838682383155e+18
14186.0	1.848839653608653e+18
14187.0	1.8500883868286976e+18
14188.0	1.8497608485961725e+18
14189.0	1.8493914746978304e+18
14190.0	1.8490347055218683e+18
14191.0	1.84866825085911e+18
14192.0	1.848320068262297e+18
14193.0	1.8476882735398912e+18
14194.0	1.8475972789534715e+18
14195.0	1.8472545590181883e+18
14196.0	1.8468962396274683e+18
14197.0	1.8465379135258621e+18
14198.0	1.8461745827807235e+18
14199.0	1.8458183454425083e+18
14200.0	1.844378982783386e+18
14201.0	1.8449768019656696e+18
14202.0	1.8446694752452605e+18
14203.0	1.8443053945585661e+18
14204.0	1.8439526519144443e+18
14205.0	1.8435968994377723e+18
14206.0	1.8431162288439293e+18
14207.0	1.8428835104030717e+18
14208.0	1.842526536545075e+18
14209.0	1.8420354875654141e+18
14210.0	1.8417178210467837e+18
14211.0	1.841448855430758e+18
14212.0	1.8410955675271163e+18
14213.0	1.8407280928096253e+18
14214.0	1.8403808430260221e+18
14215.0	1.8400064695173117e+18
14216.0	1.839667361716633e+18
14217.0	1.839310834132582e+18
14218.0	1.8388949319811072e+18
14219.0	1.8385240984649725e+18
14220.0	1.8381572243718147e+18
14221.0	1.8377960947974141e+18
14222.0	1.8373595935801336e+18
14223.0	1.8370927603482621e+18
14224.0	1.836736507910553e+18
14225.0	1.833258351119567e+18
14226.0	1.836005843376537e+18
14227.0	1.8356657104879613e+18
14228.0	1.8277069397950482e+18
14229.0	1.8334539952684995e+18
14230.0	1.8345987516923904e+18
14231.0	1.834155818090496e+18
14232.0	1.833888409400115e+18
14233.0	1.833528279747788e+18
14234.0	1.833176803783475e+18
14235.0	1.832818435738828e+18
14236.0	1.8324650740154363e+18
14237.0	1.8321045769420797e+18
14238.0	1.8316911443967992e+18
14239.0	1.8313055016321021e+18
14240.0	1.8293867535138816e+18
14241.0	1.8305854285545464e+18
14242.0	1.8302460825174008e+18
14243.0	1.829747809268531e+18
14244.0	1.8295476906360832e+18
14245.0	1.8291773788913661e+18
14246.0	1.8288181619195904e+18
14247.0	1.8284772371464187e+18
14248.0	1.8281106012897272e+18
14249.0	1.8277696412844027e+18
14250.0	1.827414355214336e+18
14251.0	1.827061830674022e+18
14252.0	1.8267066586890235e+18
14253.0	1.826066641453056e+18
14254.0	1.825666637391462e+18
14255.0	1.8252760134713341e+18
14256.0	1.8217913588645908e+18
14257.0	1.8244418217705462e+18
14258.0	1.8242479123857403e+18
14259.0	1.8238752920961021e+18
14260.0	1.823439629739622e+18
14261.0	1.823094928415129e+18
14262.0	1.8227730122276861e+18
14263.0	1.817751279422672e+18
14264.0	1.8211344402612216e+18
14265.0	1.821704199549747e+18
14266.0	1.8213635750887421e+18
14267.0	1.8210121846882304e+18
14268.0	1.8206551722426363e+18
14269.0	1.8202955995938816e+18
14270.0	1.8199505174265856e+18
14271.0	1.819594657575731e+18
14272.0	1.819238661829427e+18
14273.0	1.818866492846899e+18
14274.0	1.8114336241221668e+18
14275.0	1.8173919684984835e+18
14276.0	1.817473983918899e+18
14277.0	1.8171278045216765e+18
14278.0	1.8167908978917376e+18
14279.0	1.8164375093248e+18
14280.0	1.8160787889586168e+18
14281.0	1.8157332269629437e+18
14282.0	1.8153807393325053e+18
14283.0	1.8150278859587581e+18
14284.0	1.814674841324748e+18
14285.0	1.8143201961443325e+18
14286.0	1.8139040423346176e+18
14287.0	1.8135446609461243e+18
14288.0	1.8131917924728832e+18
14289.0	1.8118274038366188e+18
14290.0	1.8124854767124477e+18
14291.0	1.812134123221811e+18
14292.0	1.8117827193995261e+18
14293.0	1.8114278259163139e+18
14294.0	1.8109382046777344e+18
14295.0	1.8107107274391547e+18
14296.0	1.8095534501789704e+18
14297.0	1.8100167211220984e+18
14298.0	1.808692963547545e+18
14299.0	1.8092884825735165e+18
14300.0	1.808957244964864e+18
14301.0	1.808609272083251e+18
14302.0	1.8082584084873216e+18
14303.0	1.8078712926830587e+18
14304.0	1.8075354967048187e+18
14305.0	1.807195670839296e+18
14306.0	1.8067763578798075e+18
14307.0	1.8064361276833787e+18
14308.0	1.8061072002973693e+18
14309.0	1.8057158717341693e+18
14310.0	1.805119191724851e+18
14311.0	1.8040922348453885e+18
14312.0	1.804461452715622e+18
14313.0	1.804213119719833e+18
14314.0	1.8038974715002875e+18
14315.0	1.8035976928493565e+18
14316.0	1.8032074917150717e+18
14317.0	1.8027927539023872e+18
14318.0	1.8025663034294272e+18
14319.0	1.8022202867711997e+18
14320.0	1.801870966679142e+18
14321.0	1.801519438705459e+18
14322.0	1.8011324151758848e+18
14323.0	1.8008038837321723e+18
14324.0	1.8004717602865147e+18
14325.0	1.8001139056246781e+18
14326.0	1.7997737844801533e+18
14327.0	1.7994172887728125e+18
14328.0	1.799067381478195e+18
14329.0	1.798724215268966e+18
14330.0	1.7983743448842237e+18
14331.0	1.7980147688800253e+18
14332.0	1.797674788664115e+18
14333.0	1.7973251061841917e+18
14334.0	1.7969753616285696e+18
14335.0	1.7966116248748027e+18
14336.0	1.7959451046707197e+18
14337.0	1.7959233446215677e+18
14338.0	1.795573895344947e+18
14339.0	1.79521104946135e+18
14340.0	1.794875622581862e+18
14341.0	1.7945059735371776e+18
14342.0	1.7941781165375485e+18
14343.0	1.7938275498983421e+18
14344.0	1.793474552240537e+18
14345.0	1.7931297653522427e+18
14346.0	1.7926979315564541e+18
14347.0	1.7922299411824637e+18
14348.0	1.7920050476351485e+18
14349.0	1.7916659079577597e+18
14350.0	1.7910566668468221e+18
14351.0	1.7906848837402621e+18
14352.0	1.7906132802600955e+18
14353.0	1.7902723588423677e+18
14354.0	1.7898914153758715e+18
14355.0	1.7894782428774397e+18
14356.0	1.7891541523628027e+18
14357.0	1.7888804555718653e+18
14358.0	1.7885322528423933e+18
14359.0	1.7881692442198013e+18
14360.0	1.787812126077747e+18
14361.0	1.787477566580326e+18
14362.0	1.7871393664270333e+18
14363.0	1.7867899238612987e+18
14364.0	1.7856180118355968e+18
14365.0	1.785927764541439e+18
14366.0	1.7855988925202427e+18
14367.0	1.7854008257413117e+18
14368.0	1.7850527555518461e+18
14369.0	1.7847056030760955e+18
14370.0	1.7843586166947837e+18
14371.0	1.7840121554403325e+18
14372.0	1.7836579967991805e+18
14373.0	1.783310924854067e+18
14374.0	1.7829690152583168e+18
14375.0	1.7826201900941312e+18
14376.0	1.7822746549420024e+18
14377.0	1.7819266518614013e+18
14378.0	1.7815772495609853e+18
14379.0	1.7812327327858688e+18
14380.0	1.7808844092604413e+18
14381.0	1.7805265696980987e+18
14382.0	1.7801678459764733e+18
14383.0	1.7797724187394043e+18
14384.0	1.779411785770598e+18
14385.0	1.779083469075251e+18
14386.0	1.7787183767224317e+18
14387.0	1.7783889728634875e+18
14388.0	1.7780400336142333e+18
14389.0	1.7776948759494653e+18
14390.0	1.7773461329936381e+18
14391.0	1.7769977205489661e+18
14392.0	1.7766528766181376e+18
14393.0	1.776307979000217e+18
14394.0	1.7759225912492032e+18
14395.0	1.7755880183300096e+18
14396.0	1.775266987979571e+18
14397.0	1.774921957821644e+18
14398.0	1.77457457046487e+18
14399.0	1.7742276193157117e+18
14400.0	1.7738574786985981e+18
14401.0	1.773528454004736e+18
14402.0	1.7731866249396221e+18
14403.0	1.771553188478974e+18
14404.0	1.7675344681107436e+18
14405.0	1.7704240902307804e+18
14406.0	1.7718008587747323e+18
14407.0	1.7696091940061187e+18
14408.0	1.771043768447795e+18
14409.0	1.7707468536676352e+18
14410.0	1.7703590667747325e+18
14411.0	1.7700727266738179e+18
14412.0	1.7697268190674941e+18
14413.0	1.76938504201175e+18
14414.0	1.7690366681546744e+18
14415.0	1.7686920775598075e+18
14416.0	1.768326780524953e+18
14417.0	1.7679354200850427e+18
14418.0	1.767545869906739e+18
14419.0	1.76730735158231e+18
14420.0	1.7669590045687803e+18
14421.0	1.7666175160811517e+18
14422.0	1.7662642952863744e+18
14423.0	1.7656606040784893e+18
14424.0	1.757412464997167e+18
14425.0	1.764750076044902e+18
14426.0	1.7644273730060285e+18
14427.0	1.7640844215451643e+18
14428.0	1.7637188543971325e+18
14429.0	1.7633912909987835e+18
14430.0	1.762639705276416e+18
14431.0	1.7609765546885117e+18
14432.0	1.7619043934535677e+18
14433.0	1.760179972472831e+18
14434.0	1.7612011412127741e+18
14435.0	1.7606922463084541e+18
14436.0	1.7605300945158141e+18
14437.0	1.760188938217062e+18
14438.0	1.7596686197063675e+18
14439.0	1.7594795404820475e+18
14440.0	1.7591549365846013e+18
14441.0	1.7588023466131453e+18
14442.0	1.7584523101339643e+18
14443.0	1.75806587380695e+18
14444.0	1.7577722356170747e+18
14445.0	1.7574317772505088e+18
14446.0	1.7550176365314053e+18
14447.0	1.756728402536038e+18
14448.0	1.756399792239411e+18
14449.0	1.7560535541219325e+18
14450.0	1.7557056097615864e+18
14451.0	1.7553650859638781e+18
14452.0	1.7550198611902461e+18
14453.0	1.7546537907257341e+18
14454.0	1.7543253230354432e+18
14455.0	1.7539764643168253e+18
14456.0	1.753621671496908e+18
14457.0	1.7532831139889147e+18
14458.0	1.7529336882003965e+18
14459.0	1.752578236035891e+18
14460.0	1.752199812507238e+18
14461.0	1.7516578480324603e+18
14462.0	1.7506089851420672e+18
14463.0	1.7510941570629632e+18
14464.0	1.7508452888739837e+18
14465.0	1.750502189773619e+18
14466.0	1.7501910546251776e+18
14467.0	1.7498215314096125e+18
14468.0	1.74950965135278e+18
14469.0	1.7490407969521656e+18
14470.0	1.7487947439800317e+18
14471.0	1.7484796175319037e+18
14472.0	1.748137364003225e+18
14473.0	1.7477383967735805e+18
14474.0	1.747400644571955e+18
14475.0	1.7470543980658685e+18
14476.0	1.746622930013388e+18
14477.0	1.7463645810196475e+18
14478.0	1.7460262818807805e+18
14479.0	1.745677263778611e+18
14480.0	1.7453221052153853e+18
14481.0	1.7450004507525115e+18
14482.0	1.74465341236183e+18
14483.0	1.7443030185279485e+18
14484.0	1.743960488175206e+18
14485.0	1.7435881145106432e+18
14486.0	1.7429672434335741e+18
14487.0	1.7429329206050808e+18
14488.0	1.7424904601206781e+18
14489.0	1.7421190914113533e+18
14490.0	1.7418836198293504e+18
14491.0	1.7415695604121597e+18
14492.0	1.7412266978705403e+18
14493.0	1.7408609663057915e+18
14494.0	1.7405135990816765e+18
14495.0	1.740198242785689e+18
14496.0	1.7397132805799933e+18
14497.0	1.7395131518812157e+18
14498.0	1.739171772445491e+18
14499.0	1.738829414898073e+18
14500.0	1.7384863426412541e+18
14501.0	1.7380991714721787e+18
14502.0	1.73749815958569e+18
14503.0	1.737413359147417e+18
14504.0	1.7371095774527485e+18
14505.0	1.73673447245742e+18
14506.0	1.7363506181439485e+18
14507.0	1.735826194248499e+18
14508.0	1.735745905203609e+18
14509.0	1.7354038194470907e+18
14510.0	1.7350580259258368e+18
14511.0	1.7347186396233723e+18
14512.0	1.7343596021678077e+18
14513.0	1.7340338104434688e+18
14514.0	1.7336548349444093e+18
14515.0	1.7333471995232253e+18
14516.0	1.7304286853595154e+18
14517.0	1.732659821884211e+18
14518.0	1.7323218247352315e+18
14519.0	1.7319798094430203e+18
14520.0	1.7316365492813821e+18
14521.0	1.731294138046873e+18
14522.0	1.7309416789377016e+18
14523.0	1.7303885743915003e+18
14524.0	1.7301704470953981e+18
14525.0	1.7299189734047741e+18
14526.0	1.7295759682568187e+18
14527.0	1.7292154325958653e+18
14528.0	1.72874617889751e+18
14529.0	1.7284912759439357e+18
14530.0	1.7281336913952765e+18
14531.0	1.72780778726359e+18
14532.0	1.7273451504992253e+18
14533.0	1.727124239862988e+18
14534.0	1.7267836506341376e+18
14535.0	1.7264295876231165e+18
14536.0	1.726094415757312e+18
14537.0	1.7257428726841341e+18
14538.0	1.725413623175577e+18
14539.0	1.7250711901306877e+18
14540.0	1.7247285960245248e+18
14541.0	1.724361911513907e+18
14542.0	1.7240408845189123e+18
14543.0	1.7235513958203387e+18
14544.0	1.723122625544192e+18
14545.0	1.7227651685023741e+18
14546.0	1.7132238147682253e+18
14547.0	1.7136829383835587e+18
14548.0	1.7217362084233213e+18
14549.0	1.721282243801907e+18
14550.0	1.721060187281817e+18
14551.0	1.7207278239219712e+18
14552.0	1.7203841460076541e+18
14553.0	1.7200348259155965e+18
14554.0	1.7197010566250493e+18
14555.0	1.7193581789839357e+18
14556.0	1.7190136286543872e+18
14557.0	1.7186727508574205e+18
14558.0	1.7183268751278075e+18
14559.0	1.7160522503815135e+18
14560.0	1.7176030338875387e+18
14561.0	1.7172932023287803e+18
14562.0	1.716903893742387e+18
14563.0	1.7166041671008253e+18
14564.0	1.71590212953047e+18
14565.0	1.7153473741062136e+18
14566.0	1.7150050165587965e+18
14567.0	1.7146524567863293e+18
14568.0	1.7142129004380157e+18
14569.0	1.7139667585466365e+18
14570.0	1.713030130198118e+18
14571.0	1.713283023241216e+18
14572.0	1.7128522581540861e+18
14573.0	1.7125305500041213e+18
14574.0	1.711969680962355e+18
14575.0	1.7118707675299837e+18
14576.0	1.7115222510665728e+18
14577.0	1.7112241031610363e+18
14578.0	1.7108802188869624e+18
14579.0	1.710543974957056e+18
14580.0	1.7101985740226552e+18
14581.0	1.7098409609527293e+18
14582.0	1.7094923236933627e+18
14583.0	1.709170897400627e+18
14584.0	1.7087617531117565e+18
14585.0	1.7084843435229184e+18
14586.0	1.7081389090340861e+18
14587.0	1.7077971722436605e+18
14588.0	1.707455099908915e+18
14589.0	1.707118362728857e+18
14590.0	1.7067819912921085e+18
14591.0	1.7064293073682427e+18
14592.0	1.706096581620531e+18
14593.0	1.7056423485636603e+18
14594.0	1.7053724316794875e+18
14595.0	1.7050255476391933e+18
14596.0	1.70394762996613e+18
14597.0	1.7034513834049526e+18
14598.0	1.703935687943782e+18
14599.0	1.7036791173349376e+18
14600.0	1.703318761190195e+18
14601.0	1.7029899059462136e+18
14602.0	1.7026026458578941e+18
14603.0	1.7023099069267963e+18
14604.0	1.7018721407074304e+18
14605.0	1.7014697039495165e+18
14606.0	1.7012070633439232e+18
14607.0	1.7009541401018365e+18
14608.0	1.700618869250457e+18
14609.0	1.7002521864175613e+18
14610.0	1.6996857859276797e+18
14611.0	1.6995475165020157e+18
14612.0	1.6992679996948475e+18
14613.0	1.6989399782785021e+18
14614.0	1.698598159279718e+18
14615.0	1.698259289715507e+18
14616.0	1.6979302901874685e+18
14617.0	1.6975844949884925e+18
14618.0	1.697193525457715e+18
14619.0	1.6963511716413422e+18
14620.0	1.6946192831217667e+18
14621.0	1.69623239566295e+18
14622.0	1.6958922845847547e+18
14623.0	1.6955563661328381e+18
14624.0	1.6951539377635328e+18
14625.0	1.6948732884942848e+18
14626.0	1.6945317161205757e+18
14627.0	1.6941869275545597e+18
14628.0	1.6938560607223805e+18
14629.0	1.6935145151922168e+18
14630.0	1.693153014841344e+18
14631.0	1.6928306590908413e+18
14632.0	1.6918842831798272e+18
14633.0	1.6920350784749563e+18
14634.0	1.6917824807108605e+18
14635.0	1.6908502899359718e+18
14636.0	1.6896182567567352e+18
14637.0	1.6907867546189821e+18
14638.0	1.690399142209126e+18
14639.0	1.690048719853977e+18
14640.0	1.6897550598537208e+18
14641.0	1.6870820399808497e+18
14642.0	1.6890670077706237e+18
14643.0	1.6887241519398907e+18
14644.0	1.6883608765595648e+18
14645.0	1.688013563022541e+18
14646.0	1.6876269052362747e+18
14647.0	1.6871917931724797e+18
14648.0	1.6869691075067904e+18
