# Flux units: erg / (cm m2 s)
# Wavelength units: Angstrom
wave	flux
14000.0	2.1303840628277243e+18
14001.0	2.1299801345753083e+18
14002.0	2.1296249374244861e+18
14003.0	2.1292048980115453e+18
14004.0	2.128783769757286e+18
14005.0	2.1283620056465403e+18
14006.0	2.12793508757504e+18
14007.0	2.127510207935283e+18
14008.0	2.1270356593475584e+18
14009.0	2.1266613512699896e+18
14010.0	2.1262332336275453e+18
14011.0	2.125394146335129e+18
14012.0	2.1253950086840317e+18
14013.0	2.1249911274078203e+18
14014.0	2.124567469149388e+18
14015.0	2.1241510099943421e+18
14016.0	2.1237319285604347e+18
14017.0	2.1233120518864896e+18
14018.0	2.1228918480568317e+18
14019.0	2.1224717012697083e+18
14020.0	2.1220510511661053e+18
14021.0	2.1216306208440315e+18
14022.0	2.1212110579040248e+18
14023.0	2.1207815611744253e+18
14024.0	2.120362868971929e+18
14025.0	2.1199520738050043e+18
14026.0	2.119531777700659e+18
14027.0	2.1191129579913216e+18
14028.0	2.1186875767128061e+18
14029.0	2.118266720249446e+18
14030.0	2.1176469212364792e+18
14031.0	2.117383789058457e+18
14032.0	2.1170141047816187e+18
14033.0	2.1165644468715517e+18
14034.0	2.1161803291557883e+18
14035.0	2.1157623516626944e+18
14036.0	2.115344134255411e+18
14037.0	2.1149259084595195e+18
14038.0	2.1145077279621115e+18
14039.0	2.1140858749321208e+18
14040.0	2.1136687094562808e+18
14041.0	2.1132521009840125e+18
14042.0	2.1128270703493117e+18
14043.0	2.1123900305833981e+18
14044.0	2.1119921773608957e+18
14045.0	2.1115806020534264e+18
14046.0	2.1111606901473275e+18
14047.0	2.1107421522952187e+18
14048.0	2.110330170979123e+18
14049.0	2.1099135859949565e+18
14050.0	2.10949641380823e+18
14051.0	2.1090741027602427e+18
14052.0	2.1086578549981176e+18
14053.0	2.108245851871641e+18
14054.0	2.1078293809725437e+18
14055.0	2.107412842964582e+18
14056.0	2.10699636703232e+18
14057.0	2.1065800253177856e+18
14058.0	2.1061637221908477e+18
14059.0	2.1057475230826496e+18
14060.0	2.1053313021640696e+18
14061.0	2.1049106654822397e+18
14062.0	2.104498497939046e+18
14063.0	2.1040721469374461e+18
14064.0	2.1036274299174904e+18
14065.0	2.1032459546132475e+18
14066.0	2.1028368271015936e+18
14067.0	2.1024216816025597e+18
14068.0	2.10200636162048e+18
14069.0	2.1015906926723067e+18
14070.0	2.1011760119021565e+18
14071.0	2.1007591802929147e+18
14072.0	2.100346249386393e+18
14073.0	2.0999314897633277e+18
14074.0	2.0995167586615293e+18
14075.0	2.099086970008371e+18
14076.0	2.098684935903641e+18
14077.0	2.0982244768219133e+18
14078.0	2.0978514001919997e+18
14079.0	2.0974367294881787e+18
14080.0	2.0970300296396797e+18
14081.0	2.0966162414174205e+18
14082.0	2.0962014801166333e+18
14083.0	2.0957860678598648e+18
14084.0	2.0953663388254205e+18
14085.0	2.0947830621339643e+18
14086.0	2.0945276323758077e+18
14087.0	2.0941318041632765e+18
14088.0	2.0937112731779072e+18
14089.0	2.093307938838937e+18
14090.0	2.092894877070131e+18
14091.0	2.092482259897548e+18
14092.0	2.092069478308249e+18
14093.0	2.0916566329655293e+18
14094.0	2.0912437020590077e+18
14095.0	2.0908302795800573e+18
14096.0	2.090411496780595e+18
14097.0	2.0899907544023037e+18
14098.0	2.089590713430835e+18
14099.0	2.0891806732386307e+18
14100.0	2.0887611656634365e+18
14101.0	2.0883576971067387e+18
14102.0	2.0879456168050688e+18
14103.0	2.087523802362675e+18
14104.0	2.0871198405558267e+18
14105.0	2.0867108237737981e+18
14106.0	2.086299292087091e+18
14107.0	2.0858875943059453e+18
14108.0	2.0854660801757176e+18
14109.0	2.0850619774402552e+18
14110.0	2.084651959058432e+18
14111.0	2.0842362716553208e+18
14112.0	2.0838238256103421e+18
14113.0	2.0834198369599483e+18
14114.0	2.0829967910699005e+18
14115.0	2.0825934315651067e+18
14116.0	2.0821515180179456e+18
14117.0	2.081385505567539e+18
14118.0	2.081350771697254e+18
14119.0	2.0809442110996477e+18
14120.0	2.0805410311110653e+18
14121.0	2.080125159158579e+18
14122.0	2.0797222190841853e+18
14123.0	2.0793097495511035e+18
14124.0	2.0788801370587133e+18
14125.0	2.0781709339394043e+18
14126.0	2.0780704048611325e+18
14127.0	2.0776749340033021e+18
14128.0	2.0772668919775227e+18
14129.0	2.0768488423423997e+18
14130.0	2.076430269258137e+18
14131.0	2.076037489465753e+18
14132.0	2.075604155786854e+18
14133.0	2.074841441737113e+18
14134.0	2.074790170565017e+18
14135.0	2.0743928659574776e+18
14136.0	2.07399364371415e+18
14137.0	2.0735867861598203e+18
14138.0	2.0731779505717243e+18
14139.0	2.072771104761446e+18
14140.0	2.072361207175577e+18
14141.0	2.0719473250009088e+18
14142.0	2.0715313574182907e+18
14143.0	2.0711366616678397e+18
14144.0	2.0707322519093245e+18
14145.0	2.0703250302894075e+18
14146.0	2.0699169161215997e+18
14147.0	2.0695100115910653e+18
14148.0	2.0691030500179965e+18
14149.0	2.0686960884449277e+18
14150.0	2.0682887124746237e+18
14151.0	2.0678801587437565e+18
14152.0	2.0674747859730427e+18
14153.0	2.067067762324275e+18
14154.0	2.0666386950914045e+18
14155.0	2.0662499183427576e+18
14156.0	2.0658466662121467e+18
14157.0	2.065440149235302e+18
14158.0	2.0650312616378365e+18
14159.0	2.0646264156717053e+18
14160.0	2.0642059283070973e+18
14161.0	2.0637743663022075e+18
14162.0	2.0633335701176317e+18
14163.0	2.0629936989536248e+18
14164.0	2.0625784209145853e+18
14165.0	2.0621715096731643e+18
14166.0	2.061781332026982e+18
14167.0	2.061366857616588e+18
14168.0	2.0609738446209021e+18
14169.0	2.0605692436021245e+18
14170.0	2.0601619884277752e+18
14171.0	2.0597565535813627e+18
14172.0	2.0593527645798397e+18
14173.0	2.0589330036686843e+18
14174.0	2.0585364657799163e+18
14175.0	2.058138439752089e+18
14176.0	2.057734157500416e+18
14177.0	2.0573295833251837e+18
14178.0	2.0569244286582781e+18
14179.0	2.056517300990771e+18
14180.0	2.0561161124577275e+18
14181.0	2.0557118251728893e+18
14182.0	2.0553070312161275e+18
14183.0	2.054902995589529e+18
14184.0	2.0544948881326077e+18
14185.0	2.0540900035788792e+18
14186.0	2.0536123193294843e+18
14187.0	2.0532567883120637e+18
14188.0	2.0528793277956093e+18
14189.0	2.0524795787476987e+18
14190.0	2.0520762762854392e+18
14191.0	2.0516722792464381e+18
14192.0	2.051263438625177e+18
14193.0	2.0508569602359293e+18
14194.0	2.0504629775171576e+18
14195.0	2.0500615037714424e+18
14196.0	2.049658733146931e+18
14197.0	2.0492558585036797e+18
14198.0	2.0488498414878717e+18
14199.0	2.0484478979801083e+18
14200.0	2.0480084439728125e+18
14201.0	2.0476355988684797e+18
14202.0	2.0472422486507515e+18
14203.0	2.0468372013580288e+18
14204.0	2.0464359373275133e+18
14205.0	2.0460308162150397e+18
14206.0	2.0455461845204987e+18
14207.0	2.0452239747317755e+18
14208.0	2.0448265258401787e+18
14209.0	2.0443330324201462e+18
14210.0	2.043948849273241e+18
14211.0	2.0436189286760443e+18
14212.0	2.0432240466984955e+18
14213.0	2.0428241198120955e+18
14214.0	2.0424206613217275e+18
14215.0	2.042011471734374e+18
14216.0	2.041619094595174e+18
14217.0	2.0411470391017464e+18
14218.0	2.0407229177921533e+18
14219.0	2.0403325102981115e+18
14220.0	2.0399317210628096e+18
14221.0	2.0395306550034427e+18
14222.0	2.0391213462978555e+18
14223.0	2.038728873528525e+18
14224.0	2.0383261549133816e+18
14225.0	2.03779847791575e+18
14226.0	2.0375149396099064e+18
14227.0	2.037123723454054e+18
14228.0	2.0364163708616701e+18
14229.0	2.03623619362816e+18
14230.0	2.035925971160268e+18
14231.0	2.0355263714295803e+18
14232.0	2.0351288487182333e+18
14233.0	2.0347275830099965e+18
14234.0	2.0343296257687547e+18
14235.0	2.033856021738291e+18
14236.0	2.033440643035955e+18
14237.0	2.0330390736601083e+18
14238.0	2.03263671575511e+18
14239.0	2.0322137722060797e+18
14240.0	2.0307061682208765e+18
14241.0	2.0313943528439803e+18
14242.0	2.0310249068036093e+18
14243.0	2.0305393691394043e+18
14244.0	2.0302426254868475e+18
14245.0	2.0298406987563005e+18
14246.0	2.0294431542345725e+18
14247.0	2.029047762229657e+18
14248.0	2.0286428927754237e+18
14249.0	2.028254260310835e+18
14250.0	2.0278562879700987e+18
14251.0	2.0274596460625915e+18
14252.0	2.0270613063008253e+18
14253.0	2.026661884408627e+18
14254.0	2.026261432395366e+18
14255.0	2.0257479640219645e+18
14256.0	2.0252483955720187e+18
14257.0	2.0249294858616827e+18
14258.0	2.0245742115356672e+18
14259.0	2.0241620658028544e+18
14260.0	2.0237751748132861e+18
14261.0	2.0233642773053437e+18
14262.0	2.0230009079726075e+18
14263.0	2.022427447630233e+18
14264.0	2.0221159735820288e+18
14265.0	2.021808016038297e+18
14266.0	2.0214226802966525e+18
14267.0	2.0210275718266877e+18
14268.0	2.020631215131852e+18
14269.0	2.020226822150553e+18
14270.0	2.0198370689679355e+18
14271.0	2.019439224134041e+18
14272.0	2.019038850973696e+18
14273.0	2.0186210848735235e+18
14274.0	2.0179339035279355e+18
14275.0	2.0177771506434043e+18
14276.0	2.017438544481484e+18
14277.0	2.0170470498238461e+18
14278.0	2.0165661342826493e+18
14279.0	2.016169609815654e+18
14280.0	2.0157715485556733e+18
14281.0	2.0153801646276605e+18
14282.0	2.01498469376983e+18
14283.0	2.0145888924008443e+18
14284.0	2.0141930054680568e+18
14285.0	2.0137969457299456e+18
14286.0	2.0134004128743421e+18
14287.0	2.0130023113490424e+18
14288.0	2.0125870752530427e+18
14289.0	2.0114830924972022e+18
14290.0	2.011797999163801e+18
14291.0	2.011419988354662e+18
14292.0	2.0110272085622781e+18
14293.0	2.010627781636915e+18
14294.0	2.010143826064179e+18
14295.0	2.0098096155328512e+18
14296.0	2.0088755155107837e+18
14297.0	2.0090038712795133e+18
14298.0	2.0085347283107835e+18
14299.0	2.008246603114086e+18
14300.0	2.0078638762295293e+18
14301.0	2.007474012317286e+18
14302.0	2.0070826434887675e+18
14303.0	2.0065714081628155e+18
14304.0	2.0061780864663547e+18
14305.0	2.0057952287195133e+18
14306.0	2.0053980683960315e+18
14307.0	2.0050037987868664e+18
14308.0	2.004612478612275e+18
14309.0	2.0042160212541435e+18
14310.0	2.003807100102246e+18
14311.0	2.0034177260847101e+18
14312.0	2.00301729588183e+18
14313.0	2.0025831417970683e+18
14314.0	2.002249855690342e+18
14315.0	2.0018540073451517e+18
14316.0	2.0014311443267584e+18
14317.0	2.0010681256378368e+18
14318.0	2.0006800250109947e+18
14319.0	2.000288377680691e+18
14320.0	1.999895487158681e+18
14321.0	1.9994996455243773e+18
14322.0	1.9990848775127037e+18
14323.0	1.998699313600921e+18
14324.0	1.9983250692767736e+18
14325.0	1.9979245451214843e+18
14326.0	1.9975416135548925e+18
14327.0	1.9971431446085627e+18
14328.0	1.996752814289715e+18
14329.0	1.9963652958322688e+18
14330.0	1.9959657682436096e+18
14331.0	1.995471813450137e+18
14332.0	1.9950798003765243e+18
14333.0	1.994687710127718e+18
14334.0	1.9942955158601725e+18
14335.0	1.993894924596019e+18
14336.0	1.9934974723489792e+18
14337.0	1.9931168526827517e+18
14338.0	1.9927260492464125e+18
14339.0	1.9923265216577533e+18
14340.0	1.991944990988697e+18
14341.0	1.991553531563212e+18
14342.0	1.991160354150809e+18
14343.0	1.9907700036993021e+18
14344.0	1.9903761786863616e+18
14345.0	1.989988708882841e+18
14346.0	1.9895959072800763e+18
14347.0	1.9892002535505915e+18
14348.0	1.9888148708327421e+18
14349.0	1.988424674731622e+18
14350.0	1.9880226288828416e+18
14351.0	1.987627248621977e+18
14352.0	1.987245189470617e+18
14353.0	1.986861818340966e+18
14354.0	1.9864710031605752e+18
14355.0	1.9860787182960637e+18
14356.0	1.9856892016721917e+18
14357.0	1.985302459999846e+18
14358.0	1.9849127437271037e+18
14359.0	1.9845086007263227e+18
14360.0	1.984131955582566e+18
14361.0	1.983742569820979e+18
14362.0	1.983351974422118e+18
14363.0	1.9828481378484221e+18
14364.0	1.9824273300389883e+18
14365.0	1.9820531947667456e+18
14366.0	1.9816732126347261e+18
14367.0	1.981290697143091e+18
14368.0	1.9809012409171963e+18
14369.0	1.9805122510979064e+18
14370.0	1.9801229794213883e+18
14371.0	1.9797337681428475e+18
14372.0	1.9793399129309181e+18
14373.0	1.9789551761358843e+18
14374.0	1.978566144373555e+18
14375.0	1.978176199930675e+18
14376.0	1.9777883912273915e+18
14377.0	1.9773990155321336e+18
14378.0	1.977008822786457e+18
14379.0	1.9766218042900477e+18
14380.0	1.9762323094765563e+18
14381.0	1.975834540140134e+18
14382.0	1.9754549069742077e+18
14383.0	1.975066576499507e+18
14384.0	1.9746630089572347e+18
14385.0	1.974291380201062e+18
14386.0	1.9738867573719035e+18
14387.0	1.973514791393689e+18
14388.0	1.9731261857726461e+18
14389.0	1.972738306605056e+18
14390.0	1.97234976138199e+18
14391.0	1.9719632898228221e+18
14392.0	1.9715751304757245e+18
14393.0	1.97118798111703e+18
14394.0	1.970766344513126e+18
14395.0	1.9704037234442237e+18
14396.0	1.970024867063398e+18
14397.0	1.969637128824422e+18
14398.0	1.969248971155046e+18
14399.0	1.9688262306103293e+18
14400.0	1.9683401560752128e+18
14401.0	1.9679548924755965e+18
14402.0	1.9675564822495232e+18
14403.0	1.9667740314828797e+18
14404.0	1.9645868781076467e+18
14405.0	1.9650445588824044e+18
14406.0	1.9659794709217277e+18
14407.0	1.9651996390785021e+18
14408.0	1.9652133594857464e+18
14409.0	1.9648516594860032e+18
14410.0	1.964480320975667e+18
14411.0	1.964097676299468e+18
14412.0	1.9637106393481216e+18
14413.0	1.963327350426828e+18
14414.0	1.9629396272873464e+18
14415.0	1.9625540533092347e+18
14416.0	1.9621683249807355e+18
14417.0	1.9617800179941368e+18
14418.0	1.9613922311012347e+18
14419.0	1.9610074724958205e+18
14420.0	1.960617675692441e+18
14421.0	1.9602323600834555e+18
14422.0	1.9598335287492608e+18
14423.0	1.9593848489508856e+18
14424.0	1.9572891330805752e+18
14425.0	1.958598145159987e+18
14426.0	1.9582946604220416e+18
14427.0	1.9579196359573496e+18
14428.0	1.9575163267842045e+18
14429.0	1.9571498083680248e+18
14430.0	1.956763576723046e+18
14431.0	1.956321550768537e+18
14432.0	1.955979006994022e+18
14433.0	1.9552720738320381e+18
14434.0	1.9552016279797755e+18
14435.0	1.954831358178099e+18
14436.0	1.9544585952821243e+18
14437.0	1.9540749188071421e+18
14438.0	1.9536809159557112e+18
14439.0	1.9533020310536187e+18
14440.0	1.952879152935731e+18
14441.0	1.9524100300996603e+18
14442.0	1.9520213120712696e+18
14443.0	1.951606810817331e+18
14444.0	1.9512512563118077e+18
14445.0	1.950858083932569e+18
14446.0	1.9496477554376707e+18
14447.0	1.9500410167361533e+18
14448.0	1.9497182751096832e+18
14449.0	1.9493391939141627e+18
14450.0	1.9489509288706045e+18
14451.0	1.9485690056146941e+18
14452.0	1.9481875185664e+18
14453.0	1.947801523480166e+18
14454.0	1.947420135417446e+18
14455.0	1.9470297899991037e+18
14456.0	1.9466520727912443e+18
14457.0	1.946267966819532e+18
14458.0	1.9458841309609981e+18
14459.0	1.9454991659958264e+18
14460.0	1.94511434195927e+18
14461.0	1.9447194549485565e+18
14462.0	1.9443419222900733e+18
14463.0	1.9439617723858941e+18
14464.0	1.9435815738277888e+18
14465.0	1.943184354784051e+18
14466.0	1.9428148852555773e+18
14467.0	1.94241774003159e+18
14468.0	1.9420471346855933e+18
14469.0	1.9416510044831741e+18
14470.0	1.9412647812268027e+18
14471.0	1.9408975766224893e+18
14472.0	1.9405172505575421e+18
14473.0	1.9401390686207992e+18
14474.0	1.9397589656928256e+18
14475.0	1.9393736769273848e+18
14476.0	1.9389747768066045e+18
14477.0	1.93861188059136e+18
14478.0	1.938227734354329e+18
14479.0	1.9378481297096704e+18
14480.0	1.937450568410726e+18
14481.0	1.9370836641185787e+18
14482.0	1.936697066730291e+18
14483.0	1.936311298136473e+18
14484.0	1.935920149089484e+18
14485.0	1.9355105618821115e+18
14486.0	1.934949869001113e+18
14487.0	1.9347822008598525e+18
14488.0	1.9344068945379325e+18
14489.0	1.934024169331097e+18
14490.0	1.9335365663916027e+18
14491.0	1.9331421038444541e+18
14492.0	1.9327619170304e+18
14493.0	1.9323735714562043e+18
14494.0	1.931978362322944e+18
14495.0	1.9316053645459453e+18
14496.0	1.9311374060486653e+18
14497.0	1.9308480779255803e+18
14498.0	1.9304718656339965e+18
14499.0	1.9300908584140792e+18
14500.0	1.929708180183449e+18
14501.0	1.9293038727659517e+18
14502.0	1.9287862587424765e+18
14503.0	1.928548708463411e+18
14504.0	1.928176797850009e+18
14505.0	1.9277893666340861e+18
14506.0	1.9273893290180605e+18
14507.0	1.926857185925529e+18
14508.0	1.9266528377569277e+18
14509.0	1.9262795077910525e+18
14510.0	1.9258969906216955e+18
14511.0	1.925517132641075e+18
14512.0	1.9251273945579517e+18
14513.0	1.9247513919815675e+18
14514.0	1.9243480861638653e+18
14515.0	1.9239584588103677e+18
14516.0	1.9217633396129797e+18
14517.0	1.92313484682199e+18
14518.0	1.9228450220933115e+18
14519.0	1.9224736500285437e+18
14520.0	1.9220961509244925e+18
14521.0	1.921716865046937e+18
14522.0	1.921335775618662e+18
14523.0	1.9209342330863616e+18
14524.0	1.9205547760812027e+18
14525.0	1.9201927589920768e+18
14526.0	1.9198148689788928e+18
14527.0	1.91940686554071e+18
14528.0	1.918966834397184e+18
14529.0	1.9186687267569661e+18
14530.0	1.9182857213706237e+18
14531.0	1.9179173255839741e+18
14532.0	1.9175171554279421e+18
14533.0	1.9171593141878781e+18
14534.0	1.9167838149279744e+18
14535.0	1.916394454332211e+18
14536.0	1.916021008603545e+18
14537.0	1.9156358523781115e+18
14538.0	1.9152668727443453e+18
14539.0	1.9148883200311293e+18
14540.0	1.9145089284571133e+18
14541.0	1.9141082214301693e+18
14542.0	1.9137457480007677e+18
14543.0	1.9133449252110333e+18
14544.0	1.9129815156129787e+18
14545.0	1.9125743493578744e+18
14546.0	1.9098443121164278e+18
14547.0	1.9095011962388465e+18
14548.0	1.9112922613547003e+18
14549.0	1.9108659556515837e+18
14550.0	1.9105714148474875e+18
14551.0	1.9102099044302845e+18
14552.0	1.9098319724740603e+18
14553.0	1.9094499250667517e+18
14554.0	1.9090768434036733e+18
14555.0	1.9086976766443512e+18
14556.0	1.9083174378209277e+18
14557.0	1.9079343938469883e+18
14558.0	1.9075207230652416e+18
14559.0	1.905805516131531e+18
14560.0	1.9067604282900477e+18
14561.0	1.9064157152215035e+18
14562.0	1.9060251802206203e+18
14563.0	1.9056695955161083e+18
14564.0	1.9052911518547965e+18
14565.0	1.9049158455328763e+18
14566.0	1.9045381954338813e+18
14567.0	1.9041596326543355e+18
14568.0	1.9037749495463933e+18
14569.0	1.903388722934579e+18
14570.0	1.9026460492693496e+18
14571.0	1.902635769869107e+18
14572.0	1.902239617856307e+18
14573.0	1.9018503596015616e+18
14574.0	1.9015100891398141e+18
14575.0	1.9011358196498427e+18
14576.0	1.9007563995545597e+18
14577.0	1.900377127098777e+18
14578.0	1.9000055453188093e+18
14579.0	1.8996297138700283e+18
14580.0	1.8992526241300477e+18
14581.0	1.89887327282135e+18
14582.0	1.8984977634951165e+18
14583.0	1.8981202560024573e+18
14584.0	1.8977358396522493e+18
14585.0	1.8973655782391805e+18
14586.0	1.8969873023500283e+18
14587.0	1.8966121503784955e+18
14588.0	1.8962356780400637e+18
14589.0	1.8958606200209405e+18
14590.0	1.8954855485800443e+18
14591.0	1.8951095426482173e+18
14592.0	1.894721138353766e+18
14593.0	1.8942728813412347e+18
14594.0	1.89397961057239e+18
14595.0	1.8936033882144765e+18
14596.0	1.893201151105433e+18
14597.0	1.892820796519219e+18
14598.0	1.892481443771187e+18
14599.0	1.8921132191121405e+18
14600.0	1.891739134171545e+18
14601.0	1.89136475562967e+18
14602.0	1.8909897882075133e+18
14603.0	1.8906141798957053e+18
14604.0	1.8902113992048635e+18
14605.0	1.8898608224993277e+18
14606.0	1.8894316747358205e+18
14607.0	1.8891139444637693e+18
14608.0	1.8887431713456125e+18
14609.0	1.888369715550617e+18
14610.0	1.8879949913980925e+18
14611.0	1.887528918659891e+18
14612.0	1.887123503946137e+18
14613.0	1.886749759583027e+18
14614.0	1.8863731127615483e+18
14615.0	1.886000564613939e+18
14616.0	1.8856268890374144e+18
14617.0	1.885251854506393e+18
14618.0	1.884873068589875e+18
14619.0	1.8844572385804283e+18
14620.0	1.884049035493376e+18
14621.0	1.8837516106858496e+18
14622.0	1.8833777069391864e+18
14623.0	1.8830049574649853e+18
14624.0	1.88259169772503e+18
14625.0	1.8822518248833021e+18
14626.0	1.8818847461081083e+18
14627.0	1.881509758553292e+18
14628.0	1.8811378949160952e+18
14629.0	1.8807641052545021e+18
14630.0	1.880389411300966e+18
14631.0	1.8800130295595005e+18
14632.0	1.879502044214067e+18
14633.0	1.8792301375520765e+18
14634.0	1.8788916790296573e+18
14635.0	1.8785156898750461e+18
14636.0	1.8781322331815933e+18
14637.0	1.877772804816896e+18
14638.0	1.8773961462513661e+18
14639.0	1.8770135904944125e+18
14640.0	1.8766235537768445e+18
14641.0	1.8757134401404925e+18
14642.0	1.8758744376606715e+18
14643.0	1.8755255755866112e+18
14644.0	1.875143893922611e+18
14645.0	1.8747663662972925e+18
14646.0	1.8744012437454843e+18
14647.0	1.8740277929836541e+18
14648.0	1.8736598417932283e+18
