# Flux units: erg / (cm m2 s)
# Wavelength units: Angstrom
wave	flux
14000.0	1.8428826732199933e+18
14001.0	1.8424429574881277e+18
14002.0	1.842256883063193e+18
14003.0	1.8419210451419133e+18
14004.0	1.8415841854881787e+18
14005.0	1.8412471446405117e+18
14006.0	1.8409007672721403e+18
14007.0	1.8405623641145341e+18
14008.0	1.840119707336704e+18
14009.0	1.8398961459003384e+18
14010.0	1.8395455238963197e+18
14011.0	1.8384531711066112e+18
14012.0	1.8388865987379197e+18
14013.0	1.8385529250775037e+18
14014.0	1.8382099702611965e+18
14015.0	1.837877724341862e+18
14016.0	1.8375442587189243e+18
14017.0	1.8372082110824443e+18
14018.0	1.8368720241950715e+18
14019.0	1.8365360403120125e+18
14020.0	1.8361991521370107e+18
14021.0	1.835862414956953e+18
14022.0	1.8355243842535421e+18
14023.0	1.8351762888982528e+18
14024.0	1.8348379025178621e+18
14025.0	1.8345202074779643e+18
14026.0	1.8341832907816952e+18
14027.0	1.8338499929309184e+18
14028.0	1.8335070095933437e+18
14029.0	1.8331735288709117e+18
14030.0	1.8318479912337416e+18
14031.0	1.8324622453768187e+18
14032.0	1.8321707966136315e+18
14033.0	1.831784474371686e+18
14034.0	1.8315015585005563e+18
14035.0	1.831169074344755e+18
14036.0	1.8308346742308861e+18
14037.0	1.8305001398992893e+18
14038.0	1.8301656055676925e+18
14039.0	1.829826157189529e+18
14040.0	1.8294905021399037e+18
14041.0	1.829159776236339e+18
14042.0	1.8288148635189243e+18
14043.0	1.8284447614894077e+18
14044.0	1.828144363759206e+18
14045.0	1.8278206792531965e+18
14046.0	1.827486181831475e+18
14047.0	1.827145938213273e+18
14048.0	1.826821324249497e+18
14049.0	1.8264898953805821e+18
14050.0	1.8261562619854845e+18
14051.0	1.8258121965174781e+18
14052.0	1.8254843596505088e+18
14053.0	1.8251554372976637e+18
14054.0	1.824822265276006e+18
14055.0	1.824488935548518e+18
14056.0	1.8241556376977405e+18
14057.0	1.8238225092968445e+18
14058.0	1.8234893892845565e+18
14059.0	1.823156351480627e+18
14060.0	1.8228233606529021e+18
14061.0	1.822482065103257e+18
14062.0	1.8221574746275835e+18
14063.0	1.8218057939812352e+18
14064.0	1.8213032173764605e+18
14065.0	1.8211488837664763e+18
14066.0	1.8208270900527104e+18
14067.0	1.8204890710933504e+18
14068.0	1.820162314679091e+18
14069.0	1.8198274062155776e+18
14070.0	1.8194970913538043e+18
14071.0	1.8191620654497787e+18
14072.0	1.8188335390392317e+18
14073.0	1.8185015347118075e+18
14074.0	1.8181696142704635e+18
14075.0	1.8178165998354427e+18
14076.0	1.8174986598481917e+18
14077.0	1.8169541704024061e+18
14078.0	1.816825589818982e+18
14079.0	1.816498757907251e+18
14080.0	1.8161795344629755e+18
14081.0	1.8158482096127997e+18
14082.0	1.8155147423121403e+18
14083.0	1.815183603689062e+18
14084.0	1.8148526110277624e+18
14085.0	1.8141503838748672e+18
14086.0	1.814171380560691e+18
14087.0	1.8138607386623997e+18
14088.0	1.8135149585629181e+18
14089.0	1.813194312410726e+18
14090.0	1.812864573007462e+18
14091.0	1.8125381940805627e+18
14092.0	1.8122077634559997e+18
14093.0	1.8118772254572541e+18
14094.0	1.8115466320936952e+18
14095.0	1.8112155706458112e+18
14096.0	1.8108428362711037e+18
14097.0	1.810533635535667e+18
14098.0	1.810206043616051e+18
14099.0	1.8098949755764733e+18
14100.0	1.8095504604790781e+18
14101.0	1.8092357719162877e+18
14102.0	1.808905666769715e+18
14103.0	1.808557237547827e+18
14104.0	1.8082430288134141e+18
14105.0	1.8079166381424635e+18
14106.0	1.8075871319425021e+18
14107.0	1.807257075449856e+18
14108.0	1.8069145551634427e+18
14109.0	1.8065928151367675e+18
14110.0	1.8062660788551677e+18
14111.0	1.8059279776874493e+18
14112.0	1.8056013739458555e+18
14113.0	1.805281561621299e+18
14114.0	1.8049366069608445e+18
14115.0	1.80462004773847e+18
14116.0	1.804259988550451e+18
14117.0	1.802222870462464e+18
14118.0	1.8036298648387581e+18
14119.0	1.8032748488818685e+18
14120.0	1.8029564508766203e+18
14121.0	1.8026334676582397e+18
14122.0	1.8022944504545277e+18
14123.0	1.8019763611500541e+18
14124.0	1.8016434105876477e+18
14125.0	1.800775270190284e+18
14126.0	1.8010047288180733e+18
14127.0	1.8006819972579323e+18
14128.0	1.8003528937111547e+18
14129.0	1.8000126400266237e+18
14130.0	1.7996738140831741e+18
14131.0	1.7993709954007035e+18
14132.0	1.7990338421456893e+18
14133.0	1.7980581228838894e+18
14134.0	1.7983846695829504e+18
14135.0	1.7980417634205693e+18
14136.0	1.797712386405171e+18
14137.0	1.7974012864888824e+18
14138.0	1.7970606855159805e+18
14139.0	1.7967508355022848e+18
14140.0	1.7964195274293243e+18
14141.0	1.7960798945017856e+18
14142.0	1.7956491428364285e+18
14143.0	1.7954388890877947e+18
14144.0	1.7951170450423805e+18
14145.0	1.7947887736455165e+18
14146.0	1.7944595140706304e+18
14147.0	1.7941353933570048e+18
14148.0	1.7938076252766205e+18
14149.0	1.7934822731153403e+18
14150.0	1.793158672495411e+18
14151.0	1.7928254484643835e+18
14152.0	1.7925062619299835e+18
14153.0	1.7921799316570107e+18
14154.0	1.7918236842524664e+18
14155.0	1.7914712754749437e+18
14156.0	1.791194671192473e+18
14157.0	1.7908759980408827e+18
14158.0	1.790545334213017e+18
14159.0	1.7902244313694205e+18
14160.0	1.7898904171315197e+18
14161.0	1.7895003753807864e+18
14162.0	1.7891188480671736e+18
14163.0	1.7889176825364477e+18
14164.0	1.7885352291205115e+18
14165.0	1.7882190792622077e+18
14166.0	1.787943936275251e+18
14167.0	1.7876038503628797e+18
14168.0	1.787293117867622e+18
14169.0	1.7869711966470141e+18
14170.0	1.7866418464751613e+18
14171.0	1.786317749249638e+18
14172.0	1.7859965343498237e+18
14173.0	1.785632774107955e+18
14174.0	1.7853410753642493e+18
14175.0	1.785022687425331e+18
14176.0	1.7846982932430843e+18
14177.0	1.7843738940276733e+18
14178.0	1.784048753259315e+18
14179.0	1.7837175726931965e+18
14180.0	1.7834009983713277e+18
14181.0	1.783076832359219e+18
14182.0	1.7827517134012408e+18
14183.0	1.782428550666649e+18
14184.0	1.7820981150089208e+18
14185.0	1.7817784872337403e+18
14186.0	1.781130901795635e+18
14187.0	1.781098043618099e+18
14188.0	1.7808040296185853e+18
14189.0	1.7804826771455997e+18
14190.0	1.7801595580317693e+18
14191.0	1.779834974266982e+18
14192.0	1.779504558741913e+18
14193.0	1.77914032202711e+18
14194.0	1.7788652193054717e+18
14195.0	1.7785458465439741e+18
14196.0	1.7782224740941821e+18
14197.0	1.7778994338332664e+18
14198.0	1.777570097083187e+18
14199.0	1.7772510447665152e+18
14200.0	1.7767343786557437e+18
14201.0	1.776597236658995e+18
14202.0	1.776283230928896e+18
14203.0	1.7759538757238781e+18
14204.0	1.7756366017921021e+18
14205.0	1.7753139037863933e+18
14206.0	1.7748420781408259e+18
14207.0	1.7746715092189184e+18
14208.0	1.7743503245180928e+18
14209.0	1.773863951348531e+18
14210.0	1.7735924137852918e+18
14211.0	1.773377965732659e+18
14212.0	1.7730613863776253e+18
14213.0	1.7727397403033595e+18
14214.0	1.7724177251303421e+18
14215.0	1.7720811959877632e+18
14216.0	1.7717757785145336e+18
14217.0	1.7714541592838144e+18
14218.0	1.7711182894858237e+18
14219.0	1.7708109208223744e+18
14220.0	1.7704876507135995e+18
14221.0	1.7701462830219267e+18
14222.0	1.7697590917201917e+18
14223.0	1.7694560264126461e+18
14224.0	1.7691338703110144e+18
14225.0	1.7682061103988733e+18
14226.0	1.7684852799176707e+18
14227.0	1.7681693800398843e+18
14228.0	1.7662441223618565e+18
14229.0	1.7672513408466929e+18
14230.0	1.7672072570339325e+18
14231.0	1.7668778531749885e+18
14232.0	1.7665665770979328e+18
14233.0	1.7662421426503677e+18
14234.0	1.76592524452823e+18
14235.0	1.7656014761361403e+18
14236.0	1.7652839002144765e+18
14237.0	1.764961624994611e+18
14238.0	1.7646417539497981e+18
14239.0	1.7642864896901115e+18
14240.0	1.7618845443293187e+18
14241.0	1.7635683057270781e+18
14242.0	1.76325611529175e+18
14243.0	1.7627515002552317e+18
14244.0	1.7626202638385147e+18
14245.0	1.7622865012588541e+18
14246.0	1.7619639274045437e+18
14247.0	1.7616548441096187e+18
14248.0	1.7613196537888763e+18
14249.0	1.7610150382665725e+18
14250.0	1.760698054580633e+18
14251.0	1.7603812520886264e+18
14252.0	1.7600613089017853e+18
14253.0	1.7597404798779387e+18
14254.0	1.759418263378329e+18
14255.0	1.7590574156611581e+18
14256.0	1.7581461628518403e+18
14257.0	1.7584130615148536e+18
14258.0	1.7581423208693757e+18
14259.0	1.7577750357344253e+18
14260.0	1.757411106042675e+18
14261.0	1.7570916678500347e+18
14262.0	1.756818809919897e+18
14263.0	1.7555710682333187e+18
14264.0	1.7559756306644987e+18
14265.0	1.7558570593681403e+18
14266.0	1.7555451373682685e+18
14267.0	1.7552279959764987e+18
14268.0	1.7549093228249088e+18
14269.0	1.754579308275302e+18
14270.0	1.7542714111295485e+18
14271.0	1.7539515501510653e+18
14272.0	1.7536319894847485e+18
14273.0	1.7533038472724477e+18
14274.0	1.751567168857703e+18
14275.0	1.7525277064167421e+18
14276.0	1.7523400884879357e+18
14277.0	1.752026542453555e+18
14278.0	1.751722626541158e+18
14279.0	1.7514035389923325e+18
14280.0	1.7510779351728125e+18
14281.0	1.7507688418115581e+18
14282.0	1.7504176225386496e+18
14283.0	1.7500644671750141e+18
14284.0	1.7497461916434427e+18
14285.0	1.749427605733376e+18
14286.0	1.7491079880245243e+18
14287.0	1.7487911989542907e+18
14288.0	1.748470108205875e+18
14289.0	1.7468591632809956e+18
14290.0	1.747833820545024e+18
14291.0	1.7475185246470141e+18
14292.0	1.7471995578941437e+18
14293.0	1.7468813779927035e+18
14294.0	1.7463972143824893e+18
14295.0	1.7462300495577085e+18
14296.0	1.7448866055979013e+18
14297.0	1.745605271067033e+18
14298.0	1.7449821585539072e+18
14299.0	1.7449582241775608e+18
14300.0	1.7446518621470717e+18
14301.0	1.7443402387816443e+18
14302.0	1.7440248841633787e+18
14303.0	1.7436675630170112e+18
14304.0	1.7433710810890237e+18
14305.0	1.7430734029455352e+18
14306.0	1.7427392679116795e+18
14307.0	1.74240887251927e+18
14308.0	1.7420502997925885e+18
14309.0	1.7417242413105147e+18
14310.0	1.7413306897661947e+18
14311.0	1.7409456811802621e+18
14312.0	1.7407188901298168e+18
14313.0	1.7403117423296512e+18
14314.0	1.7401440641220603e+18
14315.0	1.7398361501990912e+18
14316.0	1.739458310517555e+18
14317.0	1.739184909005619e+18
14318.0	1.7388911919628285e+18
14319.0	1.7385766074187776e+18
14320.0	1.7382601270493181e+18
14321.0	1.73794119385088e+18
14322.0	1.7375793764106237e+18
14323.0	1.737289548326502e+18
14324.0	1.736997218759475e+18
14325.0	1.736669856687718e+18
14326.0	1.736365747837337e+18
14327.0	1.7360418888482816e+18
14328.0	1.7357259503828987e+18
14329.0	1.735418581719449e+18
14330.0	1.7351029653766141e+18
14331.0	1.7347870134894584e+18
14332.0	1.7344717595344893e+18
14333.0	1.734156312641536e+18
14334.0	1.733840835549593e+18
14335.0	1.733476308588953e+18
14336.0	1.733077499065139e+18
14337.0	1.7328228511252477e+18
14338.0	1.7325073857773565e+18
14339.0	1.732181771891507e+18
14340.0	1.7318796729516027e+18
14341.0	1.7315611038187523e+18
14342.0	1.731246827975475e+18
14343.0	1.7309314649686016e+18
14344.0	1.7306135283367928e+18
14345.0	1.730303889716019e+18
14346.0	1.7299836059516925e+18
14347.0	1.7296438421618688e+18
14348.0	1.7293566665555963e+18
14349.0	1.729044075144806e+18
14350.0	1.7286796404588536e+18
14351.0	1.728355835156889e+18
14352.0	1.7280883794903037e+18
14353.0	1.7277835072765952e+18
14354.0	1.727463985197875e+18
14355.0	1.727138044156313e+18
14356.0	1.7268281740099581e+18
14357.0	1.7265283869704187e+18
14358.0	1.7262141262266365e+18
14359.0	1.725881574961971e+18
14360.0	1.7255807695454205e+18
14361.0	1.725269451525324e+18
14362.0	1.7249572527013885e+18
14363.0	1.7246423393239037e+18
14364.0	1.724170441536307e+18
14365.0	1.723919310100889e+18
14366.0	1.7235279278505984e+18
14367.0	1.723216166911999e+18
14368.0	1.7228624360898557e+18
14369.0	1.722549123258777e+18
14370.0	1.7222352836231163e+18
14371.0	1.7219215664611328e+18
14372.0	1.7216010276831232e+18
14373.0	1.7212921155158013e+18
14374.0	1.7209793882095613e+18
14375.0	1.7206632584839163e+18
14376.0	1.7203524723015677e+18
14377.0	1.7200379632549885e+18
14378.0	1.7197217496432637e+18
14379.0	1.7194115187867648e+18
14380.0	1.7190969325649915e+18
14381.0	1.7187697416208381e+18
14382.0	1.7184690888769533e+18
14383.0	1.7181535564201984e+18
14384.0	1.7178217769074685e+18
14385.0	1.7175310562754552e+18
14386.0	1.717195891120537e+18
14387.0	1.716904199087718e+18
14388.0	1.7165888998342653e+18
14389.0	1.7162777982402557e+18
14390.0	1.7159624083898368e+18
14391.0	1.715652217798656e+18
14392.0	1.7153378849128448e+18
14393.0	1.7150265333383163e+18
14394.0	1.714666408719155e+18
14395.0	1.7143867946041341e+18
14396.0	1.7140879202451453e+18
14397.0	1.7137753338675197e+18
14398.0	1.7134430007066616e+18
14399.0	1.713130261656371e+18
14400.0	1.7127927443357693e+18
14401.0	1.7124960224935933e+18
14402.0	1.7121868670566397e+18
14403.0	1.711011888155851e+18
14404.0	1.7067905443168225e+18
14405.0	1.7090737942298565e+18
14406.0	1.7108685385891835e+18
14407.0	1.7093302624976896e+18
14408.0	1.7102321401987067e+18
14409.0	1.709914696817049e+18
14410.0	1.7096164818026493e+18
14411.0	1.7093155606233085e+18
14412.0	1.7090002831802365e+18
14413.0	1.7086931628195835e+18
14414.0	1.7083778014904312e+18
14415.0	1.708067094160998e+18
14416.0	1.7077545497264125e+18
14417.0	1.707434697136537e+18
14418.0	1.7071098667466744e+18
14419.0	1.7068173425639421e+18
14420.0	1.7065006357020672e+18
14421.0	1.706193990136627e+18
14422.0	1.7058747213938685e+18
14423.0	1.705535115309875e+18
14424.0	1.7002390112698335e+18
14425.0	1.7049181180919803e+18
14426.0	1.704633504366592e+18
14427.0	1.704323531879219e+18
14428.0	1.7039856253272061e+18
14429.0	1.703697535362662e+18
14430.0	1.7033895711080443e+18
14431.0	1.7028040093597693e+18
14432.0	1.7027603936313344e+18
14433.0	1.7015124069974008e+18
14434.0	1.7021217269612536e+18
14435.0	1.7017904960634875e+18
14436.0	1.7015224196399104e+18
14437.0	1.7012122558922747e+18
14438.0	1.700852778873651e+18
14439.0	1.700579994763264e+18
14440.0	1.7002780736618493e+18
14441.0	1.6999562027728893e+18
14442.0	1.6996366488174587e+18
14443.0	1.6992731234566144e+18
14444.0	1.6990274714599421e+18
14445.0	1.698675118047232e+18
14446.0	1.6964930196471816e+18
14447.0	1.698016548565811e+18
14448.0	1.6977282572746747e+18
14449.0	1.6974183183417344e+18
14450.0	1.697100225681817e+18
14451.0	1.6967914309550075e+18
14452.0	1.6964836042735613e+18
14453.0	1.696159674820198e+18
14454.0	1.695862702997504e+18
14455.0	1.6955405150191608e+18
14456.0	1.6952347687124987e+18
14457.0	1.6949243264630781e+18
14458.0	1.6946151978696704e+18
14459.0	1.6942999757914107e+18
14460.0	1.6939832437637115e+18
14461.0	1.6936221695541243e+18
14462.0	1.6932240797728763e+18
14463.0	1.6930351599321088e+18
14464.0	1.6927463720353787e+18
14465.0	1.6924090459750397e+18
14466.0	1.6921294368931837e+18
14467.0	1.691789651292979e+18
14468.0	1.6915079148601344e+18
14469.0	1.6911598094385147e+18
14470.0	1.6908524994953213e+18
14471.0	1.6905705617358848e+18
14472.0	1.690266798496153e+18
14473.0	1.6899617199226877e+18
14474.0	1.6896549703385085e+18
14475.0	1.6893422379991037e+18
14476.0	1.6889754477920253e+18
14477.0	1.6887240143667197e+18
14478.0	1.6884118239313912e+18
14479.0	1.6881008263561213e+18
14480.0	1.6877717546860536e+18
14481.0	1.6874857836838912e+18
14482.0	1.6871707964866552e+18
14483.0	1.6868518314115067e+18
14484.0	1.6865412985651195e+18
14485.0	1.686192134501171e+18
14486.0	1.6855383851139075e+18
14487.0	1.6856241384980477e+18
14488.0	1.685304878143897e+18
14489.0	1.6849817170870267e+18
14490.0	1.684687914480435e+18
14491.0	1.68438563602432e+18
14492.0	1.6840779989254144e+18
14493.0	1.6837596797730816e+18
14494.0	1.6834155421630461e+18
14495.0	1.6830864386162685e+18
14496.0	1.6825595702804477e+18
14497.0	1.6823842970271744e+18
14498.0	1.6820765861085181e+18
14499.0	1.6817670196297725e+18
14500.0	1.6814566478446584e+18
14501.0	1.68111234917335e+18
14502.0	1.6805308542222339e+18
14503.0	1.6805040056434685e+18
14504.0	1.6802099580895224e+18
14505.0	1.6798816330055677e+18
14506.0	1.6795438522826747e+18
14507.0	1.6789620033323005e+18
14508.0	1.67897879061463e+18
14509.0	1.67867045726126e+18
14510.0	1.6783564934742013e+18
14511.0	1.6780510172807163e+18
14512.0	1.6777213282091005e+18
14513.0	1.677431297120665e+18
14514.0	1.677078749092249e+18
14515.0	1.6768064364216315e+18
14516.0	1.6731717062623258e+18
14517.0	1.6761768948793341e+18
14518.0	1.6758829949648888e+18
14519.0	1.6755749485019133e+18
14520.0	1.6752644928307195e+18
14521.0	1.6749559027859453e+18
14522.0	1.6746451904233472e+18
14523.0	1.6742585041158144e+18
14524.0	1.67396487766999e+18
14525.0	1.673711018259251e+18
14526.0	1.6734059480743928e+18
14527.0	1.6730718163959803e+18
14528.0	1.672606124500582e+18
14529.0	1.6724660699791357e+18
14530.0	1.6721472240222205e+18
14531.0	1.6718589008543744e+18
14532.0	1.6714715971452925e+18
14533.0	1.671242106640793e+18
14534.0	1.6709350131236861e+18
14535.0	1.6706113990819837e+18
14536.0	1.670311018128998e+18
14537.0	1.6699877798969341e+18
14538.0	1.6696973545439232e+18
14539.0	1.6693882158841853e+18
14540.0	1.669078745035571e+18
14541.0	1.6687397328650237e+18
14542.0	1.668456617345024e+18
14543.0	1.668097655386931e+18
14544.0	1.6678378820075515e+18
14545.0	1.6675145515007995e+18
14546.0	1.660665316822217e+18
14547.0	1.660847373103918e+18
14548.0	1.6665757572136957e+18
14549.0	1.6661302566977533e+18
14550.0	1.6659712640548861e+18
14551.0	1.66561674470359e+18
14552.0	1.6653061900468221e+18
14553.0	1.6649866595794936e+18
14554.0	1.6646890753884157e+18
14555.0	1.6643792555737088e+18
14556.0	1.664068338529075e+18
14557.0	1.6637594146177016e+18
14558.0	1.6634436305027072e+18
14559.0	1.6606766431207378e+18
14560.0	1.6628199307870205e+18
14561.0	1.662511043785523e+18
14562.0	1.6621762745729021e+18
14563.0	1.6618990126235643e+18
14564.0	1.661570940875571e+18
14565.0	1.6612834750234621e+18
14566.0	1.6609741132267515e+18
14567.0	1.6606626391785467e+18
14568.0	1.660337516865126e+18
14569.0	1.6600412882731003e+18
14570.0	1.6590459799339e+18
14571.0	1.659418801550131e+18
14572.0	1.6590608596467707e+18
14573.0	1.658738351223603e+18
14574.0	1.6584483587227648e+18
14575.0	1.658176447027609e+18
14576.0	1.6578640133226493e+18
14577.0	1.6575576613584893e+18
14578.0	1.6572527253913597e+18
14579.0	1.6569475662872576e+18
14580.0	1.656637897467494e+18
14581.0	1.6563216570122237e+18
14582.0	1.6560131625975805e+18
14583.0	1.655707639427891e+18
14584.0	1.6553755210153981e+18
14585.0	1.6550872800559104e+18
14586.0	1.6547732860698621e+18
14587.0	1.654466370391244e+18
14588.0	1.6541575169441787e+18
14589.0	1.6538517119172605e+18
14590.0	1.6535458397814781e+18
14591.0	1.653236964524032e+18
14592.0	1.652921722313113e+18
14593.0	1.6524698833649656e+18
14594.0	1.652319933641523e+18
14595.0	1.6520033677082624e+18
14596.0	1.651556962900377e+18
14597.0	1.651220542809702e+18
14598.0	1.6510770707693563e+18
14599.0	1.650774324228915e+18
14600.0	1.6502721402109947e+18
14601.0	1.649967012983603e+18
14602.0	1.6496536011669504e+18
14603.0	1.649353297389158e+18
14604.0	1.6489842170920957e+18
14605.0	1.6487123725058043e+18
14606.0	1.6483328517472253e+18
14607.0	1.6481175749001208e+18
14608.0	1.6478161017503741e+18
14609.0	1.647504022044672e+18
14610.0	1.6471671187701757e+18
14611.0	1.6468865449983995e+18
14612.0	1.6465941969764347e+18
14613.0	1.6462899706855421e+18
14614.0	1.6459770269532157e+18
14615.0	1.6456711799832568e+18
14616.0	1.6453140920401915e+18
14617.0	1.6450042890027005e+18
14618.0	1.6446898420318203e+18
14619.0	1.6442789160026104e+18
14620.0	1.6436976223780861e+18
14621.0	1.6437758125932544e+18
14622.0	1.6434652948463616e+18
14623.0	1.6431615467061243e+18
14624.0	1.6427760398368765e+18
14625.0	1.642541207466803e+18
14626.0	1.6422327096967165e+18
14627.0	1.6419229385359357e+18
14628.0	1.6416223210242048e+18
14629.0	1.641313939016908e+18
14630.0	1.641001005350912e+18
14631.0	1.6406952556888061e+18
14632.0	1.6399717634146304e+18
14633.0	1.6400239673999357e+18
14634.0	1.639765714036326e+18
14635.0	1.639392169322086e+18
14636.0	1.638953876298137e+18
14637.0	1.6388464920494077e+18
14638.0	1.6385285268963325e+18
14639.0	1.6382069798076413e+18
14640.0	1.6379088201580541e+18
14641.0	1.636013078636133e+18
14642.0	1.6372876051480576e+18
14643.0	1.636988360012595e+18
14644.0	1.6366636638404605e+18
14645.0	1.6363378721161213e+18
14646.0	1.636043970523955e+18
14647.0	1.6357186821160957e+18
