# Flux units: erg / (cm m2 s)
# Wavelength units: Angstrom
wave	flux
14000.0	2.115692001440563e+18
14001.0	2.1152007108689915e+18
14002.0	2.1147605924839421e+18
14003.0	2.1142901845131256e+18
14004.0	2.1138195768934392e+18
14005.0	2.1133489340415995e+18
14006.0	2.112875085063782e+18
14007.0	2.1124034724888573e+18
14008.0	2.1118893548371968e+18
14009.0	2.1114671494856701e+18
14010.0	2.1109906899730427e+18
14011.0	2.1102528615677947e+18
14012.0	2.1100575546408955e+18
14013.0	2.1095880257961981e+18
14014.0	2.1091156028817405e+18
14015.0	2.1086478691991547e+18
14016.0	2.1081797412519933e+18
14017.0	2.107710566406553e+18
14018.0	2.1072412405661693e+18
14019.0	2.1067725690372093e+18
14020.0	2.1063033757368312e+18
14021.0	2.1058343250427901e+18
14022.0	2.1053636805132288e+18
14023.0	2.1048829881090043e+18
14024.0	2.1044179203260416e+18
14025.0	2.1039608871518205e+18
14026.0	2.103492391783628e+18
14027.0	2.1030254449524733e+18
14028.0	2.1025576089288701e+18
14029.0	2.102089499436646e+18
14030.0	2.1009217246724096e+18
14031.0	2.1010968989401083e+18
14032.0	2.100646772945715e+18
14033.0	2.1001534321983488e+18
14034.0	2.099711785408921e+18
14035.0	2.09924628980695e+18
14036.0	2.0987794956484605e+18
14037.0	2.098312726655795e+18
14038.0	2.097846046582374e+18
14039.0	2.0973794235514877e+18
14040.0	2.0969079133175805e+18
14041.0	2.09644441084887e+18
14042.0	2.0959748232839168e+18
14043.0	2.095496061937254e+18
14044.0	2.095043278431846e+18
14045.0	2.0945810761973757e+18
14046.0	2.0941141461434365e+18
14047.0	2.0936454880362496e+18
14048.0	2.0931689010167803e+18
14049.0	2.092681420550963e+18
14050.0	2.0922161329864701e+18
14051.0	2.091746669572915e+18
14052.0	2.091285796093952e+18
14053.0	2.0908207635431421e+18
14054.0	2.0903560128495616e+18
14055.0	2.0898912806109176e+18
14056.0	2.0894266607796221e+18
14057.0	2.0889621885878267e+18
14058.0	2.088497815381606e+18
14059.0	2.0880335831039997e+18
14060.0	2.0875694481342461e+18
14061.0	2.087102457682329e+18
14062.0	2.086641550648934e+18
14063.0	2.086170072291737e+18
14064.0	2.0856110789427197e+18
14065.0	2.085246776796774e+18
14066.0	2.084787151542681e+18
14067.0	2.0843101266378747e+18
14068.0	2.0837789784342528e+18
14069.0	2.0832921707347963e+18
14070.0	2.0828306613993472e+18
14071.0	2.0823669777367037e+18
14072.0	2.0819059834617848e+18
14073.0	2.0814440228192248e+18
14074.0	2.0809815169171453e+18
14075.0	2.0805099009867773e+18
14076.0	2.0800409794772987e+18
14077.0	2.0794311058653181e+18
14078.0	2.0791203129720824e+18
14079.0	2.0786675093340155e+18
14080.0	2.0782089796321275e+18
14081.0	2.077747314268569e+18
14082.0	2.0772807348584443e+18
14083.0	2.0768235741773821e+18
14084.0	2.0763628332384253e+18
14085.0	2.0756967391756288e+18
14086.0	2.0754275470671867e+18
14087.0	2.074979709485056e+18
14088.0	2.0745114825523197e+18
14089.0	2.0740455037665275e+18
14090.0	2.0735867526053888e+18
14091.0	2.0730989533724672e+18
14092.0	2.0726385429446656e+18
14093.0	2.0721781895593984e+18
14094.0	2.0717179301265405e+18
14095.0	2.0712577008926715e+18
14096.0	2.0707630649442301e+18
14097.0	2.0703228190523387e+18
14098.0	2.069862359970611e+18
14099.0	2.0694184600010752e+18
14100.0	2.0689537596391421e+18
14101.0	2.0684997715296253e+18
14102.0	2.0680403392135168e+18
14103.0	2.0675750667485176e+18
14104.0	2.0671222966648827e+18
14105.0	2.0666627150315517e+18
14106.0	2.0662044906749947e+18
14107.0	2.065743920863641e+18
14108.0	2.065281391473459e+18
14109.0	2.0648262742573048e+18
14110.0	2.0643640317575158e+18
14111.0	2.06389996725207e+18
14112.0	2.063450108015411e+18
14113.0	2.0629888973144061e+18
14114.0	2.0625313406910461e+18
14115.0	2.0620671755223037e+18
14116.0	2.061543875700326e+18
14117.0	2.0599808246939645e+18
14118.0	2.0606694035816445e+18
14119.0	2.0601904375529464e+18
14120.0	2.0597376590807037e+18
14121.0	2.0592876119392253e+18
14122.0	2.0588187424391165e+18
14123.0	2.0583564647071744e+18
14124.0	2.0578968696520701e+18
14125.0	2.0572495157395448e+18
14126.0	2.0570076201615352e+18
14127.0	2.056558078014259e+18
14128.0	2.0561012008681467e+18
14129.0	2.0556397603192827e+18
14130.0	2.0551789958922237e+18
14131.0	2.054733668181606e+18
14132.0	2.054275034460979e+18
14133.0	2.0535636788248566e+18
14134.0	2.053366125428736e+18
14135.0	2.0528987390345216e+18
14136.0	2.0523996403466235e+18
14137.0	2.0519975173226493e+18
14138.0	2.0515296309673976e+18
14139.0	2.0510896333783037e+18
14140.0	2.0506251108548605e+18
14141.0	2.050173609128755e+18
14142.0	2.0496229037244416e+18
14143.0	2.0492286794137597e+18
14144.0	2.0487800398807037e+18
14145.0	2.0483256742838272e+18
14146.0	2.04787052183552e+18
14147.0	2.047415560647475e+18
14148.0	2.046957764109926e+18
14149.0	2.0465026418606075e+18
14150.0	2.0460552337752061e+18
14151.0	2.0455909243224061e+18
14152.0	2.0451479269670907e+18
14153.0	2.0446943280889848e+18
14154.0	2.0442283459477501e+18
14155.0	2.0436860778053627e+18
14156.0	2.0433218528346107e+18
14157.0	2.0428811757682683e+18
14158.0	2.0424257498513405e+18
14159.0	2.0419754661511168e+18
14160.0	2.0415202482716664e+18
14161.0	2.0410412537217021e+18
14162.0	2.0405667034562555e+18
14163.0	2.0401642968973312e+18
14164.0	2.03966947304407e+18
14165.0	2.0391598734966784e+18
14166.0	2.038806892616089e+18
14167.0	2.038349715157811e+18
14168.0	2.0378991965765627e+18
14169.0	2.037453409170227e+18
14170.0	2.036997370884915e+18
14171.0	2.0365491155501053e+18
14172.0	2.0360989962665984e+18
14173.0	2.0355981275824125e+18
14174.0	2.035183700148224e+18
14175.0	2.0347100071985147e+18
14176.0	2.0342578394169344e+18
14177.0	2.0338076479913981e+18
14178.0	2.0333559214505976e+18
14179.0	2.0328965260443643e+18
14180.0	2.03245615096791e+18
14181.0	2.032005711239577e+18
14182.0	2.0315550081089528e+18
14183.0	2.0311051337728e+18
14184.0	2.0306525331390461e+18
14185.0	2.0302047827984381e+18
14186.0	2.0295308621643773e+18
14187.0	2.0292932330323965e+18
14188.0	2.0288551514013693e+18
14189.0	2.0284031480365053e+18
14190.0	2.0279548692135933e+18
14191.0	2.027504662688563e+18
14192.0	2.0270540367331325e+18
14193.0	2.026571982018969e+18
14194.0	2.0261575847837696e+18
14195.0	2.025711211852595e+18
14196.0	2.025262318983577e+18
14197.0	2.0248136777727997e+18
14198.0	2.0243628773343227e+18
14199.0	2.023914747828633e+18
14200.0	2.0233390678605821e+18
14201.0	2.0230149404360696e+18
14202.0	2.0225721393741821e+18
14203.0	2.0221126969917435e+18
14204.0	2.021674779777433e+18
14205.0	2.0212271384887293e+18
14206.0	2.020720647759462e+18
14207.0	2.0203331460792323e+18
14208.0	2.0198858755670016e+18
14209.0	2.019376294474547e+18
14210.0	2.018946378314547e+18
14211.0	2.018506989738393e+18
14212.0	2.0180619153637373e+18
14213.0	2.0176125342777344e+18
14214.0	2.017168167901593e+18
14215.0	2.0167162568114173e+18
14216.0	2.016275272722022e+18
14217.0	2.0158287303409661e+18
14218.0	2.0153763830431744e+18
14219.0	2.0149359458910205e+18
14220.0	2.0144898313289725e+18
14221.0	2.0140399569928187e+18
14222.0	2.0135725118783488e+18
14223.0	2.0131514306002936e+18
14224.0	2.0127059602833403e+18
14225.0	2.0118885290213373e+18
14226.0	2.011813712704307e+18
14227.0	2.011369374849433e+18
14228.0	2.0100782187610112e+18
14229.0	2.010323379185253e+18
14230.0	2.010033804437094e+18
14231.0	2.00956724683735e+18
14232.0	2.0091438922465275e+18
14233.0	2.0086960412426237e+18
14234.0	2.0082545655807997e+18
14235.0	2.0078087848853501e+18
14236.0	2.0073652187824125e+18
14237.0	2.006920469885747e+18
14238.0	2.0064766403805181e+18
14239.0	2.0059497150021627e+18
14240.0	2.0048364057919483e+18
14241.0	2.0050597759680507e+18
14242.0	2.0046180285153275e+18
14243.0	2.004101645939507e+18
14244.0	2.003732315661926e+18
14245.0	2.0032811377360893e+18
14246.0	2.0028321072939005e+18
14247.0	2.002399627575296e+18
14248.0	2.0019522094235645e+18
14249.0	2.0015148861227005e+18
14250.0	2.0010717931372544e+18
14251.0	2.000607899759411e+18
14252.0	2.000153035879219e+18
14253.0	1.9997099529601021e+18
14254.0	1.999266514364006e+18
14255.0	1.99881036702679e+18
14256.0	1.9979936185974787e+18
14257.0	1.9979280851140605e+18
14258.0	1.99749813707735e+18
14259.0	1.9970463937593344e+18
14260.0	1.9966017807581184e+18
14261.0	1.996161955974348e+18
14262.0	1.9957435103969275e+18
14263.0	1.9947330807529475e+18
14264.0	1.994759285086617e+18
14265.0	1.9944148756856827e+18
14266.0	1.993977933227622e+18
14267.0	1.993536680702771e+18
14268.0	1.993095639570841e+18
14269.0	1.9926534408110072e+18
14270.0	1.9922136495816701e+18
14271.0	1.991771189097267e+18
14272.0	1.991331743478579e+18
14273.0	1.990890076556492e+18
14274.0	1.9895998146936832e+18
14275.0	1.989932547152281e+18
14276.0	1.9895562711072765e+18
14277.0	1.9891193118719997e+18
14278.0	1.9886896993796093e+18
14279.0	1.9882492790046715e+18
14280.0	1.9878063504359421e+18
14281.0	1.9873700606115837e+18
14282.0	1.986930500907827e+18
14283.0	1.9864908925501437e+18
14284.0	1.986051361367654e+18
14285.0	1.9856117295218683e+18
14286.0	1.9851712235831293e+18
14287.0	1.984733432197939e+18
14288.0	1.9842942952800256e+18
14289.0	1.9834182645579766e+18
14290.0	1.9834143370117117e+18
14291.0	1.9829772871794688e+18
14292.0	1.9825391082405883e+18
14293.0	1.9820995065937912e+18
14294.0	1.981596059251507e+18
14295.0	1.981217103885107e+18
14296.0	1.980430806102835e+18
14297.0	1.9803469217005563e+18
14298.0	1.9797404991619064e+18
14299.0	1.979461494059827e+18
14300.0	1.9790018033745915e+18
14301.0	1.978559138208153e+18
14302.0	1.9781231604400125e+18
14303.0	1.9776690616008696e+18
14304.0	1.9772404892958717e+18
14305.0	1.9768092359917565e+18
14306.0	1.976344362824499e+18
14307.0	1.975923397309235e+18
14308.0	1.9754949424447488e+18
14309.0	1.9750513427873787e+18
14310.0	1.9744897355481083e+18
14311.0	1.9740450285944827e+18
14312.0	1.973701609049292e+18
14313.0	1.97327317935063e+18
14314.0	1.972869130302259e+18
14315.0	1.9724404237795325e+18
14316.0	1.9719801677021181e+18
14317.0	1.9715453173628925e+18
14318.0	1.971133794064793e+18
14319.0	1.9706984135655421e+18
14320.0	1.9702624408305661e+18
14321.0	1.9698270234214397e+18
14322.0	1.9693715136184315e+18
14323.0	1.96894700643287e+18
14324.0	1.9685197897269245e+18
14325.0	1.9680799783649277e+18
14326.0	1.967649771959091e+18
14327.0	1.9672111954001915e+18
14328.0	1.966776398748057e+18
14329.0	1.9663444290568187e+18
14330.0	1.9659094931537915e+18
14331.0	1.9654744901419005e+18
14332.0	1.965039883072307e+18
14333.0	1.9646052609032187e+18
14334.0	1.9641707192647675e+18
14335.0	1.9637288778596352e+18
14336.0	1.963257899463475e+18
14337.0	1.962867317486387e+18
14338.0	1.9624324268818424e+18
14339.0	1.9619934795464701e+18
14340.0	1.961565078369075e+18
14341.0	1.9611282315411453e+18
14342.0	1.9606977147568125e+18
14343.0	1.9602593462353915e+18
14344.0	1.959825833040281e+18
14345.0	1.9593968111058941e+18
14346.0	1.9589607930724347e+18
14347.0	1.9585097359425533e+18
14348.0	1.9580958453792765e+18
14349.0	1.9576638823989243e+18
14350.0	1.957199943722598e+18
14351.0	1.9567620550295547e+18
14352.0	1.956361188619059e+18
14353.0	1.955932000590233e+18
14354.0	1.9554957107658747e+18
14355.0	1.955045081455001e+18
14356.0	1.954594067945881e+18
14357.0	1.9541702721142781e+18
14358.0	1.953737877959475e+18
14359.0	1.9532978099060736e+18
14360.0	1.9528704942145533e+18
14361.0	1.9524403180077053e+18
14362.0	1.95200941031424e+18
14363.0	1.951577326537932e+18
14364.0	1.9510410461839355e+18
14365.0	1.9506949573836797e+18
14366.0	1.9502651888631805e+18
14367.0	1.9498509711441917e+18
14368.0	1.949419271566131e+18
14369.0	1.9489881793232893e+18
14370.0	1.9485570031943677e+18
14371.0	1.948125983093555e+18
14372.0	1.947692040401715e+18
14373.0	1.9472637684088827e+18
14374.0	1.9468330268098552e+18
14375.0	1.9464022197796861e+18
14376.0	1.9459715050242045e+18
14377.0	1.9455320963153915e+18
14378.0	1.945059069421158e+18
14379.0	1.9446298964918264e+18
14380.0	1.9441990542295037e+18
14381.0	1.9437633750958077e+18
14382.0	1.9433382958071803e+18
14383.0	1.9429020277932027e+18
14384.0	1.9424688434315261e+18
14385.0	1.9420490992975872e+18
14386.0	1.941611747475456e+18
14387.0	1.9411893944844283e+18
14388.0	1.9407587116056573e+18
14389.0	1.940330117490278e+18
14390.0	1.9398998003548155e+18
14391.0	1.9394711626186747e+18
14392.0	1.9390401408401403e+18
14393.0	1.9386129140678653e+18
14394.0	1.9381651670827005e+18
14395.0	1.9377413527961597e+18
14396.0	1.9373252677730296e+18
14397.0	1.9368969219604477e+18
14398.0	1.9364668346728445e+18
14399.0	1.936038824404582e+18
14400.0	1.9355985634131963e+18
14401.0	1.9351788159238144e+18
14402.0	1.9347527568457725e+18
14403.0	1.9326387034783718e+18
14404.0	1.9292951536467955e+18
14405.0	1.9327590095388657e+18
14406.0	1.9330398702010363e+18
14407.0	1.9302084314660874e+18
14408.0	1.9321607189168125e+18
14409.0	1.9317478635077632e+18
14410.0	1.9313210628767744e+18
14411.0	1.93090093622231e+18
14412.0	1.930472253187686e+18
14413.0	1.9300463451045883e+18
14414.0	1.9296175681175547e+18
14415.0	1.929190702055424e+18
14416.0	1.9287591786381307e+18
14417.0	1.9283190770302973e+18
14418.0	1.9278852735893504e+18
14419.0	1.927472892975513e+18
14420.0	1.927021277164339e+18
14421.0	1.926596261629132e+18
14422.0	1.9261688704401405e+18
14423.0	1.925733548661145e+18
14424.0	1.915563260719917e+18
14425.0	1.9248827961704443e+18
14426.0	1.9244623943696381e+18
14427.0	1.92403645440983e+18
14428.0	1.9235984415653888e+18
14429.0	1.9231814337953787e+18
14430.0	1.9227574769025021e+18
14431.0	1.922159869113139e+18
14432.0	1.921897003692851e+18
14433.0	1.9196778511335409e+18
14434.0	1.9210441154625533e+18
14435.0	1.920598579714457e+18
14436.0	1.9202011425669115e+18
14437.0	1.9197755935162365e+18
14438.0	1.919285529359155e+18
14439.0	1.9189101072744443e+18
14440.0	1.9184983339958272e+18
14441.0	1.9180700922019837e+18
14442.0	1.9176425869279232e+18
14443.0	1.9171985409966075e+18
14444.0	1.9167949113786363e+18
14445.0	1.9163716524179453e+18
14446.0	1.9138607272951813e+18
14447.0	1.9155130817445888e+18
14448.0	1.9150969161908221e+18
14449.0	1.91467208352727e+18
14450.0	1.914244345049907e+18
14451.0	1.9138215927611387e+18
14452.0	1.9133954699296765e+18
14453.0	1.9129386531815421e+18
14454.0	1.9125478514229243e+18
14455.0	1.9121208226217981e+18
14456.0	1.9116909886701565e+18
14457.0	1.9112624331423736e+18
14458.0	1.9108444036399096e+18
14459.0	1.910419129735577e+18
14460.0	1.9099933894246397e+18
14461.0	1.9095373679165437e+18
14462.0	1.9090177876033533e+18
14463.0	1.9087109054791677e+18
14464.0	1.9083003116388347e+18
14465.0	1.9078694291111936e+18
14466.0	1.9074568639479803e+18
14467.0	1.907002635924275e+18
14468.0	1.9066070895689725e+18
14469.0	1.9061643757486075e+18
14470.0	1.905748830951833e+18
14471.0	1.9053331854917627e+18
14472.0	1.904912068981555e+18
14473.0	1.9044933717458941e+18
14474.0	1.9040698963591165e+18
14475.0	1.9036432131686397e+18
14476.0	1.9031070972313597e+18
14477.0	1.902799792321331e+18
14478.0	1.9023770651983872e+18
14479.0	1.9019526586761213e+18
14480.0	1.901522524412313e+18
14481.0	1.9011086019723261e+18
14482.0	1.9006839085596672e+18
14483.0	1.9002574971600893e+18
14484.0	1.8997775731523581e+18
14485.0	1.8993061300273147e+18
14486.0	1.8987553038270461e+18
14487.0	1.8984781039534075e+18
14488.0	1.8980277447557115e+18
14489.0	1.897617981387571e+18
14490.0	1.897207825432576e+18
14491.0	1.8967899217592315e+18
14492.0	1.896367954644172e+18
14493.0	1.8959430481608696e+18
14494.0	1.8955123770261504e+18
14495.0	1.8951014426083325e+18
14496.0	1.8946121653026816e+18
14497.0	1.8942391440375805e+18
14498.0	1.8938049194885117e+18
14499.0	1.8933833634152445e+18
14500.0	1.8929612234948603e+18
14501.0	1.8924833865727997e+18
14502.0	1.8919575483580416e+18
14503.0	1.8916792546099197e+18
14504.0	1.8912706757132288e+18
14505.0	1.8907985380114427e+18
14506.0	1.8903165655056381e+18
14507.0	1.8898870318661632e+18
14508.0	1.8895868539174912e+18
14509.0	1.8891652777115643e+18
14510.0	1.8887422938972155e+18
14511.0	1.8883220514799613e+18
14512.0	1.8878924524093437e+18
14513.0	1.887479092006092e+18
14514.0	1.8870367439290365e+18
14515.0	1.8866351829417981e+18
14516.0	1.8851257351405576e+18
14517.0	1.8857928022818816e+18
14518.0	1.8853718099230712e+18
14519.0	1.8849505591951355e+18
14520.0	1.8845292396806141e+18
14521.0	1.8841072071344125e+18
14522.0	1.8836839179747325e+18
14523.0	1.88312722645975e+18
14524.0	1.8827165319561216e+18
14525.0	1.882420130558771e+18
14526.0	1.8820019215400955e+18
14527.0	1.8815682170847232e+18
14528.0	1.8810937456721915e+18
14529.0	1.8807330271395837e+18
14530.0	1.8803083689590781e+18
14531.0	1.8798953625550843e+18
14532.0	1.8793035194171387e+18
14533.0	1.8790539163860987e+18
14534.0	1.8786341974179835e+18
14535.0	1.8782076132130808e+18
14536.0	1.8777923116859395e+18
14537.0	1.8773653533491192e+18
14538.0	1.8769507967303677e+18
14539.0	1.876530223801958e+18
14540.0	1.8761094545801213e+18
14541.0	1.8756780217597947e+18
14542.0	1.8752680050556928e+18
14543.0	1.8747652875223035e+18
14544.0	1.8744262334087168e+18
14545.0	1.874001664147456e+18
14546.0	1.8625606463782853e+18
14547.0	1.863253406148191e+18
14548.0	1.87273650938839e+18
14549.0	1.8722633029779453e+18
14550.0	1.871899192092262e+18
14551.0	1.871481769925017e+18
14552.0	1.871059900117811e+18
14553.0	1.8706364498968568e+18
14554.0	1.870219442126848e+18
14555.0	1.8697981595222013e+18
14556.0	1.8693745851498496e+18
14557.0	1.8689568576372733e+18
14558.0	1.868535402227302e+18
14559.0	1.8672981966323697e+18
14560.0	1.8676760061149181e+18
14561.0	1.867269740796313e+18
14562.0	1.866836846680473e+18
14563.0	1.8664303867461632e+18
14564.0	1.865993306714931e+18
14565.0	1.8655898549354496e+18
14566.0	1.865168924652339e+18
14567.0	1.8647466387701755e+18
14568.0	1.8642951622098941e+18
14569.0	1.8639050701275133e+18
14570.0	1.863241764438016e+18
14571.0	1.8630617784647677e+18
14572.0	1.862610941116416e+18
14573.0	1.8621937672519675e+18
14574.0	1.86175598928855e+18
14575.0	1.861373029200691e+18
14576.0	1.8609511744929795e+18
14577.0	1.8605336566956024e+18
14578.0	1.8601151473647613e+18
14579.0	1.8596949670232061e+18
14580.0	1.8592739276881923e+18
14581.0	1.8588478686101504e+18
14582.0	1.8584285355180032e+18
14583.0	1.8580098617704443e+18
14584.0	1.8575779843538944e+18
14585.0	1.8571674089684987e+18
14586.0	1.8567442238275581e+18
14587.0	1.8563188526153725e+18
14588.0	1.8558749039919104e+18
14589.0	1.8554655080447992e+18
14590.0	1.8550568217739261e+18
14591.0	1.8546457648824317e+18
14592.0	1.8542355904724987e+18
14593.0	1.8537713682612221e+18
14594.0	1.8534205365420027e+18
14595.0	1.8530083086008315e+18
14596.0	1.8525076412432384e+18
14597.0	1.8520885262548987e+18
14598.0	1.851773664886784e+18
14599.0	1.8513732967596032e+18
14600.0	1.850960625899929e+18
14601.0	1.850552253362995e+18
14602.0	1.8501347707977725e+18
14603.0	1.8497319599079424e+18
14604.0	1.8492942826078203e+18
14605.0	1.8488902872465403e+18
14606.0	1.8484677044076544e+18
14607.0	1.8480881568055293e+18
14608.0	1.8476796987047933e+18
14609.0	1.8472580084137981e+18
14610.0	1.8468243324796928e+18
14611.0	1.8464407113695227e+18
14612.0	1.8460379927543803e+18
14613.0	1.8456284424568832e+18
14614.0	1.8452160131891197e+18
14615.0	1.8448039714750461e+18
14616.0	1.844395367412531e+18
14617.0	1.843983738417971e+18
14618.0	1.8435570418057216e+18
14619.0	1.8430956482330616e+18
14620.0	1.8425042832457728e+18
14621.0	1.8423363684794365e+18
14622.0	1.8419226893090816e+18
14623.0	1.8415119125970941e+18
14624.0	1.8410697591357435e+18
14625.0	1.8406849166442493e+18
14626.0	1.840270442233856e+18
14627.0	1.8398528908820475e+18
14628.0	1.8394468856102907e+18
14629.0	1.8390332181839864e+18
14630.0	1.838616753995776e+18
14631.0	1.8382039103307776e+18
14632.0	1.837008729984205e+18
14633.0	1.837268531884851e+18
14634.0	1.8369554522570747e+18
14635.0	1.8364128921911283e+18
14636.0	1.8357926854918141e+18
14637.0	1.835714876119449e+18
14638.0	1.8352941186416637e+18
14639.0	1.8348740926504955e+18
14640.0	1.8344644517560317e+18
14641.0	1.8310036912603113e+18
14642.0	1.8336309059780603e+18
14643.0	1.8332162033975293e+18
14644.0	1.8327926072147963e+18
14645.0	1.832370099873382e+18
14646.0	1.8319452269445115e+18
14647.0	1.8315217733681147e+18
14648.0	1.8311244553388027e+18
