# Flux units: erg / (cm m2 s)
# Wavelength units: Angstrom
wave	flux
14000.0	2.4719124517093376e+18
14001.0	2.471349148293529e+18
14002.0	2.4708011473764347e+18
14003.0	2.470235401197977e+18
14004.0	2.469669472147865e+18
14005.0	2.4690434957639675e+18
14006.0	2.4683528482455547e+18
14007.0	2.4677872312516603e+18
14008.0	2.4671812314988534e+18
14009.0	2.466656737139097e+18
14010.0	2.466085481322905e+18
14011.0	2.465300837774131e+18
14012.0	2.4649609062121467e+18
14013.0	2.4643962287423483e+18
14014.0	2.463831210695065e+18
14015.0	2.4632653772750843e+18
14016.0	2.4627016829501435e+18
14017.0	2.4621371598307323e+18
14018.0	2.4615725461143547e+18
14019.0	2.4610084373921787e+18
14020.0	2.4604439310499835e+18
14021.0	2.4598795371151355e+18
14022.0	2.459314190234418e+18
14023.0	2.458742664305049e+18
14024.0	2.458179089098342e+18
14025.0	2.457484309351628e+18
14026.0	2.4568783079211003e+18
14027.0	2.45631565210583e+18
14028.0	2.45575218930647e+18
14029.0	2.455188100716953e+18
14030.0	2.454006518303949e+18
14031.0	2.454038329583206e+18
14032.0	2.453498277711053e+18
14033.0	2.4529146654752763e+18
14034.0	2.4523732093501435e+18
14035.0	2.4518124611043323e+18
14036.0	2.4512506173063163e+18
14037.0	2.4506887483424763e+18
14038.0	2.4501269313880054e+18
14039.0	2.4495652603953147e+18
14040.0	2.4489997742637056e+18
14041.0	2.448440551066828e+18
14042.0	2.447876145387929e+18
14043.0	2.4473047788421115e+18
14044.0	2.446754949208473e+18
14045.0	2.446196494408089e+18
14046.0	2.4456344358617083e+18
14047.0	2.444992903643136e+18
14048.0	2.4442442891657216e+18
14049.0	2.4436845408419835e+18
14050.0	2.4431241130409984e+18
14051.0	2.4425600177405947e+18
14052.0	2.442003480576e+18
14053.0	2.441443406774272e+18
14054.0	2.440883572886733e+18
14055.0	2.4403237960417275e+18
14056.0	2.439764146703564e+18
14057.0	2.439204661782118e+18
14058.0	2.438645309400678e+18
14059.0	2.438086109691904e+18
14060.0	2.4375270475563003e+18
14061.0	2.436965686942105e+18
14062.0	2.436409315871949e+18
14063.0	2.435843603247923e+18
14064.0	2.4352111726690294e+18
14065.0	2.4347306463592443e+18
14066.0	2.4341756577316854e+18
14067.0	2.4336051183026166e+18
14068.0	2.4330597379866614e+18
14069.0	2.432500503045734e+18
14070.0	2.4319438165639163e+18
14071.0	2.4313858483027963e+18
14072.0	2.430692241283481e+18
14073.0	2.4299799041802235e+18
14074.0	2.429422486211788e+18
14075.0	2.4288566762799094e+18
14076.0	2.428294191592243e+18
14077.0	2.427608186329497e+18
14078.0	2.427183491239117e+18
14079.0	2.426634475300454e+18
14080.0	2.4260811979489275e+18
14081.0	2.4255248788881403e+18
14082.0	2.42496478159831e+18
14083.0	2.4244117810708475e+18
14084.0	2.423855852919193e+18
14085.0	2.4231194707099643e+18
14086.0	2.422731863333273e+18
14087.0	2.422189199248589e+18
14088.0	2.4216271105032187e+18
14089.0	2.4210672027959296e+18
14090.0	2.420521565788569e+18
14091.0	2.4199685199626235e+18
14092.0	2.419413843391283e+18
14093.0	2.4188591097774075e+18
14094.0	2.4183043627417595e+18
14095.0	2.417749179498496e+18
14096.0	2.4171671510319094e+18
14097.0	2.4166230038413307e+18
14098.0	2.416073690945945e+18
14099.0	2.4155101341941755e+18
14100.0	2.4147991795335163e+18
14101.0	2.4142497257095163e+18
14102.0	2.413695752103526e+18
14103.0	2.413137230194278e+18
14104.0	2.412588526311833e+18
14105.0	2.4120345342509056e+18
14106.0	2.4114816427753467e+18
14107.0	2.410927008147046e+18
14108.0	2.4103696153444347e+18
14109.0	2.4098200205918203e+18
14110.0	2.4092643038330875e+18
14111.0	2.408707424413286e+18
14112.0	2.408163347687014e+18
14113.0	2.4076115618299904e+18
14114.0	2.4070526607556603e+18
14115.0	2.406505221875302e+18
14116.0	2.4059193329713147e+18
14117.0	2.4043710962466816e+18
14118.0	2.4048476094463995e+18
14119.0	2.4042802207784955e+18
14120.0	2.4037318121750523e+18
14121.0	2.4031859855851515e+18
14122.0	2.4026364763963387e+18
14123.0	2.4020707302178806e+18
14124.0	2.401519637259878e+18
14125.0	2.400795396721868e+18
14126.0	2.400435602613862e+18
14127.0	2.3998921315450875e+18
14128.0	2.399341595590656e+18
14129.0	2.3987864828116987e+18
14130.0	2.398231817984409e+18
14131.0	2.397589961965567e+18
14132.0	2.3969680557342715e+18
14133.0	2.396189418428825e+18
14134.0	2.39586751062999e+18
14135.0	2.39530434143191e+18
14136.0	2.394729612732006e+18
14137.0	2.3942149229772795e+18
14138.0	2.3936578757853184e+18
14139.0	2.3931200636715003e+18
14140.0	2.392563023190425e+18
14141.0	2.3920062796660736e+18
14142.0	2.391391094387507e+18
14143.0	2.3909162891083776e+18
14144.0	2.390376470439526e+18
14145.0	2.3898285282426875e+18
14146.0	2.3892796398108667e+18
14147.0	2.3887308285542395e+18
14148.0	2.3881796584210427e+18
14149.0	2.3876305703403515e+18
14150.0	2.387088698140262e+18
14151.0	2.3865315536404475e+18
14152.0	2.3859936123420667e+18
14153.0	2.38544613319639e+18
14154.0	2.3848867925590016e+18
14155.0	2.3843198216437755e+18
14156.0	2.383799402469785e+18
14157.0	2.383257708108185e+18
14158.0	2.3827091787087867e+18
14159.0	2.382164358751846e+18
14160.0	2.381614690179481e+18
14161.0	2.38104589893632e+18
14162.0	2.3804791142481915e+18
14163.0	2.3799763715489787e+18
14164.0	2.3793950225596416e+18
14165.0	2.3788081857429494e+18
14166.0	2.3783377173741563e+18
14167.0	2.377708875441766e+18
14168.0	2.377076411308441e+18
14169.0	2.3765348125769723e+18
14170.0	2.375986130504908e+18
14171.0	2.375442864118169e+18
14172.0	2.3748985223118843e+18
14173.0	2.374314651706982e+18
14174.0	2.3738046226628603e+18
14175.0	2.3732633225658363e+18
14176.0	2.3727177962881024e+18
14177.0	2.372173429315993e+18
14178.0	2.3716277319106555e+18
14179.0	2.3710768016916475e+18
14180.0	2.370540147205734e+18
14181.0	2.3699958540533755e+18
14182.0	2.3694513478303744e+18
14183.0	2.3689075244400635e+18
14184.0	2.3683611811119104e+18
14185.0	2.3678183190560763e+18
14186.0	2.3670664061779963e+18
14187.0	2.3667185171824635e+18
14188.0	2.3661882934034427e+18
14189.0	2.3656431446130683e+18
14190.0	2.36510082278359e+18
14191.0	2.364556975905177e+18
14192.0	2.364012421028249e+18
14193.0	2.3634390781263867e+18
14194.0	2.362929104447078e+18
14195.0	2.362388626433638e+18
14196.0	2.3618462324621307e+18
14197.0	2.36130397103063e+18
14198.0	2.360759922825625e+18
14199.0	2.360218052303257e+18
14200.0	2.359562593317683e+18
14201.0	2.3591292596387835e+18
14202.0	2.3585942677749755e+18
14203.0	2.3580440858198006e+18
14204.0	2.357510125754777e+18
14205.0	2.3569688860557307e+18
14206.0	2.35637528634327e+18
14207.0	2.355856429128089e+18
14208.0	2.355182567214285e+18
14209.0	2.3545864207204347e+18
14210.0	2.354060386212249e+18
14211.0	2.3535590897090555e+18
14212.0	2.3530181721325563e+18
14213.0	2.3524757076967424e+18
14214.0	2.3519369392816123e+18
14215.0	2.3513923978264566e+18
14216.0	2.35085658891223e+18
14217.0	2.3503163206139904e+18
14218.0	2.3497704722137083e+18
14219.0	2.3492361162063867e+18
14220.0	2.348696282438041e+18
14221.0	2.348153217377894e+18
14222.0	2.347594539440537e+18
14223.0	2.3470767593226235e+18
14224.0	2.346537251032269e+18
14225.0	2.3456795091533824e+18
14226.0	2.3454562429960187e+18
14227.0	2.3449197747372027e+18
14228.0	2.343725554047385e+18
14229.0	2.343713529816677e+18
14230.0	2.343303697661952e+18
14231.0	2.3427468232753147e+18
14232.0	2.3422269023846395e+18
14233.0	2.341688580243456e+18
14234.0	2.3411503671541755e+18
14235.0	2.340611273261055e+18
14236.0	2.340074056738406e+18
14237.0	2.3395358168055803e+18
14238.0	2.3389983586910203e+18
14239.0	2.3384572179775483e+18
14240.0	2.337371443534233e+18
14241.0	2.337381389067878e+18
14242.0	2.3368465414881275e+18
14243.0	2.336245532957081e+18
14244.0	2.3357744773857275e+18
14245.0	2.335231635462553e+18
14246.0	2.334690432673382e+18
14247.0	2.33416418173911e+18
14248.0	2.3336223598706683e+18
14249.0	2.333090238588518e+18
14250.0	2.3325537971732475e+18
14251.0	2.3320186190823424e+18
14252.0	2.331482415903538e+18
14253.0	2.3309459862323195e+18
14254.0	2.330409138808422e+18
14255.0	2.3298610372280315e+18
14256.0	2.328904309774745e+18
14257.0	2.328617038538342e+18
14258.0	2.3281055515541504e+18
14259.0	2.327563127383654e+18
14260.0	2.327024761621709e+18
14261.0	2.3264886842720256e+18
14262.0	2.3259781082906624e+18
14263.0	2.324935191245619e+18
14264.0	2.324794428725657e+18
14265.0	2.324369757123379e+18
14266.0	2.323839561865625e+18
14267.0	2.3233049256787963e+18
14268.0	2.3227702760701947e+18
14269.0	2.3222345896296443e+18
14270.0	2.3217008627679227e+18
14271.0	2.3211649498349563e+18
14272.0	2.3206307917987835e+18
14273.0	2.320091984796057e+18
14274.0	2.318779263274189e+18
14275.0	2.3189477870534656e+18
14276.0	2.318481880409702e+18
14277.0	2.3179525072355323e+18
14278.0	2.317427645454745e+18
14279.0	2.3168937357213696e+18
14280.0	2.316357770779033e+18
14281.0	2.3158273909719035e+18
14282.0	2.315294159038054e+18
14283.0	2.314760886838886e+18
14284.0	2.314227676715417e+18
14285.0	2.3136944263266294e+18
14286.0	2.3131611088289787e+18
14287.0	2.312585720784486e+18
14288.0	2.3119570499796987e+18
14289.0	2.3110706542936054e+18
14290.0	2.310890675031245e+18
14291.0	2.310359879149158e+18
14292.0	2.3098281470984187e+18
14293.0	2.309294982273433e+18
14294.0	2.3087053503725563e+18
14295.0	2.308224949891891e+18
14296.0	2.307412214572646e+18
14297.0	2.307166512244326e+18
14298.0	2.30648525661143e+18
14299.0	2.3060955554381824e+18
14300.0	2.3055695611953147e+18
14301.0	2.3050415671083005e+18
14302.0	2.3045094777028603e+18
14303.0	2.303962365978214e+18
14304.0	2.3034421548417021e+18
14305.0	2.302913969494425e+18
14306.0	2.3023613397434365e+18
14307.0	2.3018408215838715e+18
14308.0	2.30131695133655e+18
14309.0	2.300779781790105e+18
14310.0	2.3001603753639933e+18
14311.0	2.2996525206470648e+18
14312.0	2.2990062941634555e+18
14313.0	2.2984888915329021e+18
14314.0	2.29797820146647e+18
14315.0	2.297454670118912e+18
14316.0	2.2969042281168893e+18
14317.0	2.2963765964177405e+18
14318.0	2.2958683491139581e+18
14319.0	2.2953400228380672e+18
14320.0	2.2948106664411133e+18
14321.0	2.2942816489439227e+18
14322.0	2.2937350002704381e+18
14323.0	2.2932147320913917e+18
14324.0	2.2926942793629693e+18
14325.0	2.2921601230045181e+18
14326.0	2.2916363081220088e+18
14327.0	2.2911041532854267e+18
14328.0	2.2905759595495424e+18
14329.0	2.2900498109562877e+18
14330.0	2.2895211239702523e+18
14331.0	2.2889923631644672e+18
14332.0	2.2884639110594557e+18
14333.0	2.2879354488881142e+18
14334.0	2.28740697161728e+18
14335.0	2.2868733923950587e+18
14336.0	2.2863116442271736e+18
14337.0	2.2858218988371965e+18
14338.0	2.2852931631972342e+18
14339.0	2.2847601694998523e+18
14340.0	2.2842374048710648e+18
14341.0	2.283707660920422e+18
14342.0	2.283182210259353e+18
14343.0	2.282651429476761e+18
14344.0	2.2821246550933501e+18
14345.0	2.2815990769254395e+18
14346.0	2.2810695779221496e+18
14347.0	2.28053203592151e+18
14348.0	2.2800151819059195e+18
14349.0	2.2794894628093947e+18
14350.0	2.2789340279078904e+18
14351.0	2.2784032035045373e+18
14352.0	2.2779058412584957e+18
14353.0	2.2773817998835704e+18
14354.0	2.2768509805133824e+18
14355.0	2.276317493565849e+18
14356.0	2.2757931351015421e+18
14357.0	2.2752748382453755e+18
14358.0	2.274712422344294e+18
14359.0	2.274081159459635e+18
14360.0	2.2735601698603005e+18
14361.0	2.2730353131126781e+18
14362.0	2.2725103053701115e+18
14363.0	2.271983863175577e+18
14364.0	2.2713629300228093e+18
14365.0	2.2709106129240061e+18
14366.0	2.2703917104103424e+18
14367.0	2.269880916325171e+18
14368.0	2.269355041200537e+18
14369.0	2.2688296626814973e+18
14370.0	2.2683042287976445e+18
14371.0	2.2677789274537976e+18
14372.0	2.2672534918922232e+18
14373.0	2.266728113373184e+18
14374.0	2.266203030133145e+18
14375.0	2.265629811382681e+18
14376.0	2.2650069303951357e+18
14377.0	2.264481362293555e+18
14378.0	2.263955277453721e+18
14379.0	2.2634312142684157e+18
14380.0	2.2629056260341755e+18
14381.0	2.2623755733827576e+18
14382.0	2.2618553823789048e+18
14383.0	2.2613262491189245e+18
14384.0	2.2607967450824701e+18
14385.0	2.2602818925887483e+18
14386.0	2.2597500430974973e+18
14387.0	2.2592326186565627e+18
14388.0	2.2587073391230973e+18
14389.0	2.2581836500697083e+18
14390.0	2.2576587010473981e+18
14391.0	2.257135129434521e+18
14392.0	2.2566099673415677e+18
14393.0	2.256086935955046e+18
14394.0	2.2555451258306555e+18
14395.0	2.255027203106406e+18
14396.0	2.2545141994618875e+18
14397.0	2.253990916417126e+18
14398.0	2.2534660579917821e+18
14399.0	2.2529424998006781e+18
14400.0	2.2524102325567483e+18
14401.0	2.25189190214615e+18
14402.0	2.2513689412239355e+18
14403.0	2.2496202452893678e+18
14404.0	2.2470095779397617e+18
14405.0	2.2492140772786158e+18
14406.0	2.249254666397286e+18
14407.0	2.2470484541046784e+18
14408.0	2.2481852749053947e+18
14409.0	2.247680572627353e+18
14410.0	2.2471580747563003e+18
14411.0	2.2466417475452923e+18
14412.0	2.2461178873643003e+18
14413.0	2.245596159567462e+18
14414.0	2.2450719168659453e+18
14415.0	2.244549333431091e+18
14416.0	2.2440225523367933e+18
14417.0	2.2434879077613565e+18
14418.0	2.242962933573222e+18
14419.0	2.2424564092895227e+18
14420.0	2.2419322068533245e+18
14421.0	2.2414105411321848e+18
14422.0	2.2408853236744187e+18
14423.0	2.240341652956774e+18
14424.0	2.2329330474418138e+18
14425.0	2.2392992794935293e+18
14426.0	2.2387958506061821e+18
14427.0	2.2382757921423355e+18
14428.0	2.2377434024247293e+18
14429.0	2.2372297562128381e+18
14430.0	2.236709181010739e+18
14431.0	2.236035735171891e+18
14432.0	2.2356568351703032e+18
14433.0	2.2338793394667512e+18
14434.0	2.234611649845657e+18
14435.0	2.2340759952818173e+18
14436.0	2.233575955392102e+18
14437.0	2.2330548349304827e+18
14438.0	2.232485038732083e+18
14439.0	2.2319979391090685e+18
14440.0	2.2314894250475515e+18
14441.0	2.2309662107893755e+18
14442.0	2.2304431743696893e+18
14443.0	2.2299058823495677e+18
14444.0	2.229401238791782e+18
14445.0	2.2288801787281403e+18
14446.0	2.226867050381312e+18
14447.0	2.2278260511473661e+18
14448.0	2.227316928072908e+18
14449.0	2.2267957824454656e+18
14450.0	2.2262715565211643e+18
14451.0	2.2257518889664504e+18
14452.0	2.2252276898856955e+18
14453.0	2.2245624967593976e+18
14454.0	2.2240492280348667e+18
14455.0	2.2235254601285627e+18
14456.0	2.2229993165684733e+18
14457.0	2.2224743356694523e+18
14458.0	2.2219558911737856e+18
14459.0	2.221432368214835e+18
14460.0	2.22090807518167e+18
14461.0	2.2203652299030523e+18
14462.0	2.219823825787289e+18
14463.0	2.219334300178841e+18
14464.0	2.218825438828953e+18
14465.0	2.2183006340907005e+18
14466.0	2.217789001144729e+18
14467.0	2.2172447247695867e+18
14468.0	2.216744490264166e+18
14469.0	2.2162093574717437e+18
14470.0	2.2156932299096061e+18
14471.0	2.2151805215440893e+18
14472.0	2.2146609496195067e+18
14473.0	2.2141442113667072e+18
14474.0	2.213623527112704e+18
14475.0	2.2131000913952765e+18
14476.0	2.2125005693255677e+18
14477.0	2.2120594795397115e+18
14478.0	2.2115390251335675e+18
14479.0	2.2110175036964856e+18
14480.0	2.2103657138880504e+18
14481.0	2.2098164009926648e+18
14482.0	2.2092938880221176e+18
14483.0	2.2087700915945472e+18
14484.0	2.2082488838914043e+18
14485.0	2.2077157022892024e+18
14486.0	2.2070832364781565e+18
14487.0	2.206689186650521e+18
14488.0	2.206142829900595e+18
14489.0	2.2056348627763192e+18
14490.0	2.2051253555036152e+18
14491.0	2.204608367270297e+18
14492.0	2.2040883490717693e+18
14493.0	2.203567156468121e+18
14494.0	2.2030366223106045e+18
14495.0	2.2025251453927421e+18
14496.0	2.2019457207500792e+18
14497.0	2.201483240013824e+18
14498.0	2.2009627134656512e+18
14499.0	2.2004420141121533e+18
14500.0	2.1999206906462203e+18
14501.0	2.199356838615449e+18
14502.0	2.1987513857998848e+18
14503.0	2.198341988175052e+18
14504.0	2.1978335026348027e+18
14505.0	2.1972718819737595e+18
14506.0	2.1967091942817787e+18
14507.0	2.19616679863255e+18
14508.0	2.1957518611709947e+18
14509.0	2.195231010822553e+18
14510.0	2.194709870228275e+18
14511.0	2.1941885148856315e+18
14512.0	2.193660098012774e+18
14513.0	2.1931458813755387e+18
14514.0	2.1926080994607101e+18
14515.0	2.1921026455633915e+18
14516.0	2.1907133142401027e+18
14517.0	2.191058867847168e+18
14518.0	2.1905395526139901e+18
14519.0	2.190018390209331e+18
14520.0	2.1894969425919995e+18
14521.0	2.1889753003589627e+18
14522.0	2.188450515753369e+18
14523.0	2.1878247490846715e+18
14524.0	2.1873123326427133e+18
14525.0	2.1868860118401021e+18
14526.0	2.1863673291079677e+18
14527.0	2.1858344377516027e+18
14528.0	2.1852719228649467e+18
14529.0	2.184797248448102e+18
14530.0	2.1842738882281472e+18
14531.0	2.1837575928938493e+18
14532.0	2.1831134048419837e+18
14533.0	2.1827132900507643e+18
14534.0	2.182193228231475e+18
14535.0	2.1816656837738493e+18
14536.0	2.181148745872179e+18
14537.0	2.1806210017656827e+18
14538.0	2.1801042182143995e+18
14539.0	2.179582042465894e+18
14540.0	2.1790595429171195e+18
14541.0	2.1785266263949304e+18
14542.0	2.1780138425319421e+18
14543.0	2.1773406819057661e+18
14544.0	2.176840011192729e+18
14545.0	2.176314553820774e+18
14546.0	2.1689360634085338e+18
14547.0	2.1690660415340493e+18
14548.0	2.174739260479897e+18
14549.0	2.1741725026353147e+18
14550.0	2.1736987610316795e+18
14551.0	2.1731789055721467e+18
14552.0	2.1726545773068283e+18
14553.0	2.1721291652333565e+18
14554.0	2.171608197444403e+18
14555.0	2.171083912799846e+18
14556.0	2.1705579789549565e+18
14557.0	2.170035962590003e+18
14558.0	2.1695102418157563e+18
14559.0	2.1683407071215606e+18
14560.0	2.1684525222330363e+18
14561.0	2.1679357571366902e+18
14562.0	2.167401246778982e+18
14563.0	2.1668879109455872e+18
14564.0	2.1663531757731837e+18
14565.0	2.1658420042006528e+18
14566.0	2.1653175769497595e+18
14567.0	2.1647903193825275e+18
14568.0	2.1642472979431421e+18
14569.0	2.1637406528634875e+18
14570.0	2.1630286362050552e+18
14571.0	2.162690509871513e+18
14572.0	2.1621436246392827e+18
14573.0	2.161616085214822e+18
14574.0	2.1610868546469883e+18
14575.0	2.1605829241208824e+18
14576.0	2.1600585052585981e+18
14577.0	2.159537576057241e+18
14578.0	2.1590145413152763e+18
14579.0	2.1584892215164925e+18
14580.0	2.1579629303169021e+18
14581.0	2.157432087458611e+18
14582.0	2.1569088916553725e+18
14583.0	2.156382655820595e+18
14584.0	2.1558460684435453e+18
14585.0	2.1553281255866363e+18
14586.0	2.1547995677851645e+18
14587.0	2.15427203507159e+18
14588.0	2.1537463679844347e+18
14589.0	2.153230690051686e+18
14590.0	2.1527157922594808e+18
14591.0	2.15219912614871e+18
14592.0	2.1516838273810427e+18
14593.0	2.1511184184246264e+18
14594.0	2.1506534982811643e+18
14595.0	2.1501349497667581e+18
14596.0	2.149542264412569e+18
14597.0	2.1490164127760376e+18
14598.0	2.148580440041062e+18
14599.0	2.148072043420057e+18
14600.0	2.1475535100051456e+18
14601.0	2.1470369747566587e+18
14602.0	2.146516951524966e+18
14603.0	2.1460011544739837e+18
14604.0	2.1454631594885117e+18
14605.0	2.1449531925200896e+18
14606.0	2.1444213883273216e+18
14607.0	2.1439266886254587e+18
14608.0	2.1434100694908925e+18
14609.0	2.1428835434102781e+18
14610.0	2.1422118071697403e+18
14611.0	2.1416797613850621e+18
14612.0	2.141166365153689e+18
14613.0	2.1406488501157883e+18
14614.0	2.1401287815856125e+18
14615.0	2.139609405954457e+18
14616.0	2.139091402699571e+18
14617.0	2.138571273771417e+18
14618.0	2.1380386575613947e+18
14619.0	2.1374634188341245e+18
14620.0	2.1367917060816893e+18
14621.0	2.1364887783473147e+18
14622.0	2.1359681108705277e+18
14623.0	2.1354464988364795e+18
14624.0	2.134898653947494e+18
14625.0	2.1344021188182016e+18
14626.0	2.1338771731513344e+18
14627.0	2.1333512443396093e+18
14628.0	2.132833709169049e+18
14629.0	2.132310070447308e+18
14630.0	2.1317846885728256e+18
14631.0	2.1312613652627453e+18
14632.0	2.130208235926323e+18
14633.0	2.1301323777441787e+18
14634.0	2.1296839244382203e+18
14635.0	2.1291220856733693e+18
14636.0	2.1285340006318075e+18
14637.0	2.128112174445363e+18
14638.0	2.1275813248761856e+18
14639.0	2.1270511682060283e+18
14640.0	2.126527158707814e+18
14641.0	2.123914882423192e+18
14642.0	2.125471933897113e+18
14643.0	2.1249490786713595e+18
14644.0	2.124415019620761e+18
14645.0	2.123882260804403e+18
14646.0	2.1233481866543101e+18
14647.0	2.1228147550715901e+18
14648.0	2.1222985000026104e+18
14649.0	2.121773889880064e+18
14650.0	2.1212413542006776e+18
