# Flux units: erg / (cm m2 s)
# Wavelength units: Angstrom
wave	flux
14000.0	1.981045316937318e+18
14001.0	1.980668077880115e+18
14002.0	1.9802994874777597e+18
14003.0	1.9799218155683837e+18
14004.0	1.9795441201709053e+18
14005.0	1.9791663928967163e+18
14006.0	1.9787881757278203e+18
14007.0	1.9784106699128832e+18
14008.0	1.9780277148581883e+18
14009.0	1.9776545425981437e+18
14010.0	1.9772775887536125e+18
14011.0	1.9768533600698365e+18
14012.0	1.976522159371059e+18
14013.0	1.9761477422415864e+18
14014.0	1.975771142396313e+18
14015.0	1.9753943110254587e+18
14016.0	1.9750177329905656e+18
14017.0	1.9746411700551675e+18
14018.0	1.9742646540959736e+18
14019.0	1.9738882086010875e+18
14020.0	1.9735117865943037e+18
14021.0	1.9731354769948672e+18
14022.0	1.972759321745817e+18
14023.0	1.9723830490562555e+18
14024.0	1.9720067411345405e+18
14025.0	1.9716313056280573e+18
14026.0	1.9712553986818043e+18
14027.0	1.970879691384422e+18
14028.0	1.9705039471771645e+18
14029.0	1.9701277885726715e+18
14030.0	1.9697327673442301e+18
14031.0	1.9693729883357184e+18
14032.0	1.9690019350380541e+18
14033.0	1.9686234980876288e+18
14034.0	1.9682520371036155e+18
14035.0	1.967877073036902e+18
14036.0	1.9675021609795581e+18
14037.0	1.967127324419686e+18
14038.0	1.9667525650350077e+18
14039.0	1.966377897925017e+18
14040.0	1.9660033079902203e+18
14041.0	1.9656287448989693e+18
14042.0	1.9652534587097088e+18
14043.0	1.9648770450915328e+18
14044.0	1.9645049012748283e+18
14045.0	1.9641316786831355e+18
14046.0	1.9637576289746941e+18
14047.0	1.963383601076633e+18
14048.0	1.963009776182886e+18
14049.0	1.962635989876736e+18
14050.0	1.9622622656462843e+18
14051.0	1.9618881219854333e+18
14052.0	1.9615149916684283e+18
14053.0	1.961141685190656e+18
14054.0	1.96076837535744e+18
14055.0	1.9603950823014392e+18
14056.0	1.9600218949419003e+18
14057.0	1.9596488032124925e+18
14058.0	1.9592757936914427e+18
14059.0	1.9589028680564733e+18
14060.0	1.9585300095303677e+18
14061.0	1.9581567550619645e+18
14062.0	1.9577844770275325e+18
14063.0	1.9574108350054397e+18
14064.0	1.9570350387888125e+18
14065.0	1.9566664366424061e+18
14066.0	1.9562948397629437e+18
14067.0	1.9559226523254784e+18
14068.0	1.9555505185751037e+18
14069.0	1.955178428445491e+18
14070.0	1.9548064943439872e+18
14071.0	1.9544344277024768e+18
14072.0	1.9540628593442808e+18
14073.0	1.953691165156966e+18
14074.0	1.9533195464671232e+18
14075.0	1.9529479797866493e+18
14076.0	1.9525763745185787e+18
14077.0	1.9522005313257464e+18
14078.0	1.9518330566082552e+18
14079.0	1.9514622902009853e+18
14080.0	1.951091619423846e+18
14081.0	1.950720643301376e+18
14082.0	1.950349647046246e+18
14083.0	1.949978583682252e+18
14084.0	1.949606973381017e+18
14085.0	1.9492198760316928e+18
14086.0	1.9488643433365496e+18
14087.0	1.948496081767628e+18
14088.0	1.948125957927731e+18
14089.0	1.947755766978969e+18
14090.0	1.9473855659638781e+18
14091.0	1.9470154672898043e+18
14092.0	1.946645434046873e+18
14093.0	1.9462754746236925e+18
14094.0	1.9459055688876027e+18
14095.0	1.945535693350502e+18
14096.0	1.9451655728660477e+18
14097.0	1.9447961301811197e+18
14098.0	1.9444266690412541e+18
14099.0	1.9440573756735483e+18
14100.0	1.9436872149237755e+18
14101.0	1.9433188543692797e+18
14102.0	1.9429496901861373e+18
14103.0	1.94257944051712e+18
14104.0	1.9422116067672061e+18
14105.0	1.9418426925645821e+18
14106.0	1.941473850503987e+18
14107.0	1.9411050839408637e+18
14108.0	1.940736402941542e+18
14109.0	1.9403675088715773e+18
14110.0	1.93999913657303e+18
14111.0	1.9396306015354875e+18
14112.0	1.939262311445299e+18
14113.0	1.938894174027776e+18
14114.0	1.9385259174920187e+18
14115.0	1.9381572985683965e+18
14116.0	1.937785752020582e+18
14117.0	1.9373829679742973e+18
14118.0	1.9370520424218621e+18
14119.0	1.9366856448016381e+18
14120.0	1.936318316045926e+18
14121.0	1.9359510057451517e+18
14122.0	1.9355833582223355e+18
14123.0	1.9352156368797693e+18
14124.0	1.9348455969259517e+18
14125.0	1.934448299029299e+18
14126.0	1.9341124124540925e+18
14127.0	1.9337473352007675e+18
14128.0	1.9333805986807805e+18
14129.0	1.9330128169402365e+18
14130.0	1.9326455972364288e+18
14131.0	1.932279936135987e+18
14132.0	1.9319105723039736e+18
14133.0	1.931507927508582e+18
14134.0	1.931177483462246e+18
14135.0	1.930813087363891e+18
14136.0	1.9304479111249915e+18
14137.0	1.930081894347571e+18
14138.0	1.9297157886509053e+18
14139.0	1.9293499010580477e+18
14140.0	1.9289838339489787e+18
14141.0	1.9286174094852093e+18
14142.0	1.9282510185758717e+18
14143.0	1.9278865000038397e+18
14144.0	1.927521213035315e+18
14145.0	1.9271557599723515e+18
14146.0	1.9267902817435643e+18
14147.0	1.9264250199408635e+18
14148.0	1.926059816858419e+18
14149.0	1.9256946808848384e+18
14150.0	1.9253295734325243e+18
14151.0	1.924964424037171e+18
14152.0	1.9245996991053821e+18
14153.0	1.9242348500221947e+18
14154.0	1.923867737692569e+18
14155.0	1.923504985761382e+18
14156.0	1.92314077085696e+18
14157.0	1.9227762657067005e+18
14158.0	1.922411611239219e+18
14159.0	1.9220473913016315e+18
14160.0	1.9216815137751037e+18
14161.0	1.9213148678520827e+18
14162.0	1.9209473377697787e+18
14163.0	1.9205899142823933e+18
14164.0	1.9202262194716664e+18
14165.0	1.9198618300841984e+18
14166.0	1.919499257669222e+18
14167.0	1.9191358950473725e+18
14168.0	1.9187723361320955e+18
14169.0	1.918408923178598e+18
14170.0	1.9180453156093947e+18
14171.0	1.9176819630538747e+18
14172.0	1.917318883966976e+18
14173.0	1.9169544962572283e+18
14174.0	1.9165920245055483e+18
14175.0	1.9162297406586875e+18
14176.0	1.9158669048414203e+18
14177.0	1.915504095867699e+18
14178.0	1.915141317092966e+18
14179.0	1.9147784242331643e+18
14180.0	1.9144161353531387e+18
14181.0	1.9140536501796861e+18
14182.0	1.9136911851388925e+18
14183.0	1.9133288694153216e+18
14184.0	1.912966198014771e+18
14185.0	1.912603853769932e+18
14186.0	1.9122347969609725e+18
14187.0	1.911876969142681e+18
14188.0	1.9115182957527037e+18
14189.0	1.9111566427291643e+18
14190.0	1.9107949242744827e+18
14191.0	1.9104331957534715e+18
14192.0	1.910071062901555e+18
14193.0	1.909709352835481e+18
14194.0	1.9093487718760445e+18
14195.0	1.908987612102656e+18
14196.0	1.9086264019976187e+18
14197.0	1.9082652237692928e+18
14198.0	1.907903810659942e+18
14199.0	1.9075428471799808e+18
14200.0	1.9071783940390907e+18
14201.0	1.9068202524868605e+18
14202.0	1.9064605909188605e+18
14203.0	1.906099692870041e+18
14204.0	1.905739120299212e+18
14205.0	1.9053781870182397e+18
14206.0	1.9050099841695744e+18
14207.0	1.9046569915449341e+18
14208.0	1.9042973182328827e+18
14209.0	1.9039281037180925e+18
14210.0	1.9035692592005115e+18
14211.0	1.9032172279103488e+18
14212.0	1.9028577089486845e+18
14213.0	1.9024980557692925e+18
14214.0	1.9021382364954621e+18
14215.0	1.9017777763319805e+18
14216.0	1.901419148240486e+18
14217.0	1.9010596762550264e+18
14218.0	1.9007002629898237e+18
14219.0	1.9003409268998144e+18
14220.0	1.8999816730181632e+18
14221.0	1.89962246946816e+18
14222.0	1.8992633598705661e+18
14223.0	1.8989042821496827e+18
14224.0	1.898545018201702e+18
14225.0	1.8981732132847613e+18
14226.0	1.8978259786006525e+18
14227.0	1.8974661425496061e+18
14228.0	1.89703000204247e+18
14229.0	1.8966941473439741e+18
14230.0	1.896346580470988e+18
14231.0	1.895988410397491e+18
14232.0	1.8956300809404416e+18
14233.0	1.8952717900709888e+18
14234.0	1.8949135243673592e+18
14235.0	1.8945551831662587e+18
14236.0	1.894197195964416e+18
14237.0	1.8938389252276221e+18
14238.0	1.893480515239936e+18
14239.0	1.8931191407181816e+18
14240.0	1.8926384030154747e+18
14241.0	1.89240041317335e+18
14242.0	1.8920476201975805e+18
14243.0	1.8916820144619517e+18
14244.0	1.8913348770856955e+18
14245.0	1.8909778411519997e+18
14246.0	1.8905719382212605e+18
14247.0	1.8902147697475581e+18
14248.0	1.889856336271769e+18
14249.0	1.8895003086487547e+18
14250.0	1.8891432693596155e+18
14251.0	1.8887864414633981e+18
14252.0	1.8884295011598333e+18
14253.0	1.8880724903919613e+18
14254.0	1.88771541754839e+18
14255.0	1.8873555563315197e+18
14256.0	1.886990007638425e+18
14257.0	1.8866407613661181e+18
14258.0	1.8862890102554621e+18
14259.0	1.885933074907136e+18
14260.0	1.8855763963281403e+18
14261.0	1.885221356883148e+18
14262.0	1.8848870188449787e+18
14263.0	1.8845137559879677e+18
14264.0	1.8841653787754493e+18
14265.0	1.8838147450273787e+18
14266.0	1.8834105449840635e+18
14267.0	1.8830549502132221e+18
14268.0	1.8826992396795904e+18
14269.0	1.8823433664069627e+18
14270.0	1.8819878270009341e+18
14271.0	1.881632119822745e+18
14272.0	1.88127611233239e+18
14273.0	1.880917915415347e+18
14274.0	1.8805347204464637e+18
14275.0	1.8802017312964603e+18
14276.0	1.8798543825272827e+18
14277.0	1.8795001215451133e+18
14278.0	1.8791455753502717e+18
14279.0	1.8787906466349053e+18
14280.0	1.8784356491329533e+18
14281.0	1.8780813646626813e+18
14282.0	1.8777267329040381e+18
14283.0	1.87737213805527e+18
14284.0	1.8770175868272637e+18
14285.0	1.8766630808977405e+18
14286.0	1.8763085649018875e+18
14287.0	1.875953855968051e+18
14288.0	1.8755852185894907e+18
14289.0	1.8751098714062843e+18
14290.0	1.874834319055257e+18
14291.0	1.8744828531572733e+18
14292.0	1.8741291290460155e+18
14293.0	1.873774562718515e+18
14294.0	1.8734117034131453e+18
14295.0	1.8730643730989053e+18
14296.0	1.8726503516733437e+18
14297.0	1.8723526450085888e+18
14298.0	1.8719937015054333e+18
14299.0	1.8716517415780352e+18
14300.0	1.8712996784111608e+18
14301.0	1.870946497881702e+18
14302.0	1.870593048916787e+18
14303.0	1.8702366035410941e+18
14304.0	1.8698859312054264e+18
14305.0	1.8695336667119608e+18
14306.0	1.8691805298032635e+18
14307.0	1.8688275623444477e+18
14308.0	1.8684749337853952e+18
14309.0	1.8681219495493632e+18
14310.0	1.8677682422153213e+18
14311.0	1.867415969333248e+18
14312.0	1.8670623777619965e+18
14313.0	1.8667038503337981e+18
14314.0	1.8663044972281853e+18
14315.0	1.8659500063981563e+18
14316.0	1.8655947891146744e+18
14317.0	1.8652455512309752e+18
14318.0	1.864893826963865e+18
14319.0	1.8645418443276283e+18
14320.0	1.8641897694167035e+18
14321.0	1.8638377196716032e+18
14322.0	1.8634833412489213e+18
14323.0	1.863132132042342e+18
14324.0	1.8627822868234237e+18
14325.0	1.8624307420725245e+18
14326.0	1.8620791704780797e+18
14327.0	1.8617275938504704e+18
14328.0	1.8613757152329728e+18
14329.0	1.8610248080162816e+18
14330.0	1.8606735149236221e+18
14331.0	1.8603222587408384e+18
14332.0	1.8599711099322365e+18
14333.0	1.8596200282324984e+18
14334.0	1.8592689884758016e+18
14335.0	1.858917111536025e+18
14336.0	1.8585657463013379e+18
14337.0	1.8582163188350976e+18
14338.0	1.8578655609356283e+18
14339.0	1.8575149338984443e+18
14340.0	1.8571644897329152e+18
14341.0	1.856804001048166e+18
14342.0	1.8564046143881216e+18
14343.0	1.8560540729147395e+18
14344.0	1.855703613649715e+18
14345.0	1.855353204716339e+18
14346.0	1.8550026800201723e+18
14347.0	1.854652000973619e+18
14348.0	1.8543023671476221e+18
14349.0	1.8539523306684408e+18
14350.0	1.85360117179351e+18
14351.0	1.853251274565222e+18
14352.0	1.8529025450311675e+18
14353.0	1.8525527954423805e+18
14354.0	1.8522028931809277e+18
14355.0	1.8518530546728955e+18
14356.0	1.8515035500314624e+18
14357.0	1.8511543792566264e+18
14358.0	1.850804988700262e+18
14359.0	1.8504555947884541e+18
14360.0	1.8501062545637376e+18
14361.0	1.8497570787557376e+18
14362.0	1.8494079566348288e+18
14363.0	1.8490586986184707e+18
14364.0	1.8487067059159037e+18
14365.0	1.8483591524646907e+18
14366.0	1.8480113825873912e+18
14367.0	1.84766337950679e+18
14368.0	1.8473147086929917e+18
14369.0	1.8469661351870461e+18
14370.0	1.8466176002686976e+18
14371.0	1.846269130781491e+18
14372.0	1.8459207233699837e+18
14373.0	1.8455669002731515e+18
14374.0	1.8451632522002424e+18
14375.0	1.8448148582105088e+18
14376.0	1.8444665346850813e+18
14377.0	1.84411822793687e+18
14378.0	1.8437699044114432e+18
14379.0	1.843421965084262e+18
14380.0	1.8430738881839104e+18
14381.0	1.8427258012172288e+18
14382.0	1.8423779373875192e+18
14383.0	1.8420301641547776e+18
14384.0	1.8416825100402688e+18
14385.0	1.84133485592576e+18
14386.0	1.8409872420765693e+18
14387.0	1.8406396634595328e+18
14388.0	1.8402921435627515e+18
14389.0	1.83994472768471e+18
14390.0	1.8395973403279352e+18
14391.0	1.8392502096625656e+18
14392.0	1.838902985044787e+18
14393.0	1.8385558929670141e+18
14394.0	1.8382051535224824e+18
14395.0	1.837860866595225e+18
14396.0	1.8375148616810493e+18
14397.0	1.837167957508096e+18
14398.0	1.8368210734678013e+18
14399.0	1.8364742045270016e+18
14400.0	1.836125938044108e+18
14401.0	1.8357794851782653e+18
14402.0	1.8354316314148861e+18
14403.0	1.8350544292675581e+18
14404.0	1.8345173503180792e+18
14405.0	1.8342348001902587e+18
14406.0	1.8340420501110781e+18
14407.0	1.833670807230873e+18
14408.0	1.8333526273294333e+18
14409.0	1.8330088923725821e+18
14410.0	1.832642801775411e+18
14411.0	1.832256613751193e+18
14412.0	1.8319105954152443e+18
14413.0	1.8315650132869117e+18
14414.0	1.8312190134059003e+18
14415.0	1.830873285315788e+18
14416.0	1.8305276310454264e+18
14417.0	1.830181842557337e+18
14418.0	1.8298360003821563e+18
14419.0	1.8294904836849656e+18
14420.0	1.8291446012444664e+18
14421.0	1.8287992640634875e+18
14422.0	1.8284529370267645e+18
14423.0	1.8281013251670008e+18
14424.0	1.8276385625735165e+18
14425.0	1.8274094344568827e+18
14426.0	1.8270722963013627e+18
14427.0	1.8267283096862715e+18
14428.0	1.8263813870583803e+18
14429.0	1.8260385782038525e+18
14430.0	1.8256935128137725e+18
14431.0	1.8253432347426816e+18
14432.0	1.825002816641433e+18
14433.0	1.824636029789798e+18
14434.0	1.8243129878511608e+18
14435.0	1.823969962570547e+18
14436.0	1.8236267963613181e+18
14437.0	1.8232825849315323e+18
14438.0	1.8229375497404416e+18
14439.0	1.822593836593971e+18
14440.0	1.8222499992961021e+18
14441.0	1.8219052023414781e+18
14442.0	1.8215607157653496e+18
14443.0	1.8212135934885885e+18
14444.0	1.8208727777673208e+18
14445.0	1.8205278314954747e+18
14446.0	1.8201063693746176e+18
14447.0	1.8198344996225021e+18
14448.0	1.8194985442607104e+18
14449.0	1.8191556934631421e+18
14450.0	1.818812394713907e+18
14451.0	1.8184441734103037e+18
14452.0	1.8180617619374077e+18
14453.0	1.8177181360324605e+18
14454.0	1.8173748272168952e+18
14455.0	1.8170311191035904e+18
14456.0	1.8166881491877885e+18
14457.0	1.8163448638603261e+18
14458.0	1.8160016221536253e+18
14459.0	1.8156583385038845e+18
14460.0	1.815315091764019e+18
14461.0	1.814970898789171e+18
14462.0	1.8146285496303613e+18
14463.0	1.8142860243107835e+18
14464.0	1.8139434520150008e+18
14465.0	1.813599156699136e+18
14466.0	1.8132583829209085e+18
14467.0	1.812915114370662e+18
14468.0	1.8125729883488253e+18
14469.0	1.8122286812889085e+18
14470.0	1.8118858908893181e+18
14471.0	1.811545177509069e+18
14472.0	1.8112038131728384e+18
14473.0	1.8108616653406205e+18
14474.0	1.8105195107975163e+18
14475.0	1.8101771800936445e+18
14476.0	1.809833973619097e+18
14477.0	1.8094932954710016e+18
14478.0	1.8091514580172792e+18
14479.0	1.8088095651987456e+18
14480.0	1.8084670231019515e+18
14481.0	1.8081259490115581e+18
14482.0	1.8077837424590845e+18
14483.0	1.807441708711936e+18
14484.0	1.8070990223310845e+18
14485.0	1.8067541633007613e+18
14486.0	1.8063948808978432e+18
14487.0	1.8060752917102587e+18
14488.0	1.80573518734295e+18
14489.0	1.8053936887889917e+18
14490.0	1.8050528898449403e+18
14491.0	1.8047118694416384e+18
14492.0	1.8043709463461885e+18
14493.0	1.8040298940661755e+18
14494.0	1.8036867496673277e+18
14495.0	1.803346517793177e+18
14496.0	1.8029972144783355e+18
14497.0	1.8026656547471355e+18
14498.0	1.802325640976793e+18
14499.0	1.801985034970726e+18
14500.0	1.8016442679033853e+18
14501.0	1.8012447369592827e+18
14502.0	1.8008801663778813e+18
14503.0	1.8005552772677627e+18
14504.0	1.8002153641607165e+18
14505.0	1.7998745199181821e+18
14506.0	1.7995317395849213e+18
14507.0	1.7991756146540541e+18
14508.0	1.7988531649511421e+18
14509.0	1.7985138977669115e+18
14510.0	1.7981737632006136e+18
14511.0	1.797833324966707e+18
14512.0	1.7974922877861885e+18
14513.0	1.797152421655347e+18
14514.0	1.7968099366010875e+18
14515.0	1.7964672569311232e+18
14516.0	1.7959248008839165e+18
14517.0	1.7957778509266941e+18
14518.0	1.7954520071929853e+18
14519.0	1.7951136577224696e+18
14520.0	1.7947743989268475e+18
14521.0	1.79443492538286e+18
14522.0	1.7940952857444347e+18
14523.0	1.7937543743930363e+18
14524.0	1.793414951180697e+18
14525.0	1.7930766235205632e+18
14526.0	1.7927376583262205e+18
14527.0	1.7923945860694013e+18
14528.0	1.7920493495517181e+18
14529.0	1.7917189776474107e+18
14530.0	1.7913799268892672e+18
14531.0	1.7910418257215488e+18
14532.0	1.7907015485489147e+18
14533.0	1.7903639641194493e+18
14534.0	1.790025406611456e+18
14535.0	1.789686560535347e+18
14536.0	1.7893476909711355e+18
14537.0	1.7890082761474043e+18
14538.0	1.7886703662399485e+18
14539.0	1.788331808731955e+18
14540.0	1.7879931975368704e+18
14541.0	1.7876542742855677e+18
14542.0	1.787315864417075e+18
14543.0	1.7869766257541117e+18
14544.0	1.7866381420658685e+18
14545.0	1.7862971485061117e+18
14546.0	1.785780898470297e+18
14547.0	1.785445048804966e+18
14548.0	1.7852802311127037e+18
14549.0	1.7849379910057984e+18
14550.0	1.7846087968620541e+18
14551.0	1.7842719875399675e+18
14552.0	1.7839341497745405e+18
14553.0	1.7835958657351677e+18
14554.0	1.7832587007361021e+18
14555.0	1.7829208411602941e+18
14556.0	1.782582872532582e+18
14557.0	1.7822041168150525e+18
14558.0	1.7818350281293821e+18
14559.0	1.7813476416159736e+18
14560.0	1.781158918068633e+18
14561.0	1.780826670471577e+18
14562.0	1.780487889826611e+18
14563.0	1.7801528555339776e+18
14564.0	1.7798153315024893e+18
14565.0	1.7794780876505085e+18
14566.0	1.7791406642823163e+18
14567.0	1.778803182193868e+18
14568.0	1.778465545755033e+18
14569.0	1.7781261326090235e+18
14570.0	1.7777485378748413e+18
14571.0	1.7774521633210365e+18
14572.0	1.7771134413963261e+18
14573.0	1.7767765465104381e+18
14574.0	1.7764420859985915e+18
14575.0	1.7761053723066365e+18
14576.0	1.7757684807761917e+18
14577.0	1.7754317033308155e+18
14578.0	1.7750946775826427e+18
14579.0	1.7747579605352443e+18
14580.0	1.7744211579240443e+18
14581.0	1.7740841741189117e+18
14582.0	1.7737475996778493e+18
14583.0	1.773410855786905e+18
14584.0	1.7730735146270715e+18
14585.0	1.7727375928197117e+18
14586.0	1.7724009277816827e+18
14587.0	1.7720646217760765e+18
14588.0	1.7717283140927485e+18
14589.0	1.7713929778102264e+18
14590.0	1.7710578378211325e+18
14591.0	1.770722655888998e+18
14592.0	1.770386650195558e+18
14593.0	1.770043744033177e+18
14594.0	1.7697169624530941e+18
14595.0	1.7693823408799741e+18
14596.0	1.7690443454087163e+18
14597.0	1.7687089269178365e+18
14598.0	1.7683778654699515e+18
14599.0	1.7680438730424317e+18
14600.0	1.7677092732796928e+18
14601.0	1.7673746500288507e+18
14602.0	1.7670400133562365e+18
14603.0	1.766705281053491e+18
14604.0	1.7663679432491003e+18
14605.0	1.7660358130925563e+18
14606.0	1.7656948497317888e+18
14607.0	1.765367314854707e+18
14608.0	1.7650335220760576e+18
14609.0	1.7646991655829504e+18
14610.0	1.7643648191561725e+18
14611.0	1.7640305582931965e+18
14612.0	1.7636966866616312e+18
14613.0	1.763362635513856e+18
14614.0	1.7630283092197376e+18
14615.0	1.7626944593985533e+18
14616.0	1.7623605491793917e+18
14617.0	1.7620265080979453e+18
14618.0	1.7616922455572477e+18
14619.0	1.7613536746274816e+18
14620.0	1.7610168250400765e+18
14621.0	1.7606905450987517e+18
14622.0	1.7603143797833725e+18
14623.0	1.7599550688591864e+18
14624.0	1.7596173451788288e+18
14625.0	1.759287073937817e+18
14626.0	1.7589537391771643e+18
14627.0	1.7586198641901565e+18
14628.0	1.758286245894553e+18
14629.0	1.7579525135138813e+18
14630.0	1.7576187257683963e+18
14631.0	1.7572847601844221e+18
14632.0	1.7569414329139197e+18
14633.0	1.756614641267507e+18
14634.0	1.756283915363942e+18
14635.0	1.7559501343293437e+18
14636.0	1.7556155647655933e+18
14637.0	1.7552836074143736e+18
14638.0	1.7549498616119293e+18
14639.0	1.7546155067965437e+18
14640.0	1.7542805161246715e+18
14641.0	1.7539101741809656e+18
14642.0	1.7536137157410813e+18
14643.0	1.753282823743078e+18
14644.0	1.7529497372852221e+18
14645.0	1.7526150653804541e+18
14646.0	1.7522826818879485e+18
14647.0	1.7519499678842877e+18
