# Flux units: erg / (cm m2 s)
# Wavelength units: Angstrom
wave	flux
14000.0	2.0248600332206077e+18
14001.0	2.024482861272269e+18
14002.0	2.024162859365171e+18
14003.0	2.023761028264755e+18
14004.0	2.0233578767974397e+18
14005.0	2.0229544250179576e+18
14006.0	2.0225442690629627e+18
14007.0	2.0221390372208637e+18
14008.0	2.021653298230067e+18
14009.0	2.021338881458176e+18
14010.0	2.020924438924492e+18
14011.0	2.0199793380818944e+18
14012.0	2.020130215585382e+18
14013.0	2.0197285036031997e+18
14014.0	2.019320456544256e+18
14015.0	2.0189209792872445e+18
14016.0	2.0185204920418301e+18
14017.0	2.018118046895308e+18
14018.0	2.0177154289434621e+18
14019.0	2.0173131633131515e+18
14020.0	2.0169101192200187e+18
14021.0	2.0165070046625787e+18
14022.0	2.016093904306176e+18
14023.0	2.0156715731255293e+18
14024.0	2.0152745386311675e+18
14025.0	2.0148973348061181e+18
14026.0	2.0144966797885437e+18
14027.0	2.0140967747125243e+18
14028.0	2.0136885967912955e+18
14029.0	2.0132862959288317e+18
14030.0	2.0097753480691735e+18
14031.0	2.012400390137446e+18
14032.0	2.0120838946684925e+18
14033.0	2.0116256770228221e+18
14034.0	2.0112792140906493e+18
14035.0	2.0108860299673597e+18
14036.0	2.0104764259827702e+18
14037.0	2.0100862315593725e+18
14038.0	2.0096859053752315e+18
14039.0	2.009281559370137e+18
14040.0	2.008878944773734e+18
14041.0	2.0084823280320512e+18
14042.0	2.008074443712102e+18
14043.0	2.0076488694956027e+18
14044.0	2.0072743198261243e+18
14045.0	2.0068812481101821e+18
14046.0	2.0064802424487933e+18
14047.0	2.0060670363959293e+18
14048.0	2.0056807997177853e+18
14049.0	2.0052858388873216e+18
14050.0	2.00488670724096e+18
14051.0	2.004479379924582e+18
14052.0	2.0040842966204408e+18
14053.0	2.0036888660279293e+18
14054.0	2.0032901018025984e+18
14055.0	2.0028911496724477e+18
14056.0	2.0024922545848315e+18
14057.0	2.0020935104921592e+18
14058.0	2.0016948083425277e+18
14059.0	2.0012915109134333e+18
14060.0	2.0008975332278272e+18
14061.0	2.0004932425875448e+18
14062.0	2.0001007865954301e+18
14063.0	1.9996870738706427e+18
14064.0	1.9987766515335165e+18
14065.0	1.9988984910315515e+18
14066.0	1.9985083083522043e+18
14067.0	1.9980774426017792e+18
14068.0	1.997712910607974e+18
14069.0	1.9973083498545144e+18
14070.0	1.996915281494016e+18
14071.0	1.996517631275827e+18
14072.0	1.9961228516392955e+18
14073.0	1.9957255151550461e+18
14074.0	1.995328104851046e+18
14075.0	1.9949121943109627e+18
14076.0	1.9944983205249021e+18
14077.0	1.9934319321546752e+18
14078.0	1.9936858049871864e+18
14079.0	1.9933329952342016e+18
14080.0	1.9929468642525181e+18
14081.0	1.9925505461452797e+18
14082.0	1.9921510437224445e+18
14083.0	1.9917561416122365e+18
14084.0	1.9913591171842043e+18
14085.0	1.9904021733048312e+18
14086.0	1.990508010694246e+18
14087.0	1.9901722298155005e+18
14088.0	1.9897575960215552e+18
14089.0	1.9893540989435901e+18
14090.0	1.9889746218057728e+18
14091.0	1.9885897222717437e+18
14092.0	1.988194714465075e+18
14093.0	1.9877991999864827e+18
14094.0	1.987403408683827e+18
14095.0	1.987006040322867e+18
14096.0	1.9864740264148987e+18
14097.0	1.9861720147165181e+18
14098.0	1.9857575268843517e+18
14099.0	1.985426723805593e+18
14100.0	1.9850227921977344e+18
14101.0	1.9846393673809912e+18
14102.0	1.9842446951186427e+18
14103.0	1.9838373292146688e+18
14104.0	1.9834533373280256e+18
14105.0	1.9830614131736568e+18
14106.0	1.9826673465688061e+18
14107.0	1.9822722833973243e+18
14108.0	1.981865328535142e+18
14109.0	1.981479653893734e+18
14110.0	1.9810849195556861e+18
14111.0	1.9806873096028155e+18
14112.0	1.9802937882574845e+18
14113.0	1.9798926483783677e+18
14114.0	1.9795011352657923e+18
14115.0	1.9791127813029883e+18
14116.0	1.9786294867525627e+18
14117.0	1.9729890672640005e+18
14118.0	1.977924776571699e+18
14119.0	1.9774520046911483e+18
14120.0	1.9770765272416253e+18
14121.0	1.976731872893337e+18
14122.0	1.976288912447897e+18
14123.0	1.9759026791251965e+18
14124.0	1.975502235500544e+18
14125.0	1.9747583773638653e+18
14126.0	1.974782893909606e+18
14127.0	1.9744074466590715e+18
14128.0	1.9740149554348027e+18
14129.0	1.9736132887511037e+18
14130.0	1.973212744463155e+18
14131.0	1.9728381595615224e+18
14132.0	1.9724416871038968e+18
14133.0	1.9715556236066806e+18
14134.0	1.9716630296657917e+18
14135.0	1.9712405894332408e+18
14136.0	1.9707729127931901e+18
14137.0	1.970473825363558e+18
14138.0	1.9700370120900605e+18
14139.0	1.9697061100257275e+18
14140.0	1.9693074179424253e+18
14141.0	1.96886982117294e+18
14142.0	1.9681276860563456e+18
14143.0	1.9681331789168637e+18
14144.0	1.9677529753255933e+18
14145.0	1.9673624889786365e+18
14146.0	1.966964392486502e+18
14147.0	1.9665768069201915e+18
14148.0	1.9661777608376315e+18
14149.0	1.96578886329303e+18
14150.0	1.9654130888867837e+18
14151.0	1.9650003374964733e+18
14152.0	1.9646331798683643e+18
14153.0	1.9642431330844664e+18
14154.0	1.9638293582839805e+18
14155.0	1.96327455588352e+18
14156.0	1.9630463740018688e+18
14157.0	1.9626839358046205e+18
14158.0	1.9622901661564928e+18
14159.0	1.9619055199584253e+18
14160.0	1.9615098125418493e+18
14161.0	1.9610712091394043e+18
14162.0	1.960638204293939e+18
14163.0	1.9603415797596155e+18
14164.0	1.959787837679206e+18
14165.0	1.9594981471682555e+18
14166.0	1.9590970223886333e+18
14167.0	1.9584974231437307e+18
14168.0	1.958111689782067e+18
14169.0	1.9577299108102144e+18
14170.0	1.9573376309788664e+18
14171.0	1.956955685912576e+18
14172.0	1.9565700985126912e+18
14173.0	1.956140039746355e+18
14174.0	1.955786434753331e+18
14175.0	1.9554051121217533e+18
14176.0	1.9550167128604672e+18
14177.0	1.9546299326005245e+18
14178.0	1.954241758153932e+18
14179.0	1.9538469449629693e+18
14180.0	1.9534676322418683e+18
14181.0	1.9530801473388541e+18
14182.0	1.9526919544373243e+18
14183.0	1.9523051355897848e+18
14184.0	1.951912432972595e+18
14185.0	1.951525523528089e+18
14186.0	1.9501539240443907e+18
14187.0	1.9507210677649408e+18
14188.0	1.950364973033062e+18
14189.0	1.9499737266782205e+18
14190.0	1.9495885704527872e+18
14191.0	1.9491976210546683e+18
14192.0	1.9488138036510715e+18
14193.0	1.9482684199796733e+18
14194.0	1.9480415081332733e+18
14195.0	1.9476648428568573e+18
14196.0	1.9472789450784765e+18
14197.0	1.946847074372813e+18
14198.0	1.9463844980064253e+18
14199.0	1.9460001252769787e+18
14200.0	1.9450080079642627e+18
14201.0	1.9451971308093435e+18
14202.0	1.944843255703142e+18
14203.0	1.9444502729064443e+18
14204.0	1.944070695105331e+18
14205.0	1.9436850456297472e+18
14206.0	1.9431852724977661e+18
14207.0	1.9429159344275448e+18
14208.0	1.9425312748077053e+18
14209.0	1.9420214034694136e+18
14210.0	1.9416740379230203e+18
14211.0	1.9413709390610432e+18
14212.0	1.940989926807961e+18
14213.0	1.940599801171148e+18
14214.0	1.940220062308761e+18
14215.0	1.93968867419095e+18
14216.0	1.9390909741268987e+18
14217.0	1.9387063866490877e+18
14218.0	1.9383102715461627e+18
14219.0	1.9379367150878715e+18
14220.0	1.9375465105981435e+18
14221.0	1.9371593494953981e+18
14222.0	1.936724990728601e+18
14223.0	1.936397080041881e+18
14224.0	1.936011304737177e+18
14225.0	1.9338228276396042e+18
14226.0	1.935229229780172e+18
14227.0	1.9348579818668027e+18
14228.0	1.9301481844834312e+18
14229.0	1.9332835257090007e+18
14230.0	1.9337084271591421e+18
14231.0	1.9332748468551675e+18
14232.0	1.9329429851340797e+18
14233.0	1.9325557267234816e+18
14234.0	1.9321763334717437e+18
14235.0	1.9317303346724861e+18
14236.0	1.9312909863616507e+18
14237.0	1.930904045040435e+18
14238.0	1.9305210312654845e+18
14239.0	1.930126419401113e+18
14240.0	1.928339543556096e+18
14241.0	1.9293535098372088e+18
14242.0	1.928982114284339e+18
14243.0	1.9284634533625856e+18
14244.0	1.9282244870864893e+18
14245.0	1.927828368628121e+18
14246.0	1.9274421386608637e+18
14247.0	1.9270718134943744e+18
14248.0	1.9266794128670717e+18
14249.0	1.926309166553497e+18
14250.0	1.925926431280332e+18
14251.0	1.9255462461439997e+18
14252.0	1.9251636165672952e+18
14253.0	1.9247801850396672e+18
14254.0	1.9243953123491835e+18
14255.0	1.923980094708121e+18
14256.0	1.9216942996914186e+18
14257.0	1.9231314376916984e+18
14258.0	1.92278449660887e+18
14259.0	1.9223493157584893e+18
14260.0	1.92192520954839e+18
14261.0	1.9215829912518653e+18
14262.0	1.921236149154611e+18
14263.0	1.9180432956325908e+18
14264.0	1.919891611320319e+18
14265.0	1.9200872588247037e+18
14266.0	1.9197185342046203e+18
14267.0	1.9193385587834877e+18
14268.0	1.9189556842594304e+18
14269.0	1.91856766919639e+18
14270.0	1.9181947251064824e+18
14271.0	1.9178115989241853e+18
14272.0	1.9174280566669312e+18
14273.0	1.9170278043025405e+18
14274.0	1.9123782673235986e+18
14275.0	1.915851570465997e+18
14276.0	1.915885738944102e+18
14277.0	1.9155129777258493e+18
14278.0	1.9151472914595837e+18
14279.0	1.9147665811963904e+18
14280.0	1.9143807924699133e+18
14281.0	1.9140073551298555e+18
14282.0	1.9136274199740408e+18
14283.0	1.9131884306956283e+18
14284.0	1.912746642977587e+18
14285.0	1.912364926081433e+18
14286.0	1.9119806858919933e+18
14287.0	1.911604725258649e+18
14288.0	1.9112235217453056e+18
14289.0	1.9099353369018348e+18
14290.0	1.910462245502976e+18
14291.0	1.9100836810457083e+18
14292.0	1.9097047038689277e+18
14293.0	1.9093223980924925e+18
14294.0	1.90881587045335e+18
14295.0	1.9085504985169917e+18
14296.0	1.9074485827141635e+18
14297.0	1.907799407722496e+18
14298.0	1.90680506910638e+18
14299.0	1.9070231913693181e+18
14300.0	1.906659020085657e+18
14301.0	1.9062824118517752e+18
14302.0	1.905904382587699e+18
14303.0	1.9054923895275517e+18
14304.0	1.9051284464140283e+18
14305.0	1.904760553943859e+18
14306.0	1.9043368336097275e+18
14307.0	1.903965270284697e+18
14308.0	1.9036011342331904e+18
14309.0	1.903193451239833e+18
14310.0	1.9026515186417661e+18
14311.0	1.9019357556310008e+18
14312.0	1.9018124565151744e+18
14313.0	1.901483921716019e+18
14314.0	1.9011900721332221e+18
14315.0	1.900842837449113e+18
14316.0	1.900425015984128e+18
14317.0	1.900027255036313e+18
14318.0	1.8997231780626427e+18
14319.0	1.899349188752179e+18
14320.0	1.8989721342443515e+18
14321.0	1.8985929339305981e+18
14322.0	1.8981806321696763e+18
14323.0	1.897823207004569e+18
14324.0	1.8974630773522427e+18
14325.0	1.897077109109555e+18
14326.0	1.8967092434829307e+18
14327.0	1.8963255334535163e+18
14328.0	1.895948413514547e+18
14329.0	1.8955771807006715e+18
14330.0	1.8951998527242235e+18
14331.0	1.8948165352816637e+18
14332.0	1.894445325955891e+18
14333.0	1.8940681657516027e+18
14334.0	1.8936909485047803e+18
14335.0	1.8933014251700216e+18
14336.0	1.8927416583913472e+18
14337.0	1.892556617442918e+18
14338.0	1.892179921967513e+18
14339.0	1.8917918431510525e+18
14340.0	1.8914271148638203e+18
14341.0	1.8910394823213053e+18
14342.0	1.8906738145099773e+18
14343.0	1.8899097247285243e+18
14344.0	1.8894010345062392e+18
14345.0	1.8890286658748413e+18
14346.0	1.8886420131217403e+18
14347.0	1.8882038811590653e+18
14348.0	1.8878912981368827e+18
14349.0	1.8875216373481472e+18
14350.0	1.886991477322547e+18
14351.0	1.8866008081039352e+18
14352.0	1.8863858718343163e+18
14353.0	1.8860168351580155e+18
14354.0	1.8856216277024765e+18
14355.0	1.8852073378414587e+18
14356.0	1.8848450976153597e+18
14357.0	1.8845137090117632e+18
14358.0	1.8841378926624763e+18
14359.0	1.8837473341734907e+18
14360.0	1.883371992619417e+18
14361.0	1.883003888756326e+18
14362.0	1.8826340299964413e+18
14363.0	1.882256863081267e+18
14364.0	1.881390182301696e+18
14365.0	1.8814032769187837e+18
14366.0	1.8810456588156928e+18
14367.0	1.8807565454409728e+18
14368.0	1.880380871698022e+18
14369.0	1.880006023394099e+18
14370.0	1.8796311163699192e+18
14371.0	1.8792565482455035e+18
14372.0	1.8788757222195192e+18
14373.0	1.8785028704043005e+18
14374.0	1.878130632635187e+18
14375.0	1.877754452220313e+18
14376.0	1.8773808873734141e+18
14377.0	1.8770053344264187e+18
14378.0	1.8766285013778427e+18
14379.0	1.8762270712528893e+18
14380.0	1.8754646944251904e+18
14381.0	1.8750793754607613e+18
14382.0	1.8747143703494656e+18
14383.0	1.8743361699577853e+18
14384.0	1.8739482371031035e+18
14385.0	1.8735916491210747e+18
14386.0	1.8731997467770872e+18
14387.0	1.8728421823610877e+18
14388.0	1.8724659180601341e+18
14389.0	1.8720930863775744e+18
14390.0	1.8717170351472637e+18
14391.0	1.8713446480609277e+18
14392.0	1.870969016261017e+18
14393.0	1.8705962785308672e+18
14394.0	1.870185478330777e+18
14395.0	1.8698287091548155e+18
14396.0	1.8694731798151163e+18
14397.0	1.8691001719717888e+18
14398.0	1.8687254461415421e+18
14399.0	1.8683513175801856e+18
14400.0	1.8679578734100475e+18
14401.0	1.8675972068868096e+18
14402.0	1.86722641028055e+18
14403.0	1.8657230609973228e+18
14404.0	1.8620822138650604e+18
14405.0	1.8645963618910172e+18
14406.0	1.86572988261335e+18
14407.0	1.863751709596058e+18
14408.0	1.864941789668966e+18
14409.0	1.8645973567799293e+18
14410.0	1.8642062026997755e+18
14411.0	1.8638682374275072e+18
14412.0	1.8634934847537147e+18
14413.0	1.8631237954437117e+18
14414.0	1.862748098212659e+18
14415.0	1.862375893997977e+18
14416.0	1.861991977608806e+18
14417.0	1.861588807686553e+18
14418.0	1.8611929996066813e+18
14419.0	1.86088097358807e+18
14420.0	1.8604835330850813e+18
14421.0	1.8600210255052797e+18
14422.0	1.8596395569119227e+18
14423.0	1.8592207237808125e+18
14424.0	1.852241150266569e+18
14425.0	1.858499170952806e+18
14426.0	1.858153665999667e+18
14427.0	1.8577844481294333e+18
14428.0	1.8573910157033472e+18
14429.0	1.85703542596567e+18
14430.0	1.8566635740725243e+18
14431.0	1.855462702894285e+18
14432.0	1.8559125621309437e+18
14433.0	1.8543310444429302e+18
14434.0	1.8551549634543616e+18
14435.0	1.854693217560166e+18
14436.0	1.8544281107038205e+18
14437.0	1.8540590153072637e+18
14438.0	1.853574531252224e+18
14439.0	1.8532988144844797e+18
14440.0	1.8529420050431997e+18
14441.0	1.852563245970227e+18
14442.0	1.8521861042208765e+18
14443.0	1.8517756781527037e+18
14444.0	1.8514486633693181e+18
14445.0	1.8510793062481915e+18
14446.0	1.8488731811971077e+18
14447.0	1.8503195164671997e+18
14448.0	1.8499647773343741e+18
14449.0	1.849593240852889e+18
14450.0	1.8492155555217403e+18
14451.0	1.84884730569687e+18
14452.0	1.8484739237216253e+18
14453.0	1.8480832125599744e+18
14454.0	1.847729050563379e+18
14455.0	1.8473488318726141e+18
14456.0	1.8469716649574397e+18
14457.0	1.8466014203215872e+18
14458.0	1.8462268538748925e+18
14459.0	1.8458454154805243e+18
14460.0	1.8454500654186496e+18
14461.0	1.8449579376639992e+18
14462.0	1.8442889931522045e+18
14463.0	1.8442866426642427e+18
14464.0	1.8439780727521277e+18
14465.0	1.8436032261259267e+18
14466.0	1.8432586825072635e+18
14467.0	1.842862825773465e+18
14468.0	1.842519644464742e+18
14469.0	1.842074167436902e+18
14470.0	1.8416630065266683e+18
14471.0	1.841293518543257e+18
14472.0	1.840927156155187e+18
14473.0	1.8405593509265403e+18
14474.0	1.8401920406257661e+18
14475.0	1.8398178852208637e+18
14476.0	1.8393710408499197e+18
14477.0	1.8390748089024507e+18
14478.0	1.8387053678952443e+18
14479.0	1.8383321134268413e+18
14480.0	1.8379471786606587e+18
14481.0	1.837595274877337e+18
14482.0	1.8372204701941755e+18
14483.0	1.836842598635929e+18
14484.0	1.836471459774464e+18
14485.0	1.8360724153696253e+18
14486.0	1.8354453199454203e+18
14487.0	1.8353632676151293e+18
14488.0	1.834931170417049e+18
14489.0	1.8345464671764475e+18
14490.0	1.8342373301944315e+18
14491.0	1.8338837335900155e+18
14492.0	1.8335136483377147e+18
14493.0	1.8331280592601085e+18
14494.0	1.8324697431146488e+18
14495.0	1.831873860023091e+18
14496.0	1.8313714713231363e+18
14497.0	1.831132260099686e+18
14498.0	1.8307626613866493e+18
14499.0	1.8303920208084987e+18
14500.0	1.8300206302887933e+18
14501.0	1.8296091489337344e+18
14502.0	1.8290227617464317e+18
14503.0	1.828874595441049e+18
14504.0	1.8285310685216765e+18
14505.0	1.8281303363289085e+18
14506.0	1.827722738899353e+18
14507.0	1.8271825209327616e+18
14508.0	1.8270533967675387e+18
14509.0	1.826683182330675e+18
14510.0	1.8263093960245245e+18
14511.0	1.825941263640166e+18
14512.0	1.8255550739382264e+18
14513.0	1.8251995194327035e+18
14514.0	1.8247952975790075e+18
14515.0	1.8244554700357627e+18
14516.0	1.8217889681113103e+18
14517.0	1.8237096204435456e+18
14518.0	1.8233455011692541e+18
14519.0	1.8229754175946747e+18
14520.0	1.822604765272473e+18
14521.0	1.8222332237578235e+18
14522.0	1.821855806862131e+18
14523.0	1.8213388471500792e+18
14524.0	1.821034285314867e+18
14525.0	1.8207446031925245e+18
14526.0	1.8200748651184125e+18
14527.0	1.8195259968192507e+18
14528.0	1.819043718968115e+18
14529.0	1.8187950202290176e+18
14530.0	1.8184173097320443e+18
14531.0	1.8180619464867837e+18
14532.0	1.8175858443288576e+18
14533.0	1.8173216971292664e+18
14534.0	1.816953054717542e+18
14535.0	1.8165713294327805e+18
14536.0	1.81620752557015e+18
14537.0	1.815828489673113e+18
14538.0	1.8154699337236475e+18
14539.0	1.8150991589277693e+18
14540.0	1.8147281660280827e+18
14541.0	1.8143340960677885e+18
14542.0	1.8139835042627584e+18
14543.0	1.813553776007577e+18
14544.0	1.8132418154201088e+18
14545.0	1.8128577144815613e+18
14546.0	1.804730482085064e+18
14547.0	1.805031453596052e+18
14548.0	1.8117402160005115e+18
14549.0	1.811268183995187e+18
14550.0	1.811008041517056e+18
14551.0	1.8106468330897403e+18
14552.0	1.810274729538355e+18
14553.0	1.8098976012107776e+18
14554.0	1.8095338728456187e+18
14555.0	1.809162257511219e+18
14556.0	1.8087891271942141e+18
14557.0	1.8084191660933115e+18
14558.0	1.8080440258658304e+18
14559.0	1.8059667330564063e+18
14560.0	1.807281098745446e+18
14561.0	1.8069253882118136e+18
14562.0	1.8065213861396477e+18
14563.0	1.8061803858690045e+18
14564.0	1.8057475303407616e+18
14565.0	1.8054481543430141e+18
14566.0	1.8050774298787837e+18
14567.0	1.8046991623782397e+18
14568.0	1.8042763849236472e+18
14569.0	1.803957280597606e+18
14570.0	1.8030809831178237e+18
14571.0	1.8032137697492987e+18
14572.0	1.8027829023211515e+18
14573.0	1.802414368961331e+18
14574.0	1.801945462551347e+18
14575.0	1.8017008574529539e+18
14576.0	1.801328342859776e+18
14577.0	1.800984262292275e+18
14578.0	1.800614891749376e+18
14579.0	1.8002474489085947e+18
14580.0	1.799874231350067e+18
14581.0	1.7994929791827965e+18
14582.0	1.7991180688031736e+18
14583.0	1.7987595917066237e+18
14584.0	1.7983458739486715e+18
14585.0	1.798014835988889e+18
14586.0	1.7976405212004347e+18
14587.0	1.7972699728969728e+18
14588.0	1.7968988642344955e+18
14589.0	1.7965330756272125e+18
14590.0	1.79616760243159e+18
14591.0	1.7957099250122752e+18
14592.0	1.7953234584862715e+18
14593.0	1.7948494551580664e+18
14594.0	1.7945985535705088e+18
14595.0	1.7942233848217597e+18
14596.0	1.7934307385409528e+18
14597.0	1.7929724353314806e+18
14598.0	1.7930806617964541e+18
14599.0	1.7927614735843323e+18
14600.0	1.7923827396771837e+18
14601.0	1.792019457585971e+18
14602.0	1.7916324961320955e+18
14603.0	1.7912816107257853e+18
14604.0	1.7908474818068475e+18
14605.0	1.790464402600755e+18
14606.0	1.7901056772014077e+18
14607.0	1.7898084100997115e+18
14608.0	1.78944523370496e+18
14609.0	1.7890604029575165e+18
14610.0	1.7885946556973053e+18
14611.0	1.7883117800914941e+18
14612.0	1.7879767357325307e+18
14613.0	1.7876165758812155e+18
14614.0	1.7872481935163387e+18
14615.0	1.7868815241052155e+18
14616.0	1.7865181698719741e+18
14617.0	1.786149671744307e+18
14618.0	1.785748223164416e+18
14619.0	1.785071391683378e+18
14620.0	1.7838771105955837e+18
14621.0	1.784673518328217e+18
14622.0	1.784074348580044e+18
14623.0	1.7832817777967104e+18
14624.0	1.7828548546920448e+18
14625.0	1.7825402030391293e+18
14626.0	1.7821724028436477e+18
14627.0	1.7817989638258688e+18
14628.0	1.7814355189956605e+18
14629.0	1.7810648700289021e+18
14630.0	1.7806847016697853e+18
14631.0	1.7803245065863163e+18
14632.0	1.7794311768768512e+18
14633.0	1.7794941182803963e+18
14634.0	1.779196839434649e+18
14635.0	1.778594711863295e+18
14636.0	1.7778286155268088e+18
14637.0	1.7781011999883261e+18
14638.0	1.777702585080217e+18
14639.0	1.7773229636583421e+18
14640.0	1.7769788545695744e+18
14641.0	1.774586230629989e+18
14642.0	1.7762324311965693e+18
14643.0	1.775864825616793e+18
14644.0	1.77547680719831e+18
14645.0	1.77509894235095e+18
14646.0	1.7747064779702272e+18
14647.0	1.7742821754667003e+18
14648.0	1.7739749426987003e+18
