# Flux units: erg / (cm m2 s)
# Wavelength units: Angstrom
wave	flux
14000.0	1.4915221579628541e+18
14001.0	1.4912446259003387e+18
14002.0	1.4910322280235005e+18
14003.0	1.4907879349813248e+18
14004.0	1.4905428332773376e+18
14005.0	1.490297770160947e+18
14006.0	1.4900514252652541e+18
14007.0	1.489807113768141e+18
14008.0	1.4895487144427515e+18
14009.0	1.4893177727090683e+18
14010.0	1.4890731810324483e+18
14011.0	1.4887199166169088e+18
14012.0	1.4885837158219776e+18
14013.0	1.488339161055232e+18
14014.0	1.4880945660231683e+18
14015.0	1.4878497042333693e+18
14016.0	1.4876055621861376e+18
14017.0	1.4873611449925632e+18
14018.0	1.4871167546425341e+18
14019.0	1.4868724397899773e+18
14020.0	1.4866280645394432e+18
14021.0	1.4863837463314424e+18
14022.0	1.4861395925401597e+18
14023.0	1.4858953498296315e+18
14024.0	1.4856501843722237e+18
14025.0	1.4854075472412667e+18
14026.0	1.4851633481515003e+18
14027.0	1.4849197295534077e+18
14028.0	1.4846758676856832e+18
14029.0	1.484432044405555e+18
14030.0	1.4841390722711547e+18
14031.0	1.4839433811460093e+18
14032.0	1.4837008966877184e+18
14033.0	1.483451645978214e+18
14034.0	1.4832137618325504e+18
14035.0	1.482970369726873e+18
14036.0	1.4827269256118267e+18
14037.0	1.4824835553165307e+18
14038.0	1.4822401900544e+18
14039.0	1.4819969204223995e+18
14040.0	1.4817536893779963e+18
14041.0	1.48151054893056e+18
14042.0	1.4812655395012605e+18
14043.0	1.481017629291315e+18
14044.0	1.4807790388248576e+18
14045.0	1.4805383595950077e+18
14046.0	1.4802954406068221e+18
14047.0	1.4800524175998973e+18
14048.0	1.4798096999383037e+18
14049.0	1.4795670107979776e+18
14050.0	1.4793243065581568e+18
14051.0	1.4790803322830848e+18
14052.0	1.478839022229913e+18
14053.0	1.4785964907954176e+18
14054.0	1.4783539878821885e+18
14055.0	1.4781115436892157e+18
14056.0	1.4778691397615613e+18
14057.0	1.4776267979096056e+18
14058.0	1.4773845047115768e+18
14059.0	1.4771422584897536e+18
14060.0	1.4769000709881853e+18
14061.0	1.476656756057702e+18
14062.0	1.4764158352359421e+18
14063.0	1.4761715556155395e+18
14064.0	1.4759203923034107e+18
14065.0	1.475688438903603e+18
14066.0	1.4754480062988285e+18
14067.0	1.4752061778296824e+18
14068.0	1.474964399692185e+18
14069.0	1.4747224806260736e+18
14070.0	1.474480964213145e+18
14071.0	1.4742388639531003e+18
14072.0	1.473997782070067e+18
14073.0	1.4737562589462528e+18
14074.0	1.4735148012535805e+18
14075.0	1.473273336850022e+18
14076.0	1.4730320049864701e+18
14077.0	1.472779965903667e+18
14078.0	1.4725486701707264e+18
14079.0	1.4723073013972987e+18
14080.0	1.4720670516641792e+18
14081.0	1.4718259328712704e+18
14082.0	1.4715846261735421e+18
14083.0	1.4713436399206397e+18
14084.0	1.4711028583497725e+18
14085.0	1.4708240176644093e+18
14086.0	1.4706202264993792e+18
14087.0	1.4703803173437437e+18
14088.0	1.4701394468536315e+18
14089.0	1.4698988565430272e+18
14090.0	1.4696580447731707e+18
14091.0	1.469417610490675e+18
14092.0	1.4691770604453885e+18
14093.0	1.4689365540208635e+18
14094.0	1.46869611134976e+18
14095.0	1.4684557005553656e+18
14096.0	1.4682133503148024e+18
14097.0	1.4679749511086075e+18
14098.0	1.467733880969625e+18
14099.0	1.4674946059927547e+18
14100.0	1.467252359770931e+18
14101.0	1.4670143716065277e+18
14102.0	1.4667742913232893e+18
14103.0	1.4665315166191613e+18
14104.0	1.466294385770496e+18
14105.0	1.4658957322747901e+18
14106.0	1.465654261160345e+18
14107.0	1.4654143754928125e+18
14108.0	1.4651746827632637e+18
14109.0	1.464934226670387e+18
14110.0	1.4646949365940221e+18
14111.0	1.4644546801500157e+18
14112.0	1.464215767561011e+18
14113.0	1.4639765345271803e+18
14114.0	1.4637370850672635e+18
14115.0	1.463497380593664e+18
14116.0	1.4632570402635776e+18
14117.0	1.462930750255923e+18
14118.0	1.4627796143833088e+18
14119.0	1.462539299219046e+18
14120.0	1.462300292677632e+18
14121.0	1.4620619119263741e+18
14122.0	1.4618209743273981e+18
14123.0	1.4615833317736445e+18
14124.0	1.461344076929433e+18
14125.0	1.461035465074278e+18
14126.0	1.4608672650952701e+18
14127.0	1.4606285085343744e+18
14128.0	1.4603895372251136e+18
14129.0	1.4601493361459195e+18
14130.0	1.459910329604505e+18
14131.0	1.459673735626752e+18
14132.0	1.4594350780514304e+18
14133.0	1.4591137926873085e+18
14134.0	1.458958073279283e+18
14135.0	1.4587178503897085e+18
14136.0	1.4584802648784893e+18
14137.0	1.458242910892851e+18
14138.0	1.4580038993182715e+18
14139.0	1.4577665067450365e+18
14140.0	1.457527906212249e+18
14141.0	1.4572898912043008e+18
14142.0	1.4570461434216445e+18
14143.0	1.4568138326671357e+18
14144.0	1.456576237089587e+18
14145.0	1.456338299256832e+18
14146.0	1.4561001802301437e+18
14147.0	1.4558624537903101e+18
14148.0	1.4556247273504765e+18
14149.0	1.4553871368060925e+18
14150.0	1.455149460697907e+18
14151.0	1.4549114305904637e+18
14152.0	1.4546742577987584e+18
14153.0	1.4544367091974141e+18
14154.0	1.4541958202523645e+18
14155.0	1.4539547585019904e+18
14156.0	1.45372324298752e+18
14157.0	1.4534871120609277e+18
14158.0	1.4532492245598208e+18
14159.0	1.4530125987053565e+18
14160.0	1.4527741877551101e+18
14161.0	1.452529567557222e+18
14162.0	1.4522852678041597e+18
14163.0	1.452063862240051e+18
14164.0	1.4518247281917947e+18
14165.0	1.4515841345257467e+18
14166.0	1.4513532196356093e+18
14167.0	1.4511165300277245e+18
14168.0	1.4508794948091904e+18
14169.0	1.4506430098833408e+18
14170.0	1.4504057867599872e+18
14171.0	1.4501691592278013e+18
14172.0	1.4499330769551357e+18
14173.0	1.4496918541434877e+18
14174.0	1.4494593219297277e+18
14175.0	1.449223597011763e+18
14176.0	1.448987209393766e+18
14177.0	1.4487508670742525e+18
14178.0	1.4485144844894203e+18
14179.0	1.4482773586739197e+18
14180.0	1.4480421202952187e+18
14181.0	1.4478059675582464e+18
14182.0	1.4475697426792448e+18
14183.0	1.4473338114015232e+18
14184.0	1.4470970362298365e+18
14185.0	1.4468618246946813e+18
14186.0	1.4466085055102973e+18
14187.0	1.4463864238243837e+18
14188.0	1.4461540929372157e+18
14189.0	1.445918329431654e+18
14190.0	1.445682648134451e+18
14191.0	1.4454469550931965e+18
14192.0	1.4452102587744253e+18
14193.0	1.4449735154794493e+18
14194.0	1.444740162859827e+18
14195.0	1.4445049496469501e+18
14196.0	1.4442694914867197e+18
14197.0	1.4440341054685181e+18
14198.0	1.4437979678310397e+18
14199.0	1.4435631857926141e+18
14200.0	1.443318604182323e+18
14201.0	1.443092512741785e+18
14202.0	1.4428579823615997e+18
14203.0	1.442621838013235e+18
14204.0	1.4423873713864701e+18
14205.0	1.4421524366753787e+18
14206.0	1.4418995268550653e+18
14207.0	1.4416829111861245e+18
14208.0	1.4414482012897275e+18
14209.0	1.4411939157377021e+18
14210.0	1.4409640460681213e+18
14211.0	1.440743813231411e+18
14212.0	1.440509141922611e+18
14213.0	1.4402746518077437e+18
14214.0	1.440039962044006e+18
14215.0	1.4398034519523323e+18
14216.0	1.4395711797854208e+18
14217.0	1.4393367634903037e+18
14218.0	1.4391023807496187e+18
14219.0	1.438868061762355e+18
14220.0	1.4386338165948413e+18
14221.0	1.4383995294842875e+18
14222.0	1.438165379946905e+18
14223.0	1.4379312622862336e+18
14224.0	1.4376972050235387e+18
14225.0	1.4374306905587707e+18
14226.0	1.437229023389286e+18
14227.0	1.436995263083315e+18
14228.0	1.4366671074492413e+18
14229.0	1.4365065243262976e+18
14230.0	1.436293764061593e+18
14231.0	1.436060032276889e+18
14232.0	1.4358263374020603e+18
14233.0	1.4355927062806525e+18
14234.0	1.4353591053582336e+18
14235.0	1.4350768874192893e+18
14236.0	1.4348324886806525e+18
14237.0	1.434592693610086e+18
14238.0	1.4343551131320315e+18
14239.0	1.4341208578981885e+18
14240.0	1.4335976738390016e+18
14241.0	1.4336548623351803e+18
14242.0	1.4334217815064573e+18
14243.0	1.4331649089077245e+18
14244.0	1.4329554956976125e+18
14245.0	1.432721030748569e+18
14246.0	1.4324871144144893e+18
14247.0	1.4322563253534715e+18
14248.0	1.4320201675833341e+18
14249.0	1.4317900932317181e+18
14250.0	1.4315571751419901e+18
14251.0	1.4313247217811453e+18
14252.0	1.4310919261650941e+18
14253.0	1.4308590634401792e+18
14254.0	1.4306261218623485e+18
14255.0	1.430382563662233e+18
14256.0	1.4301203508756475e+18
14257.0	1.429916744259993e+18
14258.0	1.4296858008485885e+18
14259.0	1.429453317288755e+18
14260.0	1.4292187516764157e+18
14261.0	1.428989120243302e+18
14262.0	1.4287778682503165e+18
14263.0	1.4285004787941373e+18
14264.0	1.4283031065919485e+18
14265.0	1.4280810668490747e+18
14266.0	1.4278488953454587e+18
14267.0	1.4276167792066557e+18
14268.0	1.427384694944563e+18
14269.0	1.427152224806502e+18
14270.0	1.4269206606381053e+18
14271.0	1.4266886350962685e+18
14272.0	1.426456792426086e+18
14273.0	1.4262246930644987e+18
14274.0	1.4259242601021437e+18
14275.0	1.4257486244610045e+18
14276.0	1.4255189863170048e+18
14277.0	1.425287089959731e+18
14278.0	1.4250559989088253e+18
14279.0	1.4248241948262397e+18
14280.0	1.4245917599203323e+18
14281.0	1.4243612996927485e+18
14282.0	1.424129861353472e+18
14283.0	1.4238984179810301e+18
14284.0	1.423667021584793e+18
14285.0	1.423435657065267e+18
14286.0	1.4232042136928253e+18
14287.0	1.4229730823766013e+18
14288.0	1.4227417631555581e+18
14289.0	1.4223246798880763e+18
14290.0	1.4222793663053821e+18
14291.0	1.4220483457187837e+18
14292.0	1.4218174509613053e+18
14293.0	1.4215860847640573e+18
14294.0	1.4213341882875901e+18
14295.0	1.4211245301301245e+18
14296.0	1.4207442845958141e+18
14297.0	1.4206624268812285e+18
14298.0	1.4203960969658365e+18
14299.0	1.420190817661747e+18
14300.0	1.4199606896230397e+18
14301.0	1.4197299794149376e+18
14302.0	1.4194988631982075e+18
14303.0	1.4192636986392573e+18
14304.0	1.419035837202432e+18
14305.0	1.4188074321838075e+18
14306.0	1.4185757019209723e+18
14307.0	1.4183459429810173e+18
14308.0	1.4181164105334781e+18
14309.0	1.417885868097536e+18
14310.0	1.417649076148633e+18
14311.0	1.4174136498651136e+18
14312.0	1.4171893351317501e+18
14313.0	1.4169343029936125e+18
14314.0	1.4167348806156285e+18
14315.0	1.4165051434860541e+18
14316.0	1.4162671486107645e+18
14317.0	1.4160441643106301e+18
14318.0	1.4158153432170493e+18
14319.0	1.4155855524003837e+18
14320.0	1.4153556558872573e+18
14321.0	1.4151259539898365e+18
14322.0	1.4148903213465597e+18
14323.0	1.4146589836705787e+18
14324.0	1.414426812166963e+18
14325.0	1.4141971673120765e+18
14326.0	1.413967569433395e+18
14327.0	1.4137380051091453e+18
14328.0	1.4135073955643387e+18
14329.0	1.4132790224224253e+18
14330.0	1.413049595671347e+18
14331.0	1.4128201588539387e+18
14332.0	1.4125908545765373e+18
14333.0	1.4123615721095165e+18
14334.0	1.4121323030642685e+18
14335.0	1.411900717085491e+18
14336.0	1.4116707417194493e+18
14337.0	1.4114447056437248e+18
14338.0	1.4112153862668285e+18
14339.0	1.4109863386808317e+18
14340.0	1.4107576467718141e+18
14341.0	1.4105284985225213e+18
14342.0	1.410299793191731e+18
14343.0	1.4100707271507965e+18
14344.0	1.4098419664551936e+18
14345.0	1.4096133265555453e+18
14346.0	1.4093841564958717e+18
14347.0	1.4091533154254848e+18
14348.0	1.4089271870750717e+18
14349.0	1.4086986260283392e+18
14350.0	1.4084676004085757e+18
14351.0	1.4082324811481085e+18
14352.0	1.4080030795628541e+18
14353.0	1.407774595691315e+18
14354.0	1.407545637024563e+18
14355.0	1.4073168561963005e+18
14356.0	1.4070887162576893e+18
14357.0	1.4068610829910013e+18
14358.0	1.4066328130289664e+18
14359.0	1.4064044885409792e+18
14360.0	1.4061761187545085e+18
14361.0	1.405948152460083e+18
14362.0	1.4057201358340093e+18
14363.0	1.405492030288691e+18
14364.0	1.4052567231234045e+18
14365.0	1.405034465276723e+18
14366.0	1.404806580351795e+18
14367.0	1.4045802464804864e+18
14368.0	1.4043522885746685e+18
14369.0	1.4041245328343037e+18
14370.0	1.4038967661887485e+18
14371.0	1.4036690414862336e+18
14372.0	1.4034413310443517e+18
14373.0	1.4032136524791808e+18
14374.0	1.402985879122739e+18
14375.0	1.4027578272645117e+18
14376.0	1.4025310051762173e+18
14377.0	1.4023033995919357e+18
14378.0	1.4020756178468861e+18
14379.0	1.401848656507699e+18
14380.0	1.4016212430225405e+18
14381.0	1.4013935359361021e+18
14382.0	1.4011664420569085e+18
14383.0	1.4009335298392061e+18
14384.0	1.4007023020539901e+18
14385.0	1.4004751762980861e+18
14386.0	1.400248021182054e+18
14387.0	1.4000208534831101e+18
14388.0	1.3997935054290941e+18
14389.0	1.3995667135397885e+18
14390.0	1.3993394334334973e+18
14391.0	1.3991128218992637e+18
14392.0	1.3988857221480445e+18
14393.0	1.3986590703484923e+18
14394.0	1.398426733589299e+18
14395.0	1.3982038373695485e+18
14396.0	1.3979786871308285e+18
14397.0	1.39775197577216e+18
14398.0	1.397525248475136e+18
14399.0	1.397298650362675e+18
14400.0	1.3970687286837245e+18
14401.0	1.3968444215001085e+18
14402.0	1.396618710063513e+18
14403.0	1.3962753744044027e+18
14404.0	1.3955135235424248e+18
14405.0	1.395614500572364e+18
14406.0	1.3957129819914237e+18
14407.0	1.3953237086371837e+18
14408.0	1.3952593898242045e+18
14409.0	1.3950308128391165e+18
14410.0	1.3948075718475773e+18
14411.0	1.394581893965414e+18
14412.0	1.394355284947763e+18
14413.0	1.3941299132497917e+18
14414.0	1.393903466132275e+18
14415.0	1.393677636416307e+18
14416.0	1.3934518813589501e+18
14417.0	1.3932257278427133e+18
14418.0	1.3929984770965501e+18
14419.0	1.3927738394017792e+18
14420.0	1.3925398324707323e+18
14421.0	1.3923125607530493e+18
14422.0	1.3920867251650557e+18
14423.0	1.3918597311102973e+18
14424.0	1.390964147381862e+18
14425.0	1.3914085959663613e+18
14426.0	1.3911840958447613e+18
14427.0	1.3909585848958973e+18
14428.0	1.3907299441573885e+18
14429.0	1.3905066444455933e+18
14430.0	1.3902820411441147e+18
14431.0	1.3900424272674813e+18
14432.0	1.3898306736357373e+18
14433.0	1.389481590941286e+18
14434.0	1.3893780881014781e+18
14435.0	1.3891519547179005e+18
14436.0	1.3889299585957885e+18
14437.0	1.3887047504756733e+18
14438.0	1.3884756206813181e+18
14439.0	1.388253527251353e+18
14440.0	1.388029163025203e+18
14441.0	1.3878019022127101e+18
14442.0	1.3875756866207741e+18
14443.0	1.387343666950963e+18
14444.0	1.387128237431193e+18
14445.0	1.3869041710006267e+18
14446.0	1.3864224669302784e+18
14447.0	1.3864525719666685e+18
14448.0	1.3862297118179328e+18
14449.0	1.3860049591992317e+18
14450.0	1.385780160443187e+18
14451.0	1.3855554363457536e+18
14452.0	1.3853306803716093e+18
14453.0	1.3851042936520701e+18
14454.0	1.3848814863515648e+18
14455.0	1.3846559502368765e+18
14456.0	1.3844320087965693e+18
14457.0	1.3842073157369856e+18
14458.0	1.383983240917811e+18
14459.0	1.3837585587634173e+18
14460.0	1.383534195376128e+18
14461.0	1.3832989502865408e+18
14462.0	1.3830650977058813e+18
14463.0	1.3828507889041408e+18
14464.0	1.3826273088372733e+18
14465.0	1.3823982226636797e+18
14466.0	1.3821789922656253e+18
14467.0	1.3819520871301117e+18
14468.0	1.3817303929978877e+18
14469.0	1.3815019804295165e+18
14470.0	1.3812771246309373e+18
14471.0	1.3810562198667264e+18
14472.0	1.3808342262611965e+18
14473.0	1.380610287337472e+18
14474.0	1.3803863500914685e+18
14475.0	1.3801621821587453e+18
14476.0	1.3799305592700923e+18
14477.0	1.3797145182207997e+18
14478.0	1.3794907487469565e+18
14479.0	1.3792667141931005e+18
14480.0	1.3790413668220925e+18
14481.0	1.3788194503917565e+18
14482.0	1.3785950920376317e+18
14483.0	1.378370355357286e+18
14484.0	1.3781465338740736e+18
14485.0	1.3779188427259901e+18
14486.0	1.3776502336258045e+18
14487.0	1.377477641371648e+18
14488.0	1.3772541654990845e+18
14489.0	1.3770293893922813e+18
14490.0	1.3768067330867197e+18
14491.0	1.3765835180998653e+18
14492.0	1.376360407970611e+18
14493.0	1.3761369799131133e+18
14494.0	1.3759103725731837e+18
14495.0	1.3756902949257213e+18
14496.0	1.3754443753324541e+18
14497.0	1.375243561284403e+18
14498.0	1.3750205895671805e+18
14499.0	1.3747974265896957e+18
14500.0	1.3745742149582845e+18
14501.0	1.3743480513757181e+18
14502.0	1.3740852530642941e+18
14503.0	1.37390263894016e+18
14504.0	1.3736808433057787e+18
14505.0	1.3734557459152893e+18
14506.0	1.373229460697907e+18
14507.0	1.372970860884787e+18
14508.0	1.3727899563589627e+18
14509.0	1.3724362095984637e+18
14510.0	1.3720947873808381e+18
14511.0	1.3718645158969344e+18
14512.0	1.3716390510854141e+18
14513.0	1.371418670609203e+18
14514.0	1.371190324310835e+18
14515.0	1.3709727003312125e+18
14516.0	1.370258754292941e+18
14517.0	1.3705267493470205e+18
14518.0	1.3703045493817341e+18
14519.0	1.3700818662326272e+18
14520.0	1.3698591604342781e+18
14521.0	1.3696363036409853e+18
14522.0	1.3694138193018877e+18
14523.0	1.3691833859178493e+18
14524.0	1.3689610626400256e+18
14525.0	1.368745015718707e+18
14526.0	1.3685234079891453e+18
14527.0	1.3682957822722045e+18
14528.0	1.3680539596750848e+18
14529.0	1.3678538905354237e+18
14530.0	1.3676308567425021e+18
14531.0	1.3674106465550333e+18
14532.0	1.3671778324840445e+18
14533.0	1.3669658691371008e+18
14534.0	1.3667437371195392e+18
14535.0	1.3665212385198077e+18
14536.0	1.3662989462798333e+18
14537.0	1.3660746810392573e+18
14538.0	1.3658543777382397e+18
14539.0	1.3656321576402941e+18
14540.0	1.3654098654003197e+18
14541.0	1.3651867972141053e+18
14542.0	1.364965352223539e+18
14543.0	1.364738788504371e+18
14544.0	1.3645208910561277e+18
14545.0	1.3642984637595645e+18
14546.0	1.363017695284428e+18
14547.0	1.3628776197914614e+18
14548.0	1.363630439478067e+18
14549.0	1.3633903759720445e+18
14550.0	1.3631880930787328e+18
14551.0	1.3629661489659901e+18
14552.0	1.3627437233471485e+18
14553.0	1.3625201300340733e+18
14554.0	1.3623000607752187e+18
14555.0	1.3620780134825984e+18
14556.0	1.3618558604935168e+18
14557.0	1.361633996911411e+18
14558.0	1.3614117692637181e+18
14559.0	1.3608288859979768e+18
14560.0	1.3609675035508733e+18
14561.0	1.360744703800115e+18
14562.0	1.3605202842091517e+18
14563.0	1.3603020554108925e+18
14564.0	1.3600791365419003e+18
14565.0	1.3598583618011136e+18
14566.0	1.3596364537593853e+18
14567.0	1.3594055145422845e+18
14568.0	1.3591824027353085e+18
14569.0	1.3589609753608187e+18
14570.0	1.3586400347684861e+18
14571.0	1.358516710486835e+18
14572.0	1.3582887316094973e+18
14573.0	1.358067374699315e+18
14574.0	1.3578491207352317e+18
14575.0	1.3576296344846333e+18
14576.0	1.3574076962439165e+18
14577.0	1.3571861732392957e+18
14578.0	1.3569639514636285e+18
14579.0	1.3567425450606587e+18
14580.0	1.3565207636869117e+18
14581.0	1.3562984085323773e+18
14582.0	1.3560770902097917e+18
14583.0	1.3558553600065533e+18
14584.0	1.3556315938881533e+18
14585.0	1.355411743571968e+18
14586.0	1.3551893926117373e+18
14587.0	1.3549679593652221e+18
14588.0	1.3547466972463101e+18
14589.0	1.3545280448233472e+18
14590.0	1.3543098437074941e+18
14591.0	1.354091479852646e+18
14592.0	1.3538731478745085e+18
14593.0	1.3536350909235197e+18
14594.0	1.3534368496615421e+18
14595.0	1.3532176695951357e+18
14596.0	1.3529919665471485e+18
14597.0	1.352772506301235e+18
14598.0	1.352562711409459e+18
14599.0	1.3523455462866941e+18
14600.0	1.3521271237115901e+18
14601.0	1.351908974605107e+18
14602.0	1.3516900629741565e+18
14603.0	1.3514724247339005e+18
14604.0	1.351246782083891e+18
14605.0	1.351034113255014e+18
14606.0	1.3508040246427648e+18
14607.0	1.350596635603763e+18
14608.0	1.3503810039185405e+18
14609.0	1.3501621208088573e+18
14610.0	1.3499412613431293e+18
14611.0	1.3497252764975101e+18
14612.0	1.349507739759411e+18
14613.0	1.3492895285772285e+18
14614.0	1.3490705288658941e+18
14615.0	1.348852801706393e+18
14616.0	1.3486344974106621e+18
14617.0	1.3484159641059325e+18
14618.0	1.348197439189811e+18
14619.0	1.347973400441651e+18
14620.0	1.3477420778651645e+18
14621.0	1.347541691636121e+18
14622.0	1.3473230660567037e+18
14623.0	1.3471043968565245e+18
14624.0	1.3468759205347325e+18
14625.0	1.3466669745700864e+18
14626.0	1.3464480545505277e+18
14627.0	1.3462287603990523e+18
14628.0	1.346010726216499e+18
14629.0	1.345791913571123e+18
14630.0	1.3455728752721917e+18
14631.0	1.3453541381242877e+18
14632.0	1.3450707004817405e+18
14633.0	1.3448991442206717e+18
14634.0	1.3446873637453821e+18
14635.0	1.344457076323123e+18
14636.0	1.344223931740979e+18
14637.0	1.3440303386066941e+18
14638.0	1.3438107013611517e+18
14639.0	1.3435897647202301e+18
14640.0	1.3433718639165437e+18
14641.0	1.342936057276006e+18
14642.0	1.3429329300029437e+18
14643.0	1.3427143799209984e+18
14644.0	1.3424948936703997e+18
14645.0	1.3422717248208893e+18
14646.0	1.3420550982467581e+18
