# Flux units: erg / (cm m2 s)
# Wavelength units: Angstrom
wave	flux
14000.0	1.4206552814649341e+18
14001.0	1.4202464374882304e+18
14002.0	1.4201039234269181e+18
14003.0	1.4198266363117565e+18
14004.0	1.4195495236796413e+18
14005.0	1.4192722617303037e+18
14006.0	1.4189884583444477e+18
14007.0	1.4187109749358587e+18
14008.0	1.4183641361940477e+18
14009.0	1.418163759192473e+18
14010.0	1.4178773385609213e+18
14011.0	1.4170746964148227e+18
14012.0	1.4173330168872957e+18
14013.0	1.4170562750316541e+18
14014.0	1.4167746006745085e+18
14015.0	1.4165010733334523e+18
14016.0	1.4162264017862653e+18
14017.0	1.4159490039414781e+18
14018.0	1.4156727704354813e+18
14019.0	1.4153970318573565e+18
14020.0	1.4151200819642363e+18
14021.0	1.4148434273501181e+18
14022.0	1.4145656100749307e+18
14023.0	1.4142746310737917e+18
14024.0	1.4140023083368445e+18
14025.0	1.413739463049216e+18
14026.0	1.4134625165115392e+18
14027.0	1.4131872393068541e+18
14028.0	1.4129079154376701e+18
14029.0	1.412634024031027e+18
14030.0	1.411666787329639e+18
14031.0	1.4120717893238781e+18
14032.0	1.4118093852770301e+18
14033.0	1.4114977417789437e+18
14034.0	1.4112583728496637e+18
14035.0	1.4109832617394173e+18
14036.0	1.4107079476248573e+18
14037.0	1.4104309843099645e+18
14038.0	1.4101574888456187e+18
14039.0	1.4098794165567485e+18
14040.0	1.4095980827770877e+18
14041.0	1.4093294443167741e+18
14042.0	1.4090497010171901e+18
14043.0	1.408745531768832e+18
14044.0	1.408496309580595e+18
14045.0	1.4082295401021437e+18
14046.0	1.4079550078058493e+18
14047.0	1.4076747427348477e+18
14048.0	1.407407111746355e+18
14049.0	1.407134402294579e+18
14050.0	1.406859954723225e+18
14051.0	1.4065772670222333e+18
14052.0	1.4063086595997693e+18
14053.0	1.4060362823368701e+18
14054.0	1.405762772611891e+18
14055.0	1.4054881463631867e+18
14056.0	1.4052145225531387e+18
14057.0	1.4049405380329472e+18
14058.0	1.4046665753231357e+18
14059.0	1.4043923181731837e+18
14060.0	1.4041188621352957e+18
14061.0	1.403839076053811e+18
14062.0	1.4035710088577024e+18
14063.0	1.4032859631190013e+18
14064.0	1.4028834852569085e+18
14065.0	1.402743410602803e+18
14066.0	1.4024757183774717e+18
14067.0	1.4021948300328957e+18
14068.0	1.4019304471134205e+18
14069.0	1.4016545919336445e+18
14070.0	1.4013807969959933e+18
14071.0	1.4011053285310464e+18
14072.0	1.4008339335741437e+18
14073.0	1.400561634325299e+18
14074.0	1.4002887252246525e+18
14075.0	1.400002890117939e+18
14076.0	1.3997316461559808e+18
14077.0	1.3993103492907008e+18
14078.0	1.399186120717107e+18
14079.0	1.3989171618119677e+18
14080.0	1.398652184979046e+18
14081.0	1.398379534247526e+18
14082.0	1.3981019761803264e+18
14083.0	1.397833403151155e+18
14084.0	1.3975623621935101e+18
14085.0	1.3970316770410493e+18
14086.0	1.3970051396796413e+18
14087.0	1.3967445224062973e+18
14088.0	1.3964610235269117e+18
14089.0	1.3961901344030717e+18
14090.0	1.3959224841207803e+18
14091.0	1.3956546434170877e+18
14092.0	1.3953825597554685e+18
14093.0	1.3951108644864e+18
14094.0	1.3948392119992317e+18
14095.0	1.394567540218265e+18
14096.0	1.3942660486135808e+18
14097.0	1.3940084084572157e+18
14098.0	1.393739573703475e+18
14099.0	1.3934813748658173e+18
14100.0	1.3931996879257597e+18
14101.0	1.3929387141365757e+18
14102.0	1.3926659375759357e+18
14103.0	1.392382811989606e+18
14104.0	1.3921229991837693e+18
14105.0	1.3918534673367037e+18
14106.0	1.3915829062074365e+18
14107.0	1.3913083487453181e+18
14108.0	1.3910294057189373e+18
14109.0	1.3907635371769853e+18
14110.0	1.3904902849822717e+18
14111.0	1.390208766653235e+18
14112.0	1.3899494479364093e+18
14113.0	1.3896789522382845e+18
14114.0	1.3894044400746493e+18
14115.0	1.3891412558872573e+18
14116.0	1.3888345818005501e+18
14117.0	1.387441875740263e+18
14118.0	1.3883320077123581e+18
14119.0	1.388043904326041e+18
14120.0	1.3877762532048893e+18
14121.0	1.3875124096729085e+18
14122.0	1.3872214784868347e+18
14123.0	1.3869640270741501e+18
14124.0	1.3866866090967037e+18
14125.0	1.3860792654888955e+18
14126.0	1.3861680094117885e+18
14127.0	1.3859026156650493e+18
14128.0	1.3856317852614653e+18
14129.0	1.3853551465857021e+18
14130.0	1.3850742456582141e+18
14131.0	1.384821321577267e+18
14132.0	1.3845475585163261e+18
14133.0	1.3838592396754924e+18
14134.0	1.3840128879362045e+18
14135.0	1.3837320633450493e+18
14136.0	1.3834286029340672e+18
14137.0	1.3832048317825021e+18
14138.0	1.38292162985984e+18
14139.0	1.3826669433323517e+18
14140.0	1.3823879810121725e+18
14141.0	1.3821286815891453e+18
14142.0	1.3817696114180093e+18
14143.0	1.3815835000831997e+18
14144.0	1.3813231160131581e+18
14145.0	1.3810528434520061e+18
14146.0	1.3807826254168061e+18
14147.0	1.3805158970425344e+18
14148.0	1.380245132908953e+18
14149.0	1.3799758216822781e+18
14150.0	1.3797119848611837e+18
14151.0	1.3794346448977917e+18
14152.0	1.3791741031219197e+18
14153.0	1.3789071700656125e+18
14154.0	1.3786209096564733e+18
14155.0	1.3779963056488448e+18
14156.0	1.3780901171298301e+18
14157.0	1.3778320860643325e+18
14158.0	1.3775604201553917e+18
14159.0	1.3772956429713405e+18
14160.0	1.3770279868170237e+18
14161.0	1.3767093094711296e+18
14162.0	1.3764114434228221e+18
14163.0	1.3762242331803645e+18
14164.0	1.3759179885903867e+18
14165.0	1.3755804049997824e+18
14166.0	1.375421366219571e+18
14167.0	1.3751457090109437e+18
14168.0	1.3748820399620093e+18
14169.0	1.3746213748735997e+18
14170.0	1.374349436334899e+18
14171.0	1.3740823279566845e+18
14172.0	1.3738199784357885e+18
14173.0	1.3734943343509501e+18
14174.0	1.373282992599859e+18
14175.0	1.3730188764381181e+18
14176.0	1.372751087743795e+18
14177.0	1.3724852720500733e+18
14178.0	1.3722178189000701e+18
14179.0	1.3719398162366461e+18
14180.0	1.3716856447696893e+18
14181.0	1.3714191126888445e+18
14182.0	1.371150392859033e+18
14183.0	1.3708833532674045e+18
14184.0	1.3706130547015677e+18
14185.0	1.37035065065472e+18
14186.0	1.369876761411584e+18
14187.0	1.369799412573798e+18
14188.0	1.3695491032219645e+18
14189.0	1.3692831927369723e+18
14190.0	1.369018317406208e+18
14191.0	1.3687516511076347e+18
14192.0	1.368480502775808e+18
14193.0	1.3680058182926333e+18
14194.0	1.3676719768600573e+18
14195.0	1.3674087599570941e+18
14196.0	1.3671428519886845e+18
14197.0	1.3668761210978304e+18
14198.0	1.366607061529395e+18
14199.0	1.3663428673536e+18
14200.0	1.3659469820985344e+18
14201.0	1.365814635868979e+18
14202.0	1.3655486599528445e+18
14203.0	1.3652714743398397e+18
14204.0	1.3650178212888573e+18
14205.0	1.3647528444559357e+18
14206.0	1.3643926049128448e+18
14207.0	1.3642247480279037e+18
14208.0	1.3639599431614461e+18
14209.0	1.363581696632422e+18
14210.0	1.363367726730444e+18
14211.0	1.363160430804992e+18
14212.0	1.3629002547724285e+18
14213.0	1.3626340834017275e+18
14214.0	1.3623686191906813e+18
14215.0	1.3620927002574845e+18
14216.0	1.3618389733867517e+18
14217.0	1.3615755778064381e+18
14218.0	1.3613029228806141e+18
14219.0	1.3610469000478717e+18
14220.0	1.360781466874675e+18
14221.0	1.3605160563507197e+18
14222.0	1.3602319451029501e+18
14223.0	1.3599898364542973e+18
14224.0	1.3597264652009467e+18
14225.0	1.3590472639381507e+18
14226.0	1.3591985650663421e+18
14227.0	1.3589339950809085e+18
14228.0	1.357407789357466e+18
14229.0	1.358292273279794e+18
14230.0	1.3581437705912317e+18
14231.0	1.357863204369203e+18
14232.0	1.3576166564691965e+18
14233.0	1.3573472999440381e+18
14234.0	1.3570897352851453e+18
14235.0	1.3568242551357437e+18
14236.0	1.3565630011670523e+18
14237.0	1.3562987986026493e+18
14238.0	1.3560363769397248e+18
14239.0	1.3557669675663357e+18
14240.0	1.3541334346366984e+18
14241.0	1.3552444319465472e+18
14242.0	1.3549836963938301e+18
14243.0	1.3546011674804221e+18
14244.0	1.3544588606177277e+18
14245.0	1.354181578535731e+18
14246.0	1.3539089093492733e+18
14247.0	1.3536672150978557e+18
14248.0	1.3533931861180416e+18
14249.0	1.3531421360521213e+18
14250.0	1.352879771431731e+18
14251.0	1.3526168531632125e+18
14252.0	1.352355357602611e+18
14253.0	1.3520925483859965e+18
14254.0	1.351828779512627e+18
14255.0	1.3515403238047741e+18
14256.0	1.3509133424656384e+18
14257.0	1.3510358966730747e+18
14258.0	1.3507821572194301e+18
14259.0	1.3505061971820541e+18
14260.0	1.3502418998263805e+18
14261.0	1.3499822782808061e+18
14262.0	1.3497464115953664e+18
14263.0	1.3489024731709443e+18
14264.0	1.3491412196655101e+18
14265.0	1.3489564454748157e+18
14266.0	1.3486982332153853e+18
14267.0	1.3484384388644861e+18
14268.0	1.3481753637289981e+18
14269.0	1.3479089105010685e+18
14270.0	1.347654268433203e+18
14271.0	1.3473901564657664e+18
14272.0	1.3471316589936637e+18
14273.0	1.3468701500112893e+18
14274.0	1.345765949151642e+18
14275.0	1.3462728576335872e+18
14276.0	1.3460714958094333e+18
14277.0	1.3458097175527421e+18
14278.0	1.3455653003591677e+18
14279.0	1.345304337475174e+18
14280.0	1.345037240841011e+18
14281.0	1.3447828705640445e+18
14282.0	1.3445224638447613e+18
14283.0	1.3442618474102781e+18
14284.0	1.343999276430131e+18
14285.0	1.3437366207250427e+18
14286.0	1.343474170540851e+18
14287.0	1.3432152360222717e+18
14288.0	1.3429546330095613e+18
14289.0	1.3418156672417759e+18
14290.0	1.3424325017206781e+18
14291.0	1.3421712292970493e+18
14292.0	1.3419102722850813e+18
14293.0	1.341649984684032e+18
14294.0	1.3412837607079936e+18
14295.0	1.3411211055988733e+18
14296.0	1.3401621677473795e+18
14297.0	1.3406121922396157e+18
14298.0	1.3401427221151744e+18
14299.0	1.3400795055652861e+18
14300.0	1.3398257627561981e+18
14301.0	1.3395699940982781e+18
14302.0	1.3393098776248317e+18
14303.0	1.339028694840115e+18
14304.0	1.3387803735883773e+18
14305.0	1.3385335782244347e+18
14306.0	1.3382454370893821e+18
14307.0	1.3380075646877693e+18
14308.0	1.3377575254491133e+18
14309.0	1.3374967680860157e+18
14310.0	1.3371232527319035e+18
14311.0	1.3367762252464125e+18
14312.0	1.3366877858299901e+18
14313.0	1.33632721158144e+18
14314.0	1.3361985831829501e+18
14315.0	1.3359437322387453e+18
14316.0	1.3356454970916861e+18
14317.0	1.335407970300723e+18
14318.0	1.3351686886129664e+18
14319.0	1.3349104469934077e+18
14320.0	1.3346515040862208e+18
14321.0	1.3343905235861504e+18
14322.0	1.3340981160050685e+18
14323.0	1.3338672044703741e+18
14324.0	1.333617744884531e+18
14325.0	1.3333536236896253e+18
14326.0	1.333101908407091e+18
14327.0	1.3328390396313597e+18
14328.0	1.332578866115379e+18
14329.0	1.3323276197560317e+18
14330.0	1.332069618889523e+18
14331.0	1.3318098136334336e+18
14332.0	1.3315531054514173e+18
14333.0	1.331295782384435e+18
14334.0	1.3310382286307325e+18
14335.0	1.330763231605555e+18
14336.0	1.3304771054141437e+18
14337.0	1.330262968578867e+18
14338.0	1.330005631251251e+18
14339.0	1.3297420519604221e+18
14340.0	1.3294900070055933e+18
14341.0	1.3292284007153664e+18
14342.0	1.3289733341839357e+18
14343.0	1.3287129643745277e+18
14344.0	1.3284556824117245e+18
14345.0	1.3282038656270333e+18
14346.0	1.327944604791603e+18
14347.0	1.3276636208168957e+18
14348.0	1.327432510472192e+18
14349.0	1.3271757712523264e+18
14350.0	1.326887489188659e+18
14351.0	1.326624908981043e+18
14352.0	1.3263968722223101e+18
14353.0	1.326146854794035e+18
14354.0	1.3258871191633917e+18
14355.0	1.3256232596930557e+18
14356.0	1.325371297785446e+18
14357.0	1.32512220226519e+18
14358.0	1.3248657482579965e+18
14359.0	1.3245990869925885e+18
14360.0	1.3243496450228221e+18
14361.0	1.3240960423034877e+18
14362.0	1.3238405118820347e+18
14363.0	1.3235840863961085e+18
14364.0	1.323223895506944e+18
14365.0	1.3230623820873723e+18
14366.0	1.322795308102451e+18
14367.0	1.3225601552875517e+18
14368.0	1.3223028875853821e+18
14369.0	1.3220483956735997e+18
14370.0	1.3217926463094781e+18
14371.0	1.3215370412294141e+18
14372.0	1.3212765145530365e+18
14373.0	1.3210244159111165e+18
14374.0	1.3207698401132541e+18
14375.0	1.3205105004249085e+18
14376.0	1.320258567877427e+18
14377.0	1.320003135602688e+18
14378.0	1.3197461388525565e+18
14379.0	1.3194929899569152e+18
14380.0	1.3192375174168573e+18
14381.0	1.3189733005918205e+18
14382.0	1.3187262325981181e+18
14383.0	1.3184643100573693e+18
14384.0	1.3182037003337725e+18
14385.0	1.3179622157975552e+18
14386.0	1.317694673728307e+18
14387.0	1.3174512036085757e+18
14388.0	1.317194419929088e+18
14389.0	1.3169426576703485e+18
14390.0	1.316685902512128e+18
14391.0	1.316433180596633e+18
14392.0	1.316174775399219e+18
14393.0	1.3159241816735741e+18
14394.0	1.3156411936604157e+18
14395.0	1.3154035704004603e+18
14396.0	1.315157891560243e+18
14397.0	1.3149037511311357e+18
14398.0	1.314648241681203e+18
14399.0	1.3143942748962813e+18
14400.0	1.3141227239112701e+18
14401.0	1.313882193998643e+18
14402.0	1.3136308494925821e+18
14403.0	1.3114280647851986e+18
14404.0	1.3060852630421478e+18
14405.0	1.311662690795513e+18
14406.0	1.3126155569725437e+18
14407.0	1.3092297411395602e+18
14408.0	1.312094774571827e+18
14409.0	1.3118382484226045e+18
14410.0	1.3115934495473661e+18
14411.0	1.3113468328607744e+18
14412.0	1.3110913770979325e+18
14413.0	1.310841227129651e+18
14414.0	1.3105857554284544e+18
14415.0	1.3103332658774013e+18
14416.0	1.310076962026291e+18
14417.0	1.3098112478347261e+18
14418.0	1.309548848821043e+18
14419.0	1.3093195579654141e+18
14420.0	1.3090624907509757e+18
14421.0	1.3088140763856893e+18
14422.0	1.308558812721971e+18
14423.0	1.3083021305446397e+18
14424.0	1.295762579259382e+18
14425.0	1.3077998475411453e+18
14426.0	1.307549885477683e+18
14427.0	1.3072962416541693e+18
14428.0	1.3070254842314752e+18
14429.0	1.3067905495203837e+18
14430.0	1.3065394717720573e+18
14431.0	1.3061071346597885e+18
14432.0	1.3060261200003072e+18
14433.0	1.303421114122238e+18
14434.0	1.305518014464e+18
14435.0	1.3052474952777725e+18
14436.0	1.305024430447001e+18
14437.0	1.3047724660228093e+18
14438.0	1.3044500381302781e+18
14439.0	1.3042543889481725e+18
14440.0	1.304015308587008e+18
14441.0	1.3037559974199293e+18
14442.0	1.3034948466311165e+18
14443.0	1.3032105072132093e+18
14444.0	1.3030038395944957e+18
14445.0	1.3027560636022781e+18
14446.0	1.2995543936532495e+18
14447.0	1.3022472391622653e+18
14448.0	1.3020010486169597e+18
14449.0	1.3017494683910141e+18
14450.0	1.3014932240990205e+18
14451.0	1.3012438492381181e+18
14452.0	1.3009932722896893e+18
14453.0	1.3007057150017533e+18
14454.0	1.3004910077411325e+18
14455.0	1.3002332727934973e+18
14456.0	1.299980089504563e+18
14457.0	1.2997244181544957e+18
14458.0	1.2994846801264637e+18
14459.0	1.2992313038995453e+18
14460.0	1.298980020630323e+18
14461.0	1.2987124710113275e+18
14462.0	1.2983035406319616e+18
14463.0	1.2982242531868667e+18
14464.0	1.2979763815645181e+18
14465.0	1.297704167879475e+18
14466.0	1.297473904784179e+18
14467.0	1.297186091643699e+18
14468.0	1.296970256954163e+18
14469.0	1.296696704447283e+18
14470.0	1.2964447643500541e+18
14471.0	1.2962110308876285e+18
14472.0	1.2959660113919995e+18
14473.0	1.2957196648185853e+18
14474.0	1.2954712529698813e+18
14475.0	1.2952176645111803e+18
14476.0	1.2948151262511101e+18
14477.0	1.2947201529479165e+18
14478.0	1.2944681650356221e+18
14479.0	1.2941984436060157e+18
14480.0	1.2936293612781565e+18
14481.0	1.2933940230750205e+18
14482.0	1.2931415226187773e+18
14483.0	1.292885059384115e+18
14484.0	1.2926409727016957e+18
14485.0	1.29235863732224e+18
14486.0	1.291895280815309e+18
14487.0	1.2918946407645181e+18
14488.0	1.2916258982854656e+18
14489.0	1.2913786675527677e+18
14490.0	1.2911393716043773e+18
14491.0	1.2908958125654016e+18
14492.0	1.2906461281648637e+18
14493.0	1.290390823396966e+18
14494.0	1.2901313511686141e+18
14495.0	1.289899251807027e+18
14496.0	1.2895378688966653e+18
14497.0	1.289399096154521e+18
14498.0	1.2891502178992125e+18
14499.0	1.2889022581964795e+18
14500.0	1.288653115700019e+18
14501.0	1.288341441164083e+18
14502.0	1.2879000988811261e+18
14503.0	1.287887156097843e+18
14504.0	1.2876525787414525e+18
14505.0	1.2873570807971837e+18
14506.0	1.2870304619560957e+18
14507.0	1.2867064796545021e+18
14508.0	1.2866620175155197e+18
14509.0	1.2864129496776701e+18
14510.0	1.2861619683983357e+18
14511.0	1.2859165940645885e+18
14512.0	1.2856553560342525e+18
14513.0	1.2854195849789437e+18
14514.0	1.2851364828807165e+18
14515.0	1.2849211724791808e+18
14516.0	1.2824437103525906e+18
14517.0	1.284425878025011e+18
14518.0	1.2841777866211325e+18
14519.0	1.283928681034547e+18
14520.0	1.2836803572662272e+18
14521.0	1.2834301007626237e+18
14522.0	1.2831836182937597e+18
14523.0	1.2827920523329533e+18
14524.0	1.282547089040998e+18
14525.0	1.2824367402582016e+18
14526.0	1.2821914858815488e+18
14527.0	1.281937145803571e+18
14528.0	1.2815617379794944e+18
14529.0	1.2814418983256061e+18
14530.0	1.2811860080328701e+18
14531.0	1.2809529070714875e+18
14532.0	1.2804931761209341e+18
14533.0	1.2804589145292797e+18
14534.0	1.2802119748812797e+18
14535.0	1.2799557817597952e+18
14536.0	1.2797141655224317e+18
14537.0	1.279457150317363e+18
14538.0	1.279219538801459e+18
14539.0	1.2789713937104893e+18
14540.0	1.2787250756583421e+18
14541.0	1.2784610400272381e+18
14542.0	1.2782292963426301e+18
14543.0	1.2778907908440061e+18
14544.0	1.2777351720992765e+18
14545.0	1.2774831271444475e+18
14546.0	1.2600857732317059e+18
14547.0	1.2618206137024356e+18
14548.0	1.276737709565542e+18
14549.0	1.276400760992563e+18
14550.0	1.276248113492787e+18
14551.0	1.2760080181100541e+18
14552.0	1.275760513069875e+18
14553.0	1.2755046865305595e+18
14554.0	1.2752678274727936e+18
14555.0	1.2750209868103677e+18
14556.0	1.2747710188748797e+18
14557.0	1.2745281653178365e+18
14558.0	1.2742814899109885e+18
14559.0	1.2723843743350725e+18
14560.0	1.2737766861307901e+18
14561.0	1.2735359767019517e+18
14562.0	1.2732742278053883e+18
14563.0	1.2730485650227197e+18
14564.0	1.272786470515507e+18
14565.0	1.2725573893750781e+18
14566.0	1.2723112172847101e+18
14567.0	1.2720634429702144e+18
14568.0	1.2717908383760381e+18
14569.0	1.2715728150986752e+18
14570.0	1.2708559515025408e+18
14571.0	1.2710780742926333e+18
14572.0	1.2707930201653245e+18
14573.0	1.2705470133305344e+18
14574.0	1.2703021775454205e+18
14575.0	1.2700946911985661e+18
14576.0	1.2698452936884224e+18
14577.0	1.2695993422184445e+18
14578.0	1.2693566857936893e+18
14579.0	1.2691144186003453e+18
14580.0	1.268868856361779e+18
14581.0	1.268618120868659e+18
14582.0	1.2683752899608573e+18
14583.0	1.268132080726835e+18
14584.0	1.2678720665944061e+18
14585.0	1.2676411181498365e+18
14586.0	1.2673927792820221e+18
14587.0	1.2671472841523197e+18
14588.0	1.2669046612819965e+18
14589.0	1.2666673056186365e+18
14590.0	1.2664300564905981e+18
14591.0	1.2661883865661437e+18
14592.0	1.2659493473091581e+18
14593.0	1.2656205289750528e+18
14594.0	1.2654795399626752e+18
14595.0	1.2652364397805565e+18
14596.0	1.2648997042782203e+18
14597.0	1.2646496969162747e+18
14598.0	1.264521271522099e+18
14599.0	1.2642948176936957e+18
14600.0	1.2640551216087037e+18
14601.0	1.2638206281383936e+18
14602.0	1.263570217284403e+18
14603.0	1.2633465325355005e+18
14604.0	1.263069170761728e+18
14605.0	1.2628463441674237e+18
14606.0	1.2625605921079293e+18
14607.0	1.262396793631539e+18
14608.0	1.2621587131924477e+18
14609.0	1.261914666775347e+18
14610.0	1.261639654650675e+18
14611.0	1.2614472099168256e+18
14612.0	1.2612140946948093e+18
14613.0	1.260978699449139e+18
14614.0	1.260738021897011e+18
14615.0	1.2605014111420416e+18
14616.0	1.260268675085107e+18
14617.0	1.2600305048879101e+18
14618.0	1.259783713718272e+18
14619.0	1.2595185154260987e+18
14620.0	1.2590700713476096e+18
14621.0	1.2590857739829245e+18
14622.0	1.2588468790099965e+18
14623.0	1.2586127336669181e+18
14624.0	1.2583283388841981e+18
14625.0	1.2581372128395261e+18
14626.0	1.257898310316851e+18
14627.0	1.257656991875072e+18
14628.0	1.2574290532630525e+18
14629.0	1.2571913368895485e+18
14630.0	1.2569523337035773e+18
14631.0	1.256717475328819e+18
14632.0	1.2553864590917637e+18
14633.0	1.2561537952645112e+18
14634.0	1.256003164386099e+18
14635.0	1.255463963118794e+18
14636.0	1.2542188982370301e+18
14637.0	1.255300471665459e+18
14638.0	1.255057977979699e+18
14639.0	1.2548145816797181e+18
14640.0	1.2545885875470333e+18
14641.0	1.250297464750076e+18
14642.0	1.2541147570241533e+18
14643.0	1.2538816711622653e+18
14644.0	1.2536358983696381e+18
14645.0	1.2533888882573312e+18
14646.0	1.2531542395977725e+18
14647.0	1.2529126418153472e+18
