# Flux units: erg / (cm m2 s)
# Wavelength units: Angstrom
wave	flux
14000.0	1.6764377252233213e+18
14001.0	1.6759671310254077e+18
14002.0	1.6758870231744507e+18
14003.0	1.6755942272008187e+18
14004.0	1.6752988609576957e+18
14005.0	1.6750033655300093e+18
14006.0	1.6746969548455933e+18
14007.0	1.6744008604712957e+18
14008.0	1.6739831547691005e+18
14009.0	1.673820170826547e+18
14010.0	1.673509757098393e+18
14011.0	1.672334945969766e+18
14012.0	1.672935337099264e+18
14013.0	1.6726413532987387e+18
14014.0	1.6723392963018747e+18
14015.0	1.6720485068832765e+18
14016.0	1.6717567963955197e+18
14017.0	1.671462099563315e+18
14018.0	1.6711623913766907e+18
14019.0	1.6708727461642237e+18
14020.0	1.67057722221527e+18
14021.0	1.670281808995942e+18
14022.0	1.6699820873875453e+18
14023.0	1.6696729134956541e+18
14024.0	1.6693763325820925e+18
14025.0	1.6691045987254272e+18
14026.0	1.668809378444083e+18
14027.0	1.6685177669419005e+18
14028.0	1.6682159112716285e+18
14029.0	1.667924638669209e+18
14030.0	1.6658746356793354e+18
14031.0	1.6672898626355195e+18
14032.0	1.6670447407988733e+18
14033.0	1.6666883541434368e+18
14034.0	1.6664575063621632e+18
14035.0	1.6661668796825597e+18
14036.0	1.6658736156246013e+18
14037.0	1.6655802274152448e+18
14038.0	1.6652868861820925e+18
14039.0	1.6649884413198333e+18
14040.0	1.664692447608832e+18
14041.0	1.6644036714561533e+18
14042.0	1.664098435176857e+18
14043.0	1.6637640820391939e+18
14044.0	1.6635068789293053e+18
14045.0	1.6632263504560125e+18
14046.0	1.6629369082478592e+18
14047.0	1.662634260692992e+18
14048.0	1.6623519806783485e+18
14049.0	1.6620635300036603e+18
14050.0	1.6617709571670016e+18
14051.0	1.6614667895963648e+18
14052.0	1.6611814460620797e+18
14053.0	1.66089312960512e+18
14054.0	1.6606010600849405e+18
14055.0	1.6603087422619643e+18
14056.0	1.6600164294721533e+18
14057.0	1.6597242861322237e+18
14058.0	1.6594321125933053e+18
14059.0	1.6591356491202557e+18
14060.0	1.6588480540835837e+18
14061.0	1.6585463376642043e+18
14062.0	1.6582641398579197e+18
14063.0	1.6579518672142333e+18
14064.0	1.6573172757299203e+18
14065.0	1.6573766821740541e+18
14066.0	1.6570972895182843e+18
14067.0	1.6567950597160957e+18
14068.0	1.6565142443524093e+18
14069.0	1.6562184033140733e+18
14070.0	1.6559303922024448e+18
14071.0	1.655635921862656e+18
14072.0	1.6553487747776512e+18
14073.0	1.6550575910944768e+18
14074.0	1.6547665164632061e+18
14075.0	1.6544525895860221e+18
14076.0	1.654171014214451e+18
14077.0	1.6535003064172544e+18
14078.0	1.6535745103659005e+18
14079.0	1.653298803664486e+18
14080.0	1.653021098796646e+18
14081.0	1.6527304704393216e+18
14082.0	1.6524370486755325e+18
14083.0	1.6521472373686272e+18
14084.0	1.6518579964870653e+18
14085.0	1.6510896268378112e+18
14086.0	1.6512447171002363e+18
14087.0	1.650984344774246e+18
14088.0	1.6506789474336763e+18
14089.0	1.6503974643367933e+18
14090.0	1.650109485101875e+18
14091.0	1.649827069191782e+18
14092.0	1.6495371924537341e+18
14093.0	1.6492472519622656e+18
14094.0	1.6489573198594043e+18
14095.0	1.6486671545532416e+18
14096.0	1.648300407966925e+18
14097.0	1.6480622000209915e+18
14098.0	1.6477640907030523e+18
14099.0	1.6475086743666685e+18
14100.0	1.6472020556447744e+18
14101.0	1.6469301657599995e+18
14102.0	1.6466405339693053e+18
14103.0	1.6463289005375485e+18
14104.0	1.64605870515159e+18
14105.0	1.645772859978547e+18
14106.0	1.6454838422339581e+18
14107.0	1.645190291285606e+18
14108.0	1.644889875100467e+18
14109.0	1.64461017038848e+18
14110.0	1.6443233487814656e+18
14111.0	1.644025026392883e+18
14112.0	1.6437405821173757e+18
14113.0	1.6434585185288192e+18
14114.0	1.6431562736271357e+18
14115.0	1.642881164194611e+18
14116.0	1.6425512922513405e+18
14117.0	1.639246345116058e+18
14118.0	1.6420146897747965e+18
14119.0	1.6416796907143163e+18
14120.0	1.6414027408211965e+18
14121.0	1.6411349764538365e+18
14122.0	1.6408002525396987e+18
14123.0	1.6405483862622203e+18
14124.0	1.6402509799096315e+18
14125.0	1.6393808967106552e+18
14126.0	1.6397079433707515e+18
14127.0	1.639426367999181e+18
14128.0	1.6391370096771067e+18
14129.0	1.638836073398272e+18
14130.0	1.6385377577205752e+18
14131.0	1.6382761220702203e+18
14132.0	1.63798093702103e+18
14133.0	1.6369750657466355e+18
14134.0	1.6374089195192315e+18
14135.0	1.637104218433126e+18
14136.0	1.6367921202724861e+18
14137.0	1.6365460823998461e+18
14138.0	1.636230806634496e+18
14139.0	1.6359769136693243e+18
14140.0	1.6356847166423035e+18
14141.0	1.6353881088851963e+18
14142.0	1.6348942597881856e+18
14143.0	1.6348250990706685e+18
14144.0	1.6345432552636413e+18
14145.0	1.6342544304570363e+18
14146.0	1.633963188053606e+18
14147.0	1.6336801480310784e+18
14148.0	1.6333903031697405e+18
14149.0	1.6331059343917053e+18
14150.0	1.6328246761095165e+18
14151.0	1.6323560297463805e+18
14152.0	1.6320172491014141e+18
14153.0	1.6317308435693563e+18
14154.0	1.631413222349209e+18
14155.0	1.630967829207449e+18
14156.0	1.6308472161239037e+18
14157.0	1.630586769978163e+18
14158.0	1.630295453754982e+18
14159.0	1.6300146870452224e+18
14160.0	1.6297207250550781e+18
14161.0	1.629363902192025e+18
14162.0	1.6290168050810872e+18
14163.0	1.628865880601395e+18
14164.0	1.6284872674902008e+18
14165.0	1.6282350824456187e+18
14166.0	1.628014124833177e+18
14167.0	1.6277123899588605e+18
14168.0	1.6274393340575744e+18
14169.0	1.6271599363686397e+18
14170.0	1.626868215814553e+18
14171.0	1.6265854660378621e+18
14172.0	1.626304640607846e+18
14173.0	1.6259727402991613e+18
14174.0	1.625727605040742e+18
14175.0	1.6254492324397053e+18
14176.0	1.6251651757178877e+18
14177.0	1.6248493312049147e+18
14178.0	1.6245361442029565e+18
14179.0	1.6242429589979133e+18
14180.0	1.6239677791010816e+18
14181.0	1.6236832408731643e+18
14182.0	1.6233976003821565e+18
14183.0	1.623114265080627e+18
14184.0	1.6228229572460541e+18
14185.0	1.6225444487495677e+18
14186.0	1.6217194207641597e+18
14187.0	1.6219422557470715e+18
14188.0	1.6216875541200893e+18
14189.0	1.621403772544614e+18
14190.0	1.6211204909301757e+18
14191.0	1.6208344628854784e+18
14192.0	1.620545690088243e+18
14193.0	1.620184266912563e+18
14194.0	1.6199837825368067e+18
14195.0	1.6197059702947837e+18
14196.0	1.6194219941036032e+18
14197.0	1.6191384272764925e+18
14198.0	1.618847760331571e+18
14199.0	1.6185686579216381e+18
14200.0	1.6179419936718848e+18
14201.0	1.617988090750566e+18
14202.0	1.6177182107762685e+18
14203.0	1.617427441490329e+18
14204.0	1.6171513271025661e+18
14205.0	1.616868300501811e+18
14206.0	1.6164207598764032e+18
14207.0	1.616305411483238e+18
14208.0	1.6160231549566968e+18
14209.0	1.6155611037171712e+18
14210.0	1.615332532604108e+18
14211.0	1.615165711712256e+18
14212.0	1.6148910149992443e+18
14213.0	1.6146072820776957e+18
14214.0	1.6143257637486592e+18
14215.0	1.6140256529088507e+18
14216.0	1.6137624905318397e+18
14217.0	1.6134800981098493e+18
14218.0	1.6131829585149955e+18
14219.0	1.6129153417871352e+18
14220.0	1.612629661030809e+18
14221.0	1.6123474967789563e+18
14222.0	1.612041416605696e+18
14223.0	1.611786293870592e+18
14224.0	1.611504238670643e+18
14225.0	1.6101226902978565e+18
14226.0	1.6109280419643387e+18
14227.0	1.610632162338406e+18
14228.0	1.6073257690071045e+18
14229.0	1.6095003579252713e+18
14230.0	1.609787463067238e+18
14231.0	1.609487984728473e+18
14232.0	1.6092247703420923e+18
14233.0	1.6089386718330875e+18
14234.0	1.6086619484323835e+18
14235.0	1.608376985740902e+18
14236.0	1.608099076191027e+18
14237.0	1.6078159237611515e+18
14238.0	1.607535755998003e+18
14239.0	1.6072422520258557e+18
14240.0	1.6046187954044928e+18
14241.0	1.606681869523353e+18
14242.0	1.6064074714447872e+18
14243.0	1.6059222391259139e+18
14244.0	1.6058440052899835e+18
14245.0	1.6055260216819707e+18
14246.0	1.6052412754165757e+18
14247.0	1.6049759521341437e+18
14248.0	1.6046759503462397e+18
14249.0	1.604417584575283e+18
14250.0	1.6041366366715904e+18
14251.0	1.6038593579450365e+18
14252.0	1.6035786382114808e+18
14253.0	1.603297034318643e+18
14254.0	1.603014002684723e+18
14255.0	1.602687392232243e+18
14256.0	1.6013570730885125e+18
14257.0	1.6021221225267195e+18
14258.0	1.601895611655782e+18
14259.0	1.601591309867417e+18
14260.0	1.6012946853330941e+18
14261.0	1.6010308267016187e+18
14262.0	1.6007965211361277e+18
14263.0	1.5989135957295117e+18
14264.0	1.5999219349323768e+18
14265.0	1.5999261275586552e+18
14266.0	1.5996525985398781e+18
14267.0	1.599374848373555e+18
14268.0	1.5990952309030912e+18
14269.0	1.598803778784461e+18
14270.0	1.59853582483456e+18
14271.0	1.5982551369777147e+18
14272.0	1.5979756721799168e+18
14273.0	1.597690575270707e+18
14274.0	1.5949954262499338e+18
14275.0	1.5969092385112064e+18
14276.0	1.5968398580121597e+18
14277.0	1.5965622521298941e+18
14278.0	1.596300294356992e+18
14279.0	1.5960199957315581e+18
14280.0	1.5957326506754043e+18
14281.0	1.5954634786996221e+18
14282.0	1.5951849735585787e+18
14283.0	1.5949060540203005e+18
14284.0	1.594627121060249e+18
14285.0	1.5943477535703035e+18
14286.0	1.594065302428057e+18
14287.0	1.5937792878051325e+18
14288.0	1.5934857989324797e+18
14289.0	1.5916962303442918e+18
14290.0	1.5929274397622272e+18
14291.0	1.5926496912736253e+18
14292.0	1.5923697449697277e+18
14293.0	1.5920907734220797e+18
14294.0	1.5916282910081021e+18
14295.0	1.5915196384018424e+18
14296.0	1.590039418188596e+18
14297.0	1.5909768971419648e+18
14298.0	1.5902496585154557e+18
14299.0	1.5904014000455677e+18
14300.0	1.590135308366643e+18
14301.0	1.5898631852785664e+18
14302.0	1.5895848260993021e+18
14303.0	1.589266471714816e+18
14304.0	1.589008642814771e+18
14305.0	1.5887528305360893e+18
14306.0	1.588448349231513e+18
14307.0	1.5881797745246205e+18
14308.0	1.5879153907662843e+18
14309.0	1.587627221948825e+18
14310.0	1.5872411765309435e+18
14311.0	1.5866918250479613e+18
14312.0	1.5867045354668024e+18
14313.0	1.5862871653089277e+18
14314.0	1.5862142431395835e+18
14315.0	1.585952080684646e+18
14316.0	1.585606146234777e+18
14317.0	1.5853623011442688e+18
14318.0	1.5851238667059195e+18
14319.0	1.5848481096728576e+18
14320.0	1.5845705121791997e+18
14321.0	1.5842907068039163e+18
14322.0	1.5839636433666048e+18
14323.0	1.5837156492705792e+18
14324.0	1.583464145380966e+18
14325.0	1.5831756762513405e+18
14326.0	1.582910703612723e+18
14327.0	1.5826256939450365e+18
14328.0	1.582348004176691e+18
14329.0	1.582080790102016e+18
14330.0	1.5818042059522048e+18
14331.0	1.5815272577368064e+18
14332.0	1.581251116505497e+18
14333.0	1.5809747387154424e+18
14334.0	1.5806983357595643e+18
14335.0	1.5804024980766715e+18
14336.0	1.5800325688524797e+18
14337.0	1.579865752993792e+18
14338.0	1.579589098379673e+18
14339.0	1.5793027800891387e+18
14340.0	1.5790298902822912e+18
14341.0	1.578733210383155e+18
14342.0	1.5784617063743488e+18
14343.0	1.578184689372364e+18
14344.0	1.5779042296856576e+18
14345.0	1.5776352103825403e+18
14346.0	1.5773539806216195e+18
14347.0	1.577028259361587e+18
14348.0	1.5768065870397437e+18
14349.0	1.5765332593475584e+18
14350.0	1.5761714821726205e+18
14351.0	1.575883083507302e+18
14352.0	1.5756934355353597e+18
14353.0	1.5754280619212795e+18
14354.0	1.5751435874467837e+18
14355.0	1.574848085308211e+18
14356.0	1.574581124569497e+18
14357.0	1.5743300568875003e+18
14358.0	1.5740546857304064e+18
14359.0	1.5737612505448448e+18
14360.0	1.573496152077107e+18
14361.0	1.5732261278187512e+18
14362.0	1.5729542094127101e+18
14363.0	1.5726785161330685e+18
14364.0	1.5721336542330883e+18
14365.0	1.5720774186827768e+18
14366.0	1.5718017774125053e+18
14367.0	1.5715799205412864e+18
14368.0	1.5713044638203901e+18
14369.0	1.5710304381960192e+18
14370.0	1.5707559293878267e+18
14371.0	1.5704816319725563e+18
14372.0	1.5701911093116928e+18
14373.0	1.5699052725272576e+18
14374.0	1.569632859193344e+18
14375.0	1.5693550234632187e+18
14376.0	1.5690848649871357e+18
14377.0	1.5688094703419387e+18
14378.0	1.5685321278619648e+18
14379.0	1.5682615398891515e+18
14380.0	1.5679858130550781e+18
14381.0	1.5676976744366077e+18
14382.0	1.5674364766715901e+18
14383.0	1.567159177812377e+18
14384.0	1.5668668633448443e+18
14385.0	1.5666161614061565e+18
14386.0	1.5663194731184125e+18
14387.0	1.5660676051632128e+18
14388.0	1.5657911384539133e+18
14389.0	1.5655195606253563e+18
14390.0	1.5652429596983293e+18
14391.0	1.5649721854984187e+18
14392.0	1.5646965794603003e+18
14393.0	1.564424895935283e+18
14394.0	1.564101320481177e+18
14395.0	1.5638609885396992e+18
14396.0	1.5636037401313277e+18
14397.0	1.563330449349017e+18
14398.0	1.563056306284134e+18
14399.0	1.5627830842884096e+18
14400.0	1.5624807286571005e+18
14401.0	1.5622271779471357e+18
14402.0	1.5619600762798083e+18
14403.0	1.5605219987554284e+18
14404.0	1.5555782061850598e+18
14405.0	1.5586199808769992e+18
14406.0	1.560866028991283e+18
14407.0	1.5589128137605125e+18
14408.0	1.5603010092662781e+18
14409.0	1.5600067402530813e+18
14410.0	1.5597324461932544e+18
14411.0	1.5594794642309115e+18
14412.0	1.5592027978727421e+18
14413.0	1.5589357045940221e+18
14414.0	1.5586592479510528e+18
14415.0	1.5583879620460544e+18
14416.0	1.5581126428983293e+18
14417.0	1.5578285459111933e+18
14418.0	1.5575313626955773e+18
14419.0	1.5572955035598843e+18
14420.0	1.5570175470338043e+18
14421.0	1.556751436899942e+18
14422.0	1.5564729015599101e+18
14423.0	1.5561823805767675e+18
14424.0	1.5489461861220308e+18
14425.0	1.5556469608939515e+18
14426.0	1.555389131993907e+18
14427.0	1.5551161398460413e+18
14428.0	1.554816986985267e+18
14429.0	1.554567347044352e+18
14430.0	1.5543008879443963e+18
14431.0	1.5535393768210435e+18
14432.0	1.5537511002537981e+18
14433.0	1.5520304440803325e+18
14434.0	1.553179517281894e+18
14435.0	1.5525464307138557e+18
14436.0	1.5523443743129597e+18
14437.0	1.5520733585211387e+18
14438.0	1.5517240484954107e+18
14439.0	1.5515169538965504e+18
14440.0	1.5512567292100605e+18
14441.0	1.5509699982000125e+18
14442.0	1.5506882382790653e+18
14443.0	1.5503568513531901e+18
14444.0	1.5501627842625533e+18
14445.0	1.549897511311769e+18
14446.0	1.547283698234164e+18
14447.0	1.5493384340766715e+18
14448.0	1.5490840159846397e+18
14449.0	1.5488128609419264e+18
14450.0	1.5485189962596347e+18
14451.0	1.5482411940839421e+18
14452.0	1.5479735169581053e+18
14453.0	1.5476830899273725e+18
14454.0	1.5474296365252605e+18
14455.0	1.5471470964637696e+18
14456.0	1.5468791408361467e+18
14457.0	1.5466095242641403e+18
14458.0	1.5463411089407997e+18
14459.0	1.5460655633006587e+18
14460.0	1.5457878886318075e+18
14461.0	1.5454471265976315e+18
14462.0	1.5448919416766464e+18
14463.0	1.5449539435560957e+18
14464.0	1.5447091958513664e+18
14465.0	1.5444045702627328e+18
14466.0	1.5441708938428413e+18
14467.0	1.5438650904936443e+18
14468.0	1.5436278354935805e+18
14469.0	1.5432977303470075e+18
14470.0	1.5430467482288123e+18
14471.0	1.542805691511603e+18
14472.0	1.5425433310855165e+18
14473.0	1.5422775380410365e+18
14474.0	1.5420104615395325e+18
14475.0	1.5417369107103741e+18
14476.0	1.5413875302203392e+18
14477.0	1.5411972447141885e+18
14478.0	1.5409254101942267e+18
14479.0	1.540652191553945e+18
14480.0	1.5403620430249981e+18
14481.0	1.5401181543137275e+18
14482.0	1.5398423553376253e+18
14483.0	1.5395618218311677e+18
14484.0	1.539291987155353e+18
14485.0	1.5389799644921853e+18
14486.0	1.5383249098375168e+18
14487.0	1.5384932742332413e+18
14488.0	1.538201592266752e+18
14489.0	1.5379089556766715e+18
14490.0	1.5376706755887101e+18
14491.0	1.5374123114954747e+18
14492.0	1.5371438475182083e+18
14493.0	1.536860208549068e+18
14494.0	1.536572586668851e+18
14495.0	1.5363329895694333e+18
14496.0	1.5358660276387837e+18
14497.0	1.5357916508848123e+18
14498.0	1.5355234435989504e+18
14499.0	1.5352502501244923e+18
14500.0	1.5349602861449213e+18
14501.0	1.534648424543027e+18
14502.0	1.5340536319705088e+18
14503.0	1.5341200479354875e+18
14504.0	1.5338716612526077e+18
14505.0	1.5335772295004157e+18
14506.0	1.5332703037554685e+18
14507.0	1.5327072503201792e+18
14508.0	1.532800464532275e+18
14509.0	1.5325310006329347e+18
14510.0	1.5322558526128123e+18
14511.0	1.5319908984291325e+18
14512.0	1.5316988607856637e+18
14513.0	1.5314513230299133e+18
14514.0	1.531133057564672e+18
14515.0	1.530909172328038e+18
14516.0	1.5267283605651482e+18
14517.0	1.5303662263861243e+18
14518.0	1.5301023945981947e+18
14519.0	1.529830704362291e+18
14520.0	1.529562007181721e+18
14521.0	1.5292930650537981e+18
14522.0	1.5290221549584381e+18
14523.0	1.5286406913982464e+18
14524.0	1.5284041158754296e+18
14525.0	1.528207567434547e+18
14526.0	1.5279427558572032e+18
14527.0	1.5276420007723003e+18
14528.0	1.527195404704153e+18
14529.0	1.5271210849927168e+18
14530.0	1.526841494365798e+18
14531.0	1.5265947770159096e+18
14532.0	1.5262176553992187e+18
14533.0	1.5260580973641728e+18
14534.0	1.5257912892981243e+18
14535.0	1.5255069121314813e+18
14536.0	1.5252470548660221e+18
14537.0	1.524962224714547e+18
14538.0	1.524713275994931e+18
14539.0	1.5244440822087672e+18
14540.0	1.5241746082430968e+18
14541.0	1.5238745057918973e+18
14542.0	1.5236329675685888e+18
14543.0	1.52330202859438e+18
14544.0	1.5230953785917435e+18
14545.0	1.5228140179685376e+18
14546.0	1.5131052695617482e+18
14547.0	1.513605297707411e+18
14548.0	1.5219956236943357e+18
14549.0	1.5215697307107325e+18
14550.0	1.521467904753664e+18
14551.0	1.5212111965716477e+18
14552.0	1.5209397798043643e+18
14553.0	1.520658003106201e+18
14554.0	1.5204035766255613e+18
14555.0	1.5201339399208957e+18
14556.0	1.519843393771929e+18
14557.0	1.5195727336570872e+18
14558.0	1.5193007816966141e+18
14559.0	1.5161407427313615e+18
14560.0	1.5187527170260995e+18
14561.0	1.5184837967085563e+18
14562.0	1.5181835952717827e+18
14563.0	1.5179533145604093e+18
14564.0	1.517642068682342e+18
14565.0	1.5174180458725373e+18
14566.0	1.517148806787891e+18
14567.0	1.5168771450732541e+18
14568.0	1.5165783428562941e+18
14569.0	1.5163387021361147e+18
14570.0	1.515253382355353e+18
14571.0	1.5157960044969981e+18
14572.0	1.5154649816367104e+18
14573.0	1.5151883320557565e+18
14574.0	1.51489964146688e+18
14575.0	1.514713365715353e+18
14576.0	1.514437472786841e+18
14577.0	1.5141759126339581e+18
14578.0	1.5139092605960187e+18
14579.0	1.5136466418008064e+18
14580.0	1.5133773658062843e+18
14581.0	1.5130987415470075e+18
14582.0	1.5128306147917821e+18
14583.0	1.5125680027074557e+18
14584.0	1.5122666469982205e+18
14585.0	1.5120288719044603e+18
14586.0	1.5117546483089405e+18
14587.0	1.5114880835125243e+18
14588.0	1.5112202084155387e+18
14589.0	1.510955435425792e+18
14590.0	1.5106905617727483e+18
14591.0	1.5104199452786685e+18
14592.0	1.5101481258582013e+18
14593.0	1.5096231667695616e+18
14594.0	1.509206554941849e+18
14595.0	1.508929646991769e+18
14596.0	1.5084045016760312e+18
14597.0	1.5080856976621563e+18
14598.0	1.5081146568146941e+18
14599.0	1.507879762368921e+18
14600.0	1.5076073591013373e+18
14601.0	1.5073460623507453e+18
14602.0	1.5070614704357379e+18
14603.0	1.506814892336742e+18
14604.0	1.5064686256979963e+18
14605.0	1.5062218143956992e+18
14606.0	1.5059010910683136e+18
14607.0	1.505737800102707e+18
14608.0	1.505480295002931e+18
14609.0	1.5052064371507197e+18
14610.0	1.5048511728910336e+18
14611.0	1.5046655782944765e+18
14612.0	1.5044249510739963e+18
14613.0	1.5041620386775037e+18
14614.0	1.503887373841203e+18
14615.0	1.503626957894451e+18
14616.0	1.5033659060912125e+18
14617.0	1.5030915918987264e+18
14618.0	1.502814705759027e+18
14619.0	1.5023866183155704e+18
14620.0	1.501640924751462e+18
14621.0	1.5020156388376576e+18
14622.0	1.5017437707632637e+18
14623.0	1.5014817744027648e+18
14624.0	1.5011294243454976e+18
14625.0	1.5009445058707456e+18
14626.0	1.5006744983896064e+18
14627.0	1.5004051519307773e+18
14628.0	1.5001489470652413e+18
14629.0	1.4998818755969027e+18
14630.0	1.4995141810978813e+18
14631.0	1.499211761713152e+18
14632.0	1.4983715889348605e+18
14633.0	1.4986023545077752e+18
14634.0	1.4984028230778875e+18
14635.0	1.4978745068683254e+18
14636.0	1.497202134771302e+18
14637.0	1.4976109837811707e+18
14638.0	1.4973260982648824e+18
14639.0	1.4970463146999805e+18
14640.0	1.4968007264567293e+18
14641.0	1.494349964430539e+18
14642.0	1.4962622180884477e+18
14643.0	1.4960004297654272e+18
14644.0	1.4957148328951803e+18
14645.0	1.4954276472225787e+18
14646.0	1.4951720413036541e+18
14647.0	1.494872802879078e+18
