# Flux units: erg / (cm m2 s)
# Wavelength units: Angstrom
wave	flux
14000.0	1.9516158520590328e+18
14001.0	1.9515700989132792e+18
14002.0	1.9513425377886205e+18
14003.0	1.9509848173445115e+18
14004.0	1.9506196176175101e+18
14005.0	1.9502587849998333e+18
14006.0	1.949886517031731e+18
14007.0	1.9495187571015675e+18
14008.0	1.9490593969274875e+18
14009.0	1.9487914748542973e+18
14010.0	1.9484163631480832e+18
14011.0	1.9474178990145533e+18
14012.0	1.9476974913191933e+18
14013.0	1.9473413898764283e+18
14014.0	1.9469716535902205e+18
14015.0	1.9466114870280187e+18
14016.0	1.9462494196072445e+18
14017.0	1.9458854630719483e+18
14018.0	1.9455126313893883e+18
14019.0	1.945157098694246e+18
14020.0	1.944792075128012e+18
14021.0	1.944426664008089e+18
14022.0	1.9440536108662781e+18
14023.0	1.9436759372791803e+18
14024.0	1.9433126870646781e+18
14025.0	1.9429689017761787e+18
14026.0	1.9426062270201856e+18
14027.0	1.942243352615321e+18
14028.0	1.9418690697035773e+18
14029.0	1.9414880306069501e+18
14030.0	1.9379468770476052e+18
14031.0	1.9405406497406966e+18
14032.0	1.940407035992473e+18
14033.0	1.9400025087934461e+18
14034.0	1.9396933500010493e+18
14035.0	1.939338891047731e+18
14036.0	1.9389669452021755e+18
14037.0	1.9386166620979197e+18
14038.0	1.9382543396634621e+18
14039.0	1.9378876803186683e+18
14040.0	1.937525951797657e+18
14041.0	1.93716626170839e+18
14042.0	1.9367948929990656e+18
14043.0	1.9364029218684925e+18
14044.0	1.936064800568115e+18
14045.0	1.9357112240963581e+18
14046.0	1.9353521883185147e+18
14047.0	1.9349770900340728e+18
14048.0	1.934631294835097e+18
14049.0	1.9342728445820925e+18
14050.0	1.9339117317849083e+18
14051.0	1.9335418797359104e+18
14052.0	1.9331842549219325e+18
14053.0	1.932827955508019e+18
14054.0	1.9324669786062845e+18
14055.0	1.9321059161407483e+18
14056.0	1.931744893940531e+18
14057.0	1.9313839975694333e+18
14058.0	1.9310231045537787e+18
14059.0	1.930649091755212e+18
14060.0	1.93030141247488e+18
14061.0	1.9299336894545915e+18
14062.0	1.929579148292915e+18
14063.0	1.929196394564812e+18
14064.0	1.9282534244286464e+18
14065.0	1.9284876024872955e+18
14066.0	1.9281383595704317e+18
14067.0	1.9277598940987387e+18
14068.0	1.9274185297625083e+18
14069.0	1.9270532444717053e+18
14070.0	1.9266961246519293e+18
14071.0	1.926336010099097e+18
14072.0	1.9259793835294715e+18
14073.0	1.9256195642556416e+18
14074.0	1.9252593188405245e+18
14075.0	1.92487846093783e+18
14076.0	1.9245159841529853e+18
14077.0	1.9234575683158019e+18
14078.0	1.923755662534246e+18
14079.0	1.9234479012839421e+18
14080.0	1.923102963400704e+18
14081.0	1.9227449074122747e+18
14082.0	1.9223848046034941e+18
14083.0	1.9220242152554493e+18
14084.0	1.921656082871091e+18
14085.0	1.9207541951037437e+18
14086.0	1.9208758450192381e+18
14087.0	1.9205824182222845e+18
14088.0	1.9202132137738235e+18
14089.0	1.919861460985446e+18
14090.0	1.9195095974674432e+18
14091.0	1.919159200278118e+18
14092.0	1.9188020569702397e+18
14093.0	1.918443739257241e+18
14094.0	1.9180844014895104e+18
14095.0	1.9177203342245883e+18
14096.0	1.9172547027271675e+18
14097.0	1.9169494379266045e+18
14098.0	1.9165961265348605e+18
14099.0	1.9162919757414397e+18
14100.0	1.915926762592665e+18
14101.0	1.915583265872281e+18
14102.0	1.9152262047727616e+18
14103.0	1.9148537488998397e+18
14104.0	1.914509280778649e+18
14105.0	1.9141553771511805e+18
14106.0	1.9137983848382461e+18
14107.0	1.9134344652128253e+18
14108.0	1.9130681581895677e+18
14109.0	1.912721426821939e+18
14110.0	1.9123662967799803e+18
14111.0	1.9120036555784187e+18
14112.0	1.9116458999021565e+18
14113.0	1.9112885535899643e+18
14114.0	1.910920473214976e+18
14115.0	1.910559588587929e+18
14116.0	1.9100432630546427e+18
14117.0	1.9041420954304522e+18
14118.0	1.9094322251038723e+18
14119.0	1.9090516289257472e+18
14120.0	1.9087239145324544e+18
14121.0	1.9084092813344765e+18
14122.0	1.9080330438770688e+18
14123.0	1.9076841331490816e+18
14124.0	1.9073211194933245e+18
14125.0	1.906538044614246e+18
14126.0	1.9066547267960832e+18
14127.0	1.9063118994866173e+18
14128.0	1.905961700268441e+18
14129.0	1.905596310958899e+18
14130.0	1.9052309132607483e+18
14131.0	1.9048985918439421e+18
14132.0	1.9045284344496128e+18
14133.0	1.9036267798855672e+18
14134.0	1.903816708037017e+18
14135.0	1.9034500486922237e+18
14136.0	1.903082001871667e+18
14137.0	1.902746004566835e+18
14138.0	1.9023647926648827e+18
14139.0	1.9020557731233787e+18
14140.0	1.901693351703347e+18
14141.0	1.9012474485342203e+18
14142.0	1.9006661179998205e+18
14143.0	1.9006237202972664e+18
14144.0	1.9002888722317307e+18
14145.0	1.8999375187410941e+18
14146.0	1.8995726562361344e+18
14147.0	1.899227480116428e+18
14148.0	1.8988710682951677e+18
14149.0	1.8985207986126843e+18
14150.0	1.8981753658015741e+18
14151.0	1.8978096292036603e+18
14152.0	1.8974694409502715e+18
14153.0	1.897116233577267e+18
14154.0	1.8967354109067261e+18
14155.0	1.896306892288819e+18
14156.0	1.8960436711915517e+18
14157.0	1.895703744662732e+18
14158.0	1.895347477125529e+18
14159.0	1.894998452312473e+18
14160.0	1.8946334371348475e+18
14161.0	1.8942325673689083e+18
14162.0	1.8938279361511421e+18
14163.0	1.8935642956234747e+18
14164.0	1.8930842575306747e+18
14165.0	1.8928374831382525e+18
14166.0	1.8925262154498043e+18
14167.0	1.8921628763160573e+18
14168.0	1.8918212066344952e+18
14169.0	1.8914710527148027e+18
14170.0	1.8911202008629243e+18
14171.0	1.890770659311616e+18
14172.0	1.8904220757393405e+18
14173.0	1.890044423962623e+18
14174.0	1.8897105288429563e+18
14175.0	1.889366862672691e+18
14176.0	1.8890163983745021e+18
14177.0	1.8886657159725053e+18
14178.0	1.888314087335526e+18
14179.0	1.8879582744608763e+18
14180.0	1.887612390342656e+18
14181.0	1.8872611979132925e+18
14182.0	1.8869089703297021e+18
14183.0	1.886557638649446e+18
14184.0	1.8861980274130941e+18
14185.0	1.8858311415758843e+18
14186.0	1.8845121420197888e+18
14187.0	1.885068761392742e+18
14188.0	1.8847940428693504e+18
14189.0	1.884444380522086e+18
14190.0	1.8840957935943677e+18
14191.0	1.8837414520815608e+18
14192.0	1.883386380759859e+18
14193.0	1.8828868475420672e+18
14194.0	1.882694605812531e+18
14195.0	1.8823552396427261e+18
14196.0	1.8820065117863928e+18
14197.0	1.8816569131925496e+18
14198.0	1.8813014174072832e+18
14199.0	1.8809480019967997e+18
14200.0	1.8799786161340416e+18
14201.0	1.880184781275136e+18
14202.0	1.8799032042258432e+18
14203.0	1.87955426665431e+18
14204.0	1.8792087298244605e+18
14205.0	1.8788586061037565e+18
14206.0	1.8783832404656128e+18
14207.0	1.8781611403247613e+18
14208.0	1.8778149223399421e+18
14209.0	1.8773280424984573e+18
14210.0	1.8770156289261563e+18
14211.0	1.8767617762263035e+18
14212.0	1.8764214671769597e+18
14213.0	1.876071878649446e+18
14214.0	1.87572474127319e+18
14215.0	1.8753604911366136e+18
14216.0	1.8750297719439355e+18
14217.0	1.874681958445875e+18
14218.0	1.8743206191562747e+18
14219.0	1.87398553117655e+18
14220.0	1.8736304112009213e+18
14221.0	1.8732849163141115e+18
14222.0	1.8729052948922363e+18
14223.0	1.8725797934137344e+18
14224.0	1.8721549573947387e+18
14225.0	1.86984491259003e+18
14226.0	1.8713996689407997e+18
14227.0	1.87110010168279e+18
14228.0	1.8657611469553682e+18
14229.0	1.8694292788740052e+18
14230.0	1.8700722757435387e+18
14231.0	1.8697090137849853e+18
14232.0	1.869390859049369e+18
14233.0	1.8690423308419064e+18
14234.0	1.868698345904537e+18
14235.0	1.86834905768919e+18
14236.0	1.8680047120416765e+18
14237.0	1.8676535397449723e+18
14238.0	1.8673058403319803e+18
14239.0	1.8669397447016445e+18
14240.0	1.8649157866618877e+18
14241.0	1.8662214063882237e+18
14242.0	1.8658379966709755e+18
14243.0	1.8653482345037824e+18
14244.0	1.8651605746319355e+18
14245.0	1.8648056207507456e+18
14246.0	1.8644588809945088e+18
14247.0	1.8641183655854075e+18
14248.0	1.8637601367916536e+18
14249.0	1.8634259363266555e+18
14250.0	1.8630824312176637e+18
14251.0	1.86273825334231e+18
14252.0	1.8623909632933883e+18
14253.0	1.8620415190499323e+18
14254.0	1.8616873771859965e+18
14255.0	1.8612789123743736e+18
14256.0	1.858967428084532e+18
14257.0	1.8603002118012923e+18
14258.0	1.8602914339618808e+18
14259.0	1.8599379631865853e+18
14260.0	1.8595451951382525e+18
14261.0	1.85922405573591e+18
14262.0	1.8588281570590715e+18
14263.0	1.8555668139081738e+18
14264.0	1.8571991632052216e+18
14265.0	1.8578018712682493e+18
14266.0	1.857495712242073e+18
14267.0	1.8571586311290872e+18
14268.0	1.8568136546582525e+18
14269.0	1.856461356610355e+18
14270.0	1.8561243207958528e+18
14271.0	1.8557735008206843e+18
14272.0	1.8554112639500288e+18
14273.0	1.8549653758803963e+18
14274.0	1.8499577392922634e+18
14275.0	1.8537001003253763e+18
14276.0	1.854000125601382e+18
14277.0	1.85369290122199e+18
14278.0	1.8533675641602045e+18
14279.0	1.853026159558656e+18
14280.0	1.8526787604578304e+18
14281.0	1.8523430533988347e+18
14282.0	1.8520001203929083e+18
14283.0	1.8516565062320123e+18
14284.0	1.8512903132938237e+18
14285.0	1.8508956896854008e+18
14286.0	1.8505493794258941e+18
14287.0	1.8502069447032832e+18
14288.0	1.8498538312826875e+18
14289.0	1.848428291371825e+18
14290.0	1.8491669603155965e+18
14291.0	1.8488313673416704e+18
14292.0	1.848486926064025e+18
14293.0	1.8481418908729341e+18
14294.0	1.8476584637825021e+18
14295.0	1.8474320149872637e+18
14296.0	1.8462379754913797e+18
14297.0	1.846734567663206e+18
14298.0	1.8457847054467064e+18
14299.0	1.8460435812450296e+18
14300.0	1.8457302600253437e+18
14301.0	1.8453927443824635e+18
14302.0	1.8450510579236861e+18
14303.0	1.8446692000989181e+18
14304.0	1.844344107984486e+18
14305.0	1.8440130045935613e+18
14306.0	1.843636198388531e+18
14307.0	1.8432893982343168e+18
14308.0	1.842955940999987e+18
14309.0	1.8425777775181821e+18
14310.0	1.8420606902992893e+18
14311.0	1.8415756962168827e+18
14312.0	1.8413771059888125e+18
14313.0	1.841034483361382e+18
14314.0	1.8408141767049216e+18
14315.0	1.8405014695313403e+18
14316.0	1.8401158787760123e+18
14317.0	1.8397765579046912e+18
14318.0	1.8394939356348408e+18
14319.0	1.8391610890911741e+18
14320.0	1.8388218940489725e+18
14321.0	1.8384790382182397e+18
14322.0	1.8381023058329597e+18
14323.0	1.8377789837148155e+18
14324.0	1.837461582276198e+18
14325.0	1.8371034138804221e+18
14326.0	1.8367699935559677e+18
14327.0	1.836421725395353e+18
14328.0	1.836081562307788e+18
14329.0	1.8357477913395197e+18
14330.0	1.835407082992435e+18
14331.0	1.835063082955571e+18
14332.0	1.8347254867820541e+18
14333.0	1.8343846442172413e+18
14334.0	1.8340433738334205e+18
14335.0	1.8336846886993917e+18
14336.0	1.833155164530278e+18
14337.0	1.8329948196438013e+18
14338.0	1.8326040766054397e+18
14339.0	1.8322536760606715e+18
14340.0	1.8319224636178432e+18
14341.0	1.831575351407411e+18
14342.0	1.831241867329536e+18
14343.0	1.830902613567078e+18
14344.0	1.8305536944504824e+18
14345.0	1.830218333002137e+18
14346.0	1.8298696034680827e+18
14347.0	1.8294848633176061e+18
14348.0	1.8291878042533885e+18
14349.0	1.82885625626624e+18
14350.0	1.828344588088115e+18
14351.0	1.8279971503996923e+18
14352.0	1.82782960640983e+18
14353.0	1.8275003820670976e+18
14354.0	1.8271410744983547e+18
14355.0	1.8267606393815035e+18
14356.0	1.8264306902630397e+18
14357.0	1.8261429157101565e+18
14358.0	1.8258069553151997e+18
14359.0	1.825450613958246e+18
14360.0	1.8251143868055547e+18
14361.0	1.8247804681977853e+18
14362.0	1.8244481149042685e+18
14363.0	1.8241025411645437e+18
14364.0	1.8232565886353405e+18
14365.0	1.8232643447422968e+18
14366.0	1.8229935822864381e+18
14367.0	1.8227541093384187e+18
14368.0	1.8224165567856635e+18
14369.0	1.8220635641610237e+18
14370.0	1.821667657095577e+18
14371.0	1.821329638136217e+18
14372.0	1.8209845593243643e+18
14373.0	1.8206475939741693e+18
14374.0	1.8203128834818045e+18
14375.0	1.819972329485107e+18
14376.0	1.8196358557073403e+18
14377.0	1.8192965163810816e+18
14378.0	1.818955779512729e+18
14379.0	1.8186200305106944e+18
14380.0	1.8182806442082304e+18
14381.0	1.8179298577874941e+18
14382.0	1.8176030795628544e+18
14383.0	1.8172641529561088e+18
14384.0	1.8169077428125693e+18
14385.0	1.816590286009139e+18
14386.0	1.8162318491779064e+18
14387.0	1.8159136910868477e+18
14388.0	1.815571863699456e+18
14389.0	1.8152373679554555e+18
14390.0	1.8148978726010877e+18
14391.0	1.8145623165370368e+18
14392.0	1.814223666754355e+18
14393.0	1.8138868960198653e+18
14394.0	1.8135055951986688e+18
14395.0	1.8131973893521403e+18
14396.0	1.812873453187891e+18
14397.0	1.8125364140179453e+18
14398.0	1.8121983313051645e+18
14399.0	1.8118602368483325e+18
14400.0	1.8115013084446717e+18
14401.0	1.8111748724752381e+18
14402.0	1.810832623979725e+18
14403.0	1.8099540699643894e+18
14404.0	1.8066683948171244e+18
14405.0	1.8079654933954516e+18
14406.0	1.8094373652660221e+18
14407.0	1.8083585969881088e+18
14408.0	1.808709994099507e+18
14409.0	1.808391844397056e+18
14410.0	1.8080398869266432e+18
14411.0	1.8077389070270461e+18
14412.0	1.8074022889652221e+18
14413.0	1.8070697880322045e+18
14414.0	1.806730176915046e+18
14415.0	1.8063940017717243e+18
14416.0	1.8060516643569661e+18
14417.0	1.8056895549931517e+18
14418.0	1.8053351698595837e+18
14419.0	1.8050408035385341e+18
14420.0	1.8047017292922875e+18
14421.0	1.8043673358893053e+18
14422.0	1.8040149489221632e+18
14423.0	1.8035971509452792e+18
14424.0	1.800304031747275e+18
14425.0	1.8029545449848827e+18
14426.0	1.802679422130585e+18
14427.0	1.8023512899846141e+18
14428.0	1.8019920243589117e+18
14429.0	1.8016778810556413e+18
14430.0	1.801323509343846e+18
14431.0	1.8001007975858176e+18
14432.0	1.8006552493424637e+18
14433.0	1.799771116902809e+18
14434.0	1.7999698329599995e+18
14435.0	1.799571654259507e+18
14436.0	1.7993239688642555e+18
14437.0	1.79899687019479e+18
14438.0	1.7985600267223037e+18
14439.0	1.7983066337181693e+18
14440.0	1.7979926732865533e+18
14441.0	1.7976491514003453e+18
14442.0	1.7973067737202688e+18
14443.0	1.7969269576826875e+18
14444.0	1.7966434395095037e+18
14445.0	1.796307289532006e+18
14446.0	1.7946552169398275e+18
14447.0	1.7955666912083963e+18
14448.0	1.7952364786876413e+18
14449.0	1.7949032848556027e+18
14450.0	1.7945611353456635e+18
14451.0	1.7942276546232315e+18
14452.0	1.7938942242324477e+18
14453.0	1.7935521703526397e+18
14454.0	1.7932199680540664e+18
14455.0	1.792874978161459e+18
14456.0	1.7925356807782397e+18
14457.0	1.7922037385265147e+18
14458.0	1.7918611158990843e+18
14459.0	1.791510868026982e+18
14460.0	1.7911458847260664e+18
14461.0	1.7907039476908027e+18
14462.0	1.790217373194649e+18
14463.0	1.7900901347885053e+18
14464.0	1.7898223519662077e+18
14465.0	1.7894854419808253e+18
14466.0	1.7891853512736765e+18
14467.0	1.788834351782297e+18
14468.0	1.7885218174140413e+18
14469.0	1.7881159832698875e+18
14470.0	1.7878187933433853e+18
14471.0	1.7875232190627837e+18
14472.0	1.7871951154380795e+18
14473.0	1.7868668239085565e+18
14474.0	1.7865387404165112e+18
14475.0	1.7862028253200384e+18
14476.0	1.7858365099081723e+18
14477.0	1.785533582173798e+18
14478.0	1.7852024032854013e+18
14479.0	1.7848657734795261e+18
14480.0	1.7845162218618877e+18
14481.0	1.78420553130967e+18
14482.0	1.7838669670907904e+18
14483.0	1.783526871112089e+18
14484.0	1.7831876945248253e+18
14485.0	1.7828210351800317e+18
14486.0	1.7821997698383872e+18
14487.0	1.7821982313676795e+18
14488.0	1.7818333923508221e+18
14489.0	1.7814525579362304e+18
14490.0	1.7811828658667515e+18
14491.0	1.7808701737926653e+18
14492.0	1.7805386258055163e+18
14493.0	1.780185185229209e+18
14494.0	1.779845280510771e+18
14495.0	1.7795325985030141e+18
14496.0	1.7790531375464448e+18
14497.0	1.7787986137579515e+18
14498.0	1.7784688223453181e+18
14499.0	1.778135802996326e+18
14500.0	1.7778016914505723e+18
14501.0	1.7774422664413181e+18
14502.0	1.7768742838599677e+18
14503.0	1.77677427319767e+18
14504.0	1.7764613395316733e+18
14505.0	1.7761183746490363e+18
14506.0	1.775766378591027e+18
14507.0	1.7751918830944253e+18
14508.0	1.7751340402868221e+18
14509.0	1.7748047454797821e+18
14510.0	1.7744683304222717e+18
14511.0	1.7741381598445565e+18
14512.0	1.7737892692492285e+18
14513.0	1.77347026223104e+18
14514.0	1.7731022556758013e+18
14515.0	1.7727886190444544e+18
14516.0	1.769666937828149e+18
14517.0	1.7720908193988605e+18
14518.0	1.7718045950607355e+18
14519.0	1.7714718592466936e+18
14520.0	1.7711435358404603e+18
14521.0	1.7708114392383488e+18
14522.0	1.7704721317887997e+18
14523.0	1.7700491093868541e+18
14524.0	1.769767906469478e+18
14525.0	1.7694746491224061e+18
14526.0	1.769143856109977e+18
14527.0	1.768788053301657e+18
14528.0	1.768333137412096e+18
14529.0	1.768140175939993e+18
14530.0	1.7678010144522237e+18
14531.0	1.7674864433299453e+18
14532.0	1.7671128818384893e+18
14533.0	1.7668234043981824e+18
14534.0	1.7664942203207677e+18
14535.0	1.76614909453271e+18
14536.0	1.7658248681226235e+18
14537.0	1.7654816381599741e+18
14538.0	1.765165575543193e+18
14539.0	1.7648337977081853e+18
14540.0	1.7645014947463165e+18
14541.0	1.7641421402013696e+18
14542.0	1.7638331324039168e+18
14543.0	1.763468043406541e+18
14544.0	1.7631664897261563e+18
14545.0	1.762810131591987e+18
14546.0	1.7587008394231785e+18
14547.0	1.7585729467056097e+18
14548.0	1.761805802143744e+18
14549.0	1.761369324414566e+18
14550.0	1.7611659224809472e+18
14551.0	1.7608494337228797e+18
14552.0	1.7605174881157115e+18
14553.0	1.760124585849651e+18
14554.0	1.7597861524930557e+18
14555.0	1.7594537908109312e+18
14556.0	1.7591204828938237e+18
14557.0	1.7587866062290941e+18
14558.0	1.7584360848883707e+18
14559.0	1.7560404695711708e+18
14560.0	1.7577636423270397e+18
14561.0	1.757448133358387e+18
14562.0	1.7570831819341821e+18
14563.0	1.7567735970004987e+18
14564.0	1.7563994499842048e+18
14565.0	1.756130947419341e+18
14566.0	1.7558019562799104e+18
14567.0	1.7554643768836093e+18
14568.0	1.7551129462177787e+18
14569.0	1.7547947361173496e+18
14570.0	1.7538846073815035e+18
14571.0	1.7541314337832952e+18
14572.0	1.7537559160684541e+18
14573.0	1.7534039971856384e+18
14574.0	1.7530290784174077e+18
14575.0	1.7527709525606395e+18
14576.0	1.752440500125696e+18
14577.0	1.7521449325559803e+18
14578.0	1.7518168675188739e+18
14579.0	1.751491886134067e+18
14580.0	1.7511586520367104e+18
14581.0	1.7508185543802877e+18
14582.0	1.7504800891469821e+18
14583.0	1.7501661622697981e+18
14584.0	1.749790486849126e+18
14585.0	1.7494994021515261e+18
14586.0	1.7491697499897853e+18
14587.0	1.748841391351398e+18
14588.0	1.748510594983526e+18
14589.0	1.748181724640051e+18
14590.0	1.747852735178342e+18
14591.0	1.7475168368590848e+18
14592.0	1.747178140100198e+18
14593.0	1.746730638062387e+18
14594.0	1.7465314740535293e+18
14595.0	1.7461920441303037e+18
14596.0	1.7453755289042936e+18
14597.0	1.744937861670501e+18
14598.0	1.745148642223718e+18
14599.0	1.7448824716918784e+18
14600.0	1.7445464727093248e+18
14601.0	1.7442179915972605e+18
14602.0	1.7438724950327296e+18
14603.0	1.7435541624586235e+18
14604.0	1.7431580423225344e+18
14605.0	1.7428216910184448e+18
14606.0	1.7424714666344448e+18
14607.0	1.7422228266156027e+18
14608.0	1.741887649716633e+18
14609.0	1.7415407639986176e+18
14610.0	1.7411546548273147e+18
14611.0	1.7408667343126525e+18
14612.0	1.7405812129398781e+18
14613.0	1.7402617915244544e+18
14614.0	1.7399260223897595e+18
14615.0	1.7396036733501437e+18
14616.0	1.7392820625080315e+18
14617.0	1.7389355978981376e+18
14618.0	1.738524812797542e+18
14619.0	1.7377199711584243e+18
14620.0	1.7366404764270595e+18
14621.0	1.7375529170632707e+18
14622.0	1.7372363326750715e+18
14623.0	1.7369136782901243e+18
14624.0	1.7365214068473853e+18
14625.0	1.7362523791556605e+18
14626.0	1.7359206214533115e+18
14627.0	1.7355911286751227e+18
14628.0	1.735271789468057e+18
14629.0	1.7349407062097915e+18
14630.0	1.734598202700595e+18
14631.0	1.7342764693848061e+18
14632.0	1.733699354964787e+18
14633.0	1.7335701670461435e+18
14634.0	1.733278258587238e+18
14635.0	1.7328481478115318e+18
14636.0	1.7322707330793464e+18
14637.0	1.7323064014405624e+18
14638.0	1.7319435052253181e+18
14639.0	1.731604018259558e+18
14640.0	1.7312990890033144e+18
14641.0	1.73004938102702e+18
14642.0	1.730634415970713e+18
14643.0	1.73031687192576e+18
14644.0	1.7299691288920061e+18
14645.0	1.7296295546847227e+18
14646.0	1.7292914770051072e+18
14647.0	1.7289188399382523e+18
