# Flux units: erg / (cm m2 s)
# Wavelength units: Angstrom
wave	flux
14000.0	1.588610282920345e+18
14001.0	1.5881550415527939e+18
14002.0	1.588028576576307e+18
14003.0	1.5877440484147197e+18
14004.0	1.587450589741056e+18
14005.0	1.587156840821555e+18
14006.0	1.5868541915889664e+18
14007.0	1.5865610047062013e+18
14008.0	1.58617093275648e+18
14009.0	1.5859798201335803e+18
14010.0	1.5856761944670203e+18
14011.0	1.5846453888942077e+18
14012.0	1.585103067991244e+18
14013.0	1.5848102401409021e+18
14014.0	1.5845112667963392e+18
14015.0	1.5842216970813437e+18
14016.0	1.5839312130080763e+18
14017.0	1.583638499242803e+18
14018.0	1.5833455438856192e+18
14019.0	1.5830530012479485e+18
14020.0	1.5827596012945403e+18
14021.0	1.5824662248292347e+18
14022.0	1.5821742861713405e+18
14023.0	1.581871091679232e+18
14024.0	1.581575874753331e+18
14025.0	1.581297857829273e+18
14026.0	1.5810036743798781e+18
14027.0	1.580713512429158e+18
14028.0	1.580421446264422e+18
14029.0	1.580129150251827e+18
14030.0	1.5796034445770747e+18
14031.0	1.5795206540492795e+18
14032.0	1.5792493396230141e+18
14033.0	1.5789200917921787e+18
14034.0	1.578669646544896e+18
14035.0	1.578378288378675e+18
14036.0	1.5780866802319357e+18
14037.0	1.5777951391940603e+18
14038.0	1.577503631710617e+18
14039.0	1.5772080238755835e+18
14040.0	1.5769121257947139e+18
14041.0	1.5766249719988221e+18
14042.0	1.5763232790675453e+18
14043.0	1.5759999888261115e+18
14044.0	1.5757409821655037e+18
14045.0	1.575459923532185e+18
14046.0	1.5751701675900928e+18
14047.0	1.5748755814875133e+18
14048.0	1.5745896692056064e+18
14049.0	1.5743013963694083e+18
14050.0	1.5740106807705597e+18
14051.0	1.5737105648975872e+18
14052.0	1.5734291405209597e+18
14053.0	1.5731388493856763e+18
14054.0	1.5728484357767163e+18
14055.0	1.572558035589529e+18
14056.0	1.5722676572127232e+18
14057.0	1.5719774247976957e+18
14058.0	1.5716872024489981e+18
14059.0	1.5713970623086584e+18
14060.0	1.5711069775331325e+18
14061.0	1.570808814528102e+18
14062.0	1.570526969043353e+18
14063.0	1.570220348643737e+18
14064.0	1.569898214352486e+18
14065.0	1.5696473698074621e+18
14066.0	1.569367765758771e+18
14067.0	1.5690781742333947e+18
14068.0	1.5687885709639675e+18
14069.0	1.56849791911854e+18
14070.0	1.5682094818656256e+18
14071.0	1.567916751323136e+18
14072.0	1.5676308423966715e+18
14073.0	1.5673415713161213e+18
14074.0	1.5670524881403901e+18
14075.0	1.5667458660630525e+18
14076.0	1.5664712649801728e+18
14077.0	1.566130851912089e+18
14078.0	1.5658924342509565e+18
14079.0	1.5655968331268093e+18
14080.0	1.565318650108313e+18
14081.0	1.5650299007991803e+18
14082.0	1.5647369689300987e+18
14083.0	1.564450957662617e+18
14084.0	1.5641639213072381e+18
14085.0	1.5636023073570813e+18
14086.0	1.563582699824742e+18
14087.0	1.563298698467737e+18
14088.0	1.5629987252011005e+18
14089.0	1.5627220252884987e+18
14090.0	1.5624313465995256e+18
14091.0	1.562145867169792e+18
14092.0	1.5618578107596797e+18
14093.0	1.5615698214584315e+18
14094.0	1.5612818891997181e+18
14095.0	1.5609940156612605e+18
14096.0	1.560692304275046e+18
14097.0	1.5604057980796925e+18
14098.0	1.5601259725717504e+18
14099.0	1.5598431405867005e+18
14100.0	1.559541075201228e+18
14101.0	1.5592681484845053e+18
14102.0	1.5589804762726397e+18
14103.0	1.5586742635593725e+18
14104.0	1.5582464042860541e+18
14105.0	1.5578108191047675e+18
14106.0	1.5575238683131904e+18
14107.0	1.5572354159607803e+18
14108.0	1.556938051551232e+18
14109.0	1.556657303296409e+18
14110.0	1.5563700404486141e+18
14111.0	1.5560759928946685e+18
14112.0	1.5557939158843392e+18
14113.0	1.5555146574462973e+18
14114.0	1.555214739544473e+18
14115.0	1.5549397139980285e+18
14116.0	1.5546359390142464e+18
14117.0	1.5539543411261437e+18
14118.0	1.554081574499123e+18
14119.0	1.553784282231603e+18
14120.0	1.5535037906681853e+18
14121.0	1.5532112329310203e+18
14122.0	1.552925124355686e+18
14123.0	1.5526442301390843e+18
14124.0	1.5523572457930747e+18
14125.0	1.5515646112563195e+18
14126.0	1.5517918418698237e+18
14127.0	1.5515060201848832e+18
14128.0	1.5510868582203392e+18
14129.0	1.5505222612811773e+18
14130.0	1.5502286918778875e+18
14131.0	1.5499639289544701e+18
14132.0	1.5496729549864957e+18
14133.0	1.548792553799679e+18
14134.0	1.5491072373293053e+18
14135.0	1.5488078411988987e+18
14136.0	1.5485269016838141e+18
14137.0	1.5482508510494715e+18
14138.0	1.5479621705269243e+18
14139.0	1.5476809088892925e+18
14140.0	1.547388055873126e+18
14141.0	1.5471092621639677e+18
14142.0	1.5467946272882685e+18
14143.0	1.5465354394337277e+18
14144.0	1.5462566440468477e+18
14145.0	1.545970251936563e+18
14146.0	1.5456858277937155e+18
14147.0	1.5454021066162173e+18
14148.0	1.5451180096290813e+18
14149.0	1.5448341441675264e+18
14150.0	1.5445496462049277e+18
14151.0	1.5442625561624573e+18
14152.0	1.5439811116531707e+18
14153.0	1.5436967328088064e+18
14154.0	1.543386845885235e+18
14155.0	1.5430779622391805e+18
14156.0	1.5428333890174976e+18
14157.0	1.542560588129894e+18
14158.0	1.5422722012086272e+18
14159.0	1.5419922934923256e+18
14160.0	1.5416975144517632e+18
14161.0	1.5413644498042877e+18
14162.0	1.5410253856243707e+18
14163.0	1.5408562880643072e+18
14164.0	1.5405514510827515e+18
14165.0	1.5401999012986877e+18
14166.0	1.5400048326082557e+18
14167.0	1.539709595549696e+18
14168.0	1.539438906913587e+18
14169.0	1.539157673797222e+18
14170.0	1.5388706860957693e+18
14171.0	1.53858785411072e+18
14172.0	1.538308263483801e+18
14173.0	1.5379720094875648e+18
14174.0	1.537735902049075e+18
14175.0	1.5374594789605376e+18
14176.0	1.5371766704635901e+18
14177.0	1.5368939324309501e+18
14178.0	1.536609729747353e+18
14179.0	1.5363176602271744e+18
14180.0	1.5360460773654525e+18
14181.0	1.5357635607920637e+18
14182.0	1.5354801852252157e+18
14183.0	1.5351987289718781e+18
14184.0	1.5349108084572157e+18
14185.0	1.5346340984782843e+18
14186.0	1.5342590589140987e+18
14187.0	1.534043619328e+18
14188.0	1.5337863642087427e+18
14189.0	1.5335041479475197e+18
14190.0	1.533222789002035e+18
14191.0	1.5329409217069053e+18
14192.0	1.532650781566566e+18
14193.0	1.5323663574237184e+18
14194.0	1.532094813149593e+18
14195.0	1.5318147426942976e+18
14196.0	1.5315328301006848e+18
14197.0	1.5312512698286075e+18
14198.0	1.5309643911790587e+18
14199.0	1.5306852669587453e+18
14200.0	1.530363085691289e+18
14201.0	1.530122072594841e+18
14202.0	1.5298445271105533e+18
14203.0	1.5295513100287997e+18
14204.0	1.529271981126451e+18
14205.0	1.528984748477645e+18
14206.0	1.5285680527638528e+18
14207.0	1.5284255554797565e+18
14208.0	1.5281447485046781e+18
14209.0	1.5277215717523453e+18
14210.0	1.5274752134348795e+18
14211.0	1.5272972440829947e+18
14212.0	1.5270206549000192e+18
14213.0	1.5267407253733379e+18
14214.0	1.526459388238233e+18
14215.0	1.5261639162986493e+18
14216.0	1.5258997724545021e+18
14217.0	1.5256191147966464e+18
14218.0	1.5253271929159683e+18
14219.0	1.525058574588313e+18
14220.0	1.5247785242656765e+18
14221.0	1.5244978431197184e+18
14222.0	1.5242010625572864e+18
14223.0	1.5239245673267197e+18
14224.0	1.5236449448230912e+18
14225.0	1.5232187632713725e+18
14226.0	1.5230836529954813e+18
14227.0	1.5228052636172283e+18
14228.0	1.5221427833667581e+18
14229.0	1.522140956327935e+18
14230.0	1.5219661108936704e+18
14231.0	1.5216826950615037e+18
14232.0	1.5214066125504507e+18
14233.0	1.521122213573427e+18
14234.0	1.5208480403095555e+18
14235.0	1.520565761972633e+18
14236.0	1.520289254998016e+18
14237.0	1.5200085335867387e+18
14238.0	1.5197304092884992e+18
14239.0	1.5194458828046336e+18
14240.0	1.5172165531860987e+18
14241.0	1.5188924024487939e+18
14242.0	1.5186057922347005e+18
14243.0	1.5181508612456443e+18
14244.0	1.5180434115657723e+18
14245.0	1.5177451311202304e+18
14246.0	1.517461982045798e+18
14247.0	1.517202599575552e+18
14248.0	1.5169078524116992e+18
14249.0	1.5166477971750907e+18
14250.0	1.5163690990960637e+18
14251.0	1.5160933185748987e+18
14252.0	1.5158148016898043e+18
14253.0	1.515535429166694e+18
14254.0	1.5152555449384957e+18
14255.0	1.5149399571169275e+18
14256.0	1.5145642263314432e+18
14257.0	1.5144068459790336e+18
14258.0	1.5141455408398336e+18
14259.0	1.5138474113892347e+18
14260.0	1.513578720919552e+18
14261.0	1.513292449605222e+18
14262.0	1.513050741932032e+18
14263.0	1.5125716316192765e+18
14264.0	1.512440614984089e+18
14265.0	1.5122042290438144e+18
14266.0	1.5119262305746941e+18
14267.0	1.5116505876267003e+18
14268.0	1.5113730807300093e+18
14269.0	1.511089203524403e+18
14270.0	1.5108180853915648e+18
14271.0	1.5105394393219072e+18
14272.0	1.510263390365286e+18
14273.0	1.5099847023525883e+18
14274.0	1.5093888813367293e+18
14275.0	1.509403532879462e+18
14276.0	1.5091370469359613e+18
14277.0	1.5088592414048256e+18
14278.0	1.508600127370035e+18
14279.0	1.508321667527475e+18
14280.0	1.5080391828307965e+18
14281.0	1.5077698581823488e+18
14282.0	1.5074934233497595e+18
14283.0	1.5072167217594363e+18
14284.0	1.5069400654675965e+18
14285.0	1.5066634276306947e+18
14286.0	1.5063862193684477e+18
14287.0	1.5061104656908285e+18
14288.0	1.5058337540341757e+18
14289.0	1.5043050392780785e+18
14290.0	1.5052718347386877e+18
14291.0	1.5049911921803264e+18
14292.0	1.5047160710037504e+18
14293.0	1.5044372621950976e+18
14294.0	1.5040100874321923e+18
14295.0	1.503873952068403e+18
14296.0	1.5026083392913413e+18
14297.0	1.5033282915729403e+18
14298.0	1.50287255863296e+18
14299.0	1.5027699642793981e+18
14300.0	1.502498955198464e+18
14301.0	1.502227771634483e+18
14302.0	1.5019537124556797e+18
14303.0	1.5016437718450179e+18
14304.0	1.501384706464153e+18
14305.0	1.501127681192755e+18
14306.0	1.5008341453438976e+18
14307.0	1.5005704360296448e+18
14308.0	1.500303726949171e+18
14309.0	1.5000270555578365e+18
14310.0	1.4996584936767485e+18
14311.0	1.499409732861952e+18
14312.0	1.4991483270594552e+18
14313.0	1.4987666051301373e+18
14314.0	1.498651355722547e+18
14315.0	1.4983777562394621e+18
14316.0	1.4980451428990976e+18
14317.0	1.497820410413056e+18
14318.0	1.4975428313743352e+18
14319.0	1.4972666750435328e+18
14320.0	1.4969911377919995e+18
14321.0	1.4967144395571197e+18
14322.0	1.4964011888017405e+18
14323.0	1.496144910116454e+18
14324.0	1.495893763581542e+18
14325.0	1.4956099182526467e+18
14326.0	1.4953449372254203e+18
14327.0	1.4950638349713405e+18
14328.0	1.4947886517190653e+18
14329.0	1.4945221489983485e+18
14330.0	1.4942479858008064e+18
14331.0	1.493973510547046e+18
14332.0	1.493699744969523e+18
14333.0	1.493425786454016e+18
14334.0	1.4931518581374976e+18
14335.0	1.492859629233766e+18
14336.0	1.4925851103592445e+18
14337.0	1.4923297040891901e+18
14338.0	1.4920542071029752e+18
14339.0	1.4917717257617405e+18
14340.0	1.4915087177351165e+18
14341.0	1.4912346350682107e+18
14342.0	1.4909598360141821e+18
14343.0	1.490683047182336e+18
14344.0	1.4904098990063613e+18
14345.0	1.4901420272648187e+18
14346.0	1.489865961530982e+18
14347.0	1.489468016033792e+18
14348.0	1.4890932449050621e+18
14349.0	1.488820427240243e+18
14350.0	1.4885258243604477e+18
14351.0	1.4882435460235264e+18
14352.0	1.4879786270719997e+18
14353.0	1.4877129565011965e+18
14354.0	1.4874406102761472e+18
14355.0	1.4871664319791101e+18
14356.0	1.4868946209472507e+18
14357.0	1.4866251251712e+18
14358.0	1.4863518662655997e+18
14359.0	1.486065564752281e+18
14360.0	1.4858059977326587e+18
14361.0	1.4855344467476475e+18
14362.0	1.4852624494886907e+18
14363.0	1.4849897912074237e+18
14364.0	1.4846848267190272e+18
14365.0	1.4844369869733883e+18
14366.0	1.4841663352471547e+18
14367.0	1.4839011780591616e+18
14368.0	1.4836284795125752e+18
14369.0	1.4833570057027581e+18
14370.0	1.4830850319319037e+18
14371.0	1.4828131152035837e+18
14372.0	1.4825354489233403e+18
14373.0	1.4822690351218685e+18
14374.0	1.4819963449638912e+18
14375.0	1.4817225105997821e+18
14376.0	1.4814541456080893e+18
14377.0	1.481181767506329e+18
14378.0	1.4809077771141115e+18
14379.0	1.4806393131368445e+18
14380.0	1.4803657606299645e+18
14381.0	1.4800850140528637e+18
14382.0	1.4798230697017344e+18
14383.0	1.4795471432187901e+18
14384.0	1.4792629724119035e+18
14385.0	1.4790109299736573e+18
14386.0	1.4787232611172344e+18
14387.0	1.4784562399805437e+18
14388.0	1.4781830280511485e+18
14389.0	1.4779137168244736e+18
14390.0	1.4776409058705405e+18
14391.0	1.4773718077145088e+18
14392.0	1.477098944751206e+18
14393.0	1.4768306401574907e+18
14394.0	1.4765198439088125e+18
14395.0	1.476276911498854e+18
14396.0	1.476018278970163e+18
14397.0	1.475747654087475e+18
14398.0	1.475476131623731e+18
14399.0	1.475206379156275e+18
14400.0	1.4749139673808893e+18
14401.0	1.4746572625543163e+18
14402.0	1.4743933401694205e+18
14403.0	1.472233708139313e+18
14404.0	1.467554051024485e+18
14405.0	1.4713651902545887e+18
14406.0	1.4733126576111613e+18
14407.0	1.4705280289865736e+18
14408.0	1.4727443696844795e+18
14409.0	1.4724786538151936e+18
14410.0	1.4722298779009021e+18
14411.0	1.4719619709272064e+18
14412.0	1.471660209209344e+18
14413.0	1.4710155765612541e+18
14414.0	1.470742750507827e+18
14415.0	1.4704741741232125e+18
14416.0	1.4702048595410941e+18
14417.0	1.469930771841024e+18
14418.0	1.4696515033366525e+18
14419.0	1.469394259961446e+18
14420.0	1.4691201319960573e+18
14421.0	1.4688561961893885e+18
14422.0	1.468582365180723e+18
14423.0	1.4683097052217341e+18
14424.0	1.4580632336203735e+18
14425.0	1.4677694906105853e+18
14426.0	1.4675095410704381e+18
14427.0	1.4672360590278653e+18
14428.0	1.4669371813134328e+18
14429.0	1.466682306881126e+18
14430.0	1.466420600766464e+18
14431.0	1.466087081456435e+18
14432.0	1.4658748630958075e+18
14433.0	1.4637061378146294e+18
14434.0	1.4653234513707003e+18
14435.0	1.4650548649197565e+18
14436.0	1.4648059346550781e+18
14437.0	1.4645372290859005e+18
14438.0	1.464222007007641e+18
14439.0	1.4639862334357501e+18
14440.0	1.4637300268924925e+18
14441.0	1.463447785465446e+18
14442.0	1.463173130695475e+18
14443.0	1.4628557091241984e+18
14444.0	1.4626491312635904e+18
14445.0	1.4623874385707005e+18
14446.0	1.459353366298625e+18
14447.0	1.4618267121352701e+18
14448.0	1.4615826808176635e+18
14449.0	1.4613144601100283e+18
14450.0	1.4610407851294715e+18
14451.0	1.4607757554483197e+18
14452.0	1.4605074542100475e+18
14453.0	1.4602120409907197e+18
14454.0	1.45997288177664e+18
14455.0	1.4596948161986557e+18
14456.0	1.4594304106299387e+18
14457.0	1.4591597136052221e+18
14458.0	1.4588994100658173e+18
14459.0	1.458629775038873e+18
14460.0	1.4583635592085504e+18
14461.0	1.4580762762280957e+18
14462.0	1.4577735967965184e+18
14463.0	1.4575570247483392e+18
14464.0	1.4572933271781373e+18
14465.0	1.4569951272632315e+18
14466.0	1.4567592446394365e+18
14467.0	1.4564515370762237e+18
14468.0	1.4562170805157885e+18
14469.0	1.4559272339767293e+18
14470.0	1.4556539784265725e+18
14471.0	1.4554065379786747e+18
14472.0	1.4551462914818045e+18
14473.0	1.454884627310182e+18
14474.0	1.4546184131575808e+18
14475.0	1.4543457548763136e+18
14476.0	1.4539645714956285e+18
14477.0	1.4538084628561915e+18
14478.0	1.4535358632951808e+18
14479.0	1.4532696256544765e+18
14480.0	1.4529846243753981e+18
14481.0	1.452738311356416e+18
14482.0	1.452466300675686e+18
14483.0	1.4521926273728507e+18
14484.0	1.4519223044800512e+18
14485.0	1.4516298507616253e+18
14486.0	1.4510449114480637e+18
14487.0	1.4511362466119675e+18
14488.0	1.4508663934812157e+18
14489.0	1.4505976946229245e+18
14490.0	1.4503331514810365e+18
14491.0	1.4500681805201408e+18
14492.0	1.4498035753025536e+18
14493.0	1.4495324722692093e+18
14494.0	1.449247284763033e+18
14495.0	1.4490038574252032e+18
14496.0	1.4485773822722048e+18
14497.0	1.4484693822996477e+18
14498.0	1.448204616020787e+18
14499.0	1.4479386988249085e+18
14500.0	1.4476720501424125e+18
14501.0	1.447350122210918e+18
14502.0	1.4468274498568195e+18
14503.0	1.4468524747522045e+18
14504.0	1.4465996890832893e+18
14505.0	1.4462900773060603e+18
14506.0	1.4459755212832765e+18
14507.0	1.4455136361381885e+18
14508.0	1.4455432781234173e+18
14509.0	1.4452773810601981e+18
14510.0	1.4450074054557693e+18
14511.0	1.444744883968409e+18
14512.0	1.4444612382883837e+18
14513.0	1.4442135478599677e+18
14514.0	1.4439051826298877e+18
14515.0	1.4436803830349821e+18
14516.0	1.4401938460246031e+18
14517.0	1.4431474312806397e+18
14518.0	1.4428848980492288e+18
14519.0	1.4426192157343741e+18
14520.0	1.442352427800985e+18
14521.0	1.4420861851271163e+18
14522.0	1.4418224607133693e+18
14523.0	1.4414437519720448e+18
14524.0	1.4411747880337403e+18
14525.0	1.4410194628902907e+18
14526.0	1.4407578154958845e+18
14527.0	1.4404525053968381e+18
14528.0	1.4400725534638075e+18
14529.0	1.4399501183746045e+18
14530.0	1.439678946554675e+18
14531.0	1.4394306907340797e+18
14532.0	1.4390009222135803e+18
14533.0	1.4388926336729085e+18
14534.0	1.438626562126643e+18
14535.0	1.4383490770403325e+18
14536.0	1.4380919678828541e+18
14537.0	1.4378163702333437e+18
14538.0	1.4375658444554237e+18
14539.0	1.4373008734945275e+18
14540.0	1.4370357632827392e+18
14541.0	1.436748174956953e+18
14542.0	1.4365054891720701e+18
14543.0	1.436157625342361e+18
14544.0	1.4359749751472125e+18
14545.0	1.4357035013373947e+18
14546.0	1.421140506234056e+18
14547.0	1.4220157433937853e+18
14548.0	1.4348988543139837e+18
14549.0	1.4345055426838525e+18
14550.0	1.4343767960059901e+18
14551.0	1.4341213545037821e+18
14552.0	1.4338537025437693e+18
14553.0	1.4335807204622336e+18
14554.0	1.4333274381877245e+18
14555.0	1.433062234023526e+18
14556.0	1.4327952397303803e+18
14557.0	1.4325333926871037e+18
14558.0	1.4322682455654397e+18
14559.0	1.4296370898796524e+18
14560.0	1.4317363004440573e+18
14561.0	1.4314663214841853e+18
14562.0	1.4311842193080315e+18
14563.0	1.4309446792511488e+18
14564.0	1.4306762807050237e+18
14565.0	1.4304173428310013e+18
14566.0	1.4301529171296253e+18
14567.0	1.4298882481586173e+18
14568.0	1.429613950743347e+18
14569.0	1.4293593766232064e+18
14570.0	1.4284392318894075e+18
14571.0	1.4288269332185085e+18
14572.0	1.4285192357216253e+18
14573.0	1.4282451849314304e+18
14574.0	1.428024183698227e+18
14575.0	1.427771829203763e+18
14576.0	1.4275064639782907e+18
14577.0	1.4272366091698176e+18
14578.0	1.4269772652871675e+18
14579.0	1.4267154836750336e+18
14580.0	1.426451492503552e+18
14581.0	1.4261830671138813e+18
14582.0	1.4259225756696573e+18
14583.0	1.4256585391996925e+18
14584.0	1.425381822509875e+18
14585.0	1.4251297129627648e+18
14586.0	1.4248612909285376e+18
14587.0	1.4245985630814208e+18
14588.0	1.4243364543135741e+18
14589.0	1.4240790364553213e+18
14590.0	1.4238214206259197e+18
14591.0	1.4235630749876221e+18
14592.0	1.4232999159660541e+18
14593.0	1.4229067754635264e+18
14594.0	1.4227898030358525e+18
14595.0	1.4225259091722237e+18
14596.0	1.422232294470451e+18
14597.0	1.421975452070707e+18
14598.0	1.4217453189988347e+18
14599.0	1.4214332141273083e+18
14600.0	1.420711188181811e+18
14601.0	1.4204539414511613e+18
14602.0	1.4201921162182653e+18
14603.0	1.4199377769791485e+18
14604.0	1.4196290778824704e+18
14605.0	1.4194131064586237e+18
14606.0	1.419080216294195e+18
14607.0	1.4188837282512893e+18
14608.0	1.4186431144525821e+18
14609.0	1.4183812707647485e+18
14610.0	1.4181153049149437e+18
14611.0	1.4178684365701117e+18
14612.0	1.417614696277606e+18
14613.0	1.4173569730740221e+18
14614.0	1.4170942687150075e+18
14615.0	1.4168394999791613e+18
14616.0	1.416582097220403e+18
14617.0	1.416323384161075e+18
14618.0	1.4160647851868157e+18
14619.0	1.4157795876143101e+18
14620.0	1.4154685145415675e+18
14621.0	1.4152901861572608e+18
14622.0	1.415028330725376e+18
14623.0	1.414773261677363e+18
14624.0	1.4144448359301117e+18
14625.0	1.4142529448443904e+18
14626.0	1.4139942334627835e+18
14627.0	1.4137305174376445e+18
14628.0	1.4134801762091003e+18
14629.0	1.4132215252254717e+18
14630.0	1.4129618055331837e+18
14631.0	1.4127032015257597e+18
14632.0	1.4116234282926083e+18
14633.0	1.4120504302501883e+18
14634.0	1.4119239837286397e+18
14635.0	1.4115765712060413e+18
14636.0	1.4112299455348736e+18
14637.0	1.4111500272664576e+18
14638.0	1.4108890979368957e+18
14639.0	1.4106188102762493e+18
14640.0	1.4103674204717053e+18
14641.0	1.4068178632048622e+18
14642.0	1.4098472311455741e+18
14643.0	1.4095940277239808e+18
14644.0	1.4093231042068477e+18
14645.0	1.4090463388631037e+18
14646.0	1.4088075504254973e+18
14647.0	1.408544787346227e+18
