# Flux units: erg / (cm m2 s)
# Wavelength units: Angstrom
wave	flux
14000.0	1.9401858837643261e+18
14001.0	1.9396510647058432e+18
14002.0	1.9392633986088955e+18
14003.0	1.9388018657853437e+18
14004.0	1.938340822856499e+18
14005.0	1.9378769177346045e+18
14006.0	1.9374049444495355e+18
14007.0	1.936937425515315e+18
14008.0	1.9363505064902656e+18
14009.0	1.9360202839031805e+18
14010.0	1.935536125326131e+18
14011.0	1.9343354370195459e+18
14012.0	1.9346277330321405e+18
14013.0	1.93416892818391e+18
14014.0	1.9336970975051768e+18
14015.0	1.933241572602675e+18
14016.0	1.9327830949101565e+18
14017.0	1.9323195404320765e+18
14018.0	1.9318560211861504e+18
14019.0	1.9313983068569597e+18
14020.0	1.9309340896788477e+18
14021.0	1.9304738235351037e+18
14022.0	1.9300136161116155e+18
14023.0	1.9295330143043581e+18
14024.0	1.92907196802007e+18
14025.0	1.9286308950114304e+18
14026.0	1.9281688454496253e+18
14027.0	1.927702682114457e+18
14028.0	1.9272353544404987e+18
14029.0	1.9267759170912253e+18
14030.0	1.9259992225873923e+18
14031.0	1.925837589210726e+18
14032.0	1.925403022406451e+18
14033.0	1.924884118215065e+18
14034.0	1.9244852399046653e+18
14035.0	1.9240207928786941e+18
14036.0	1.9235671319248893e+18
14037.0	1.923103453295411e+18
14038.0	1.92264864310231e+18
14039.0	1.9221840635363328e+18
14040.0	1.9217124257955837e+18
14041.0	1.9212673430323197e+18
14042.0	1.9208016729473021e+18
14043.0	1.920303275547033e+18
14044.0	1.9198848031260672e+18
14045.0	1.9194349237567483e+18
14046.0	1.9189723910111232e+18
14047.0	1.918506034737971e+18
14048.0	1.9180589487751165e+18
14049.0	1.9176032913326075e+18
14050.0	1.917144479773491e+18
14051.0	1.9166715535425528e+18
14052.0	1.916225113502515e+18
14053.0	1.9157725564895232e+18
14054.0	1.9153179627225088e+18
14055.0	1.9148563544014845e+18
14056.0	1.914404681547776e+18
14057.0	1.9139451619901437e+18
14058.0	1.9134916067327997e+18
14059.0	1.9130357127315453e+18
14060.0	1.9125798824837117e+18
14061.0	1.9121150361599997e+18
14062.0	1.9116678646333435e+18
14063.0	1.9111908833492987e+18
14064.0	1.910712237765427e+18
14065.0	1.9102912319848443e+18
14066.0	1.909842664593817e+18
14067.0	1.9093820931047421e+18
14068.0	1.9089366966075387e+18
14069.0	1.9084748718604283e+18
14070.0	1.9080205968605181e+18
14071.0	1.90756260235182e+18
14072.0	1.907110261764915e+18
14073.0	1.906657333975449e+18
14074.0	1.906202159716761e+18
14075.0	1.9057247204147197e+18
14076.0	1.9052841893101563e+18
14077.0	1.9047602452430843e+18
14078.0	1.9043783723188221e+18
14079.0	1.9039196446457853e+18
14080.0	1.903481098285875e+18
14081.0	1.9030275547725821e+18
14082.0	1.9025388042715133e+18
14083.0	1.9021175837425661e+18
14084.0	1.9016688502571003e+18
14085.0	1.9008588949225472e+18
14086.0	1.9007543275683837e+18
14087.0	1.900311214450278e+18
14088.0	1.8998436737056765e+18
14089.0	1.89939370206167e+18
14090.0	1.8989507013509115e+18
14091.0	1.898502751361433e+18
14092.0	1.8980488488157181e+18
14093.0	1.8975989711241216e+18
14094.0	1.8971415956946941e+18
14095.0	1.8966899832389632e+18
14096.0	1.8962208033603581e+18
14097.0	1.8957586799788027e+18
14098.0	1.8953236652228603e+18
14099.0	1.8948848739155965e+18
14100.0	1.894415460833689e+18
14101.0	1.8939843031597053e+18
14102.0	1.89353031672791e+18
14103.0	1.8930660844503035e+18
14104.0	1.8926291067600893e+18
14105.0	1.8921739627003904e+18
14106.0	1.8917329232461821e+18
14107.0	1.891256233885696e+18
14108.0	1.8908149729722363e+18
14109.0	1.8903772285632507e+18
14110.0	1.889897046186393e+18
14111.0	1.8894011636908032e+18
14112.0	1.8890242400452608e+18
14113.0	1.888579860247347e+18
14114.0	1.8881167688204283e+18
14115.0	1.887686325855846e+18
14116.0	1.8871396587274237e+18
14117.0	1.8862685286301699e+18
14118.0	1.8863403065933821e+18
14119.0	1.8858795337777147e+18
14120.0	1.8854387090718717e+18
14121.0	1.8849634675851261e+18
14122.0	1.8845313485766653e+18
14123.0	1.8840725521170432e+18
14124.0	1.8836286269816827e+18
14125.0	1.882584798933811e+18
14126.0	1.8827500964544507e+18
14127.0	1.8823075269181437e+18
14128.0	1.8818585786843133e+18
14129.0	1.8813976112529403e+18
14130.0	1.880933373942169e+18
14131.0	1.880519825634099e+18
14132.0	1.8800650657726461e+18
14133.0	1.8789093437603812e+18
14134.0	1.8791796532314107e+18
14135.0	1.878714947836313e+18
14136.0	1.8782470514147325e+18
14137.0	1.8778415310045181e+18
14138.0	1.8773883096137725e+18
14139.0	1.876950011556659e+18
14140.0	1.8764398264844283e+18
14141.0	1.8760588326862843e+18
14142.0	1.8755419031732221e+18
14143.0	1.8750627307847677e+18
14144.0	1.874724260518297e+18
14145.0	1.87427787416535e+18
14146.0	1.8738314894901245e+18
14147.0	1.8733877942026235e+18
14148.0	1.8729424748806141e+18
14149.0	1.8724964056170493e+18
14150.0	1.8720557839155192e+18
14151.0	1.8716012606128125e+18
14152.0	1.871165974065971e+18
14153.0	1.8707184015638525e+18
14154.0	1.8702391956209661e+18
14155.0	1.869624525402931e+18
14156.0	1.8693779439484925e+18
14157.0	1.8689422463598587e+18
14158.0	1.868491110377062e+18
14159.0	1.8680555402952704e+18
14160.0	1.8676129623703547e+18
14161.0	1.8670809048416253e+18
14162.0	1.8665855994822653e+18
14163.0	1.8662846564925437e+18
14164.0	1.8658112890208256e+18
14165.0	1.8647362905833472e+18
14166.0	1.864949728647577e+18
14167.0	1.8644975004680187e+18
14168.0	1.86406651559936e+18
14169.0	1.8636334000242688e+18
14170.0	1.8631861077016576e+18
14171.0	1.8627400350826493e+18
14172.0	1.8623088019111933e+18
14173.0	1.861567399958937e+18
14174.0	1.8614210254602237e+18
14175.0	1.8609851567439872e+18
14176.0	1.8605411426893821e+18
14177.0	1.860101534331699e+18
14178.0	1.8596545305772032e+18
14179.0	1.859157299193446e+18
14180.0	1.8587816086732797e+18
14181.0	1.85834006422487e+18
14182.0	1.857899818332979e+18
14183.0	1.8574602284302333e+18
14184.0	1.857013204543078e+18
14185.0	1.856579359159091e+18
14186.0	1.8560155406827515e+18
14187.0	1.85566955086807e+18
14188.0	1.8552537812566016e+18
14189.0	1.8548056098078715e+18
14190.0	1.8543728582983675e+18
14191.0	1.853932459733811e+18
14192.0	1.853477594175897e+18
14193.0	1.8530359457087488e+18
14194.0	1.8526116885037053e+18
14195.0	1.8521753298927613e+18
14196.0	1.8517364463108093e+18
14197.0	1.851295878296371e+18
14198.0	1.8508531325992955e+18
14199.0	1.85040494437335e+18
14200.0	1.849924282168115e+18
14201.0	1.8495458502508541e+18
14202.0	1.8491062771253245e+18
14203.0	1.848598571725619e+18
14204.0	1.848229219637657e+18
14205.0	1.847792510382899e+18
14206.0	1.8471921997840384e+18
14207.0	1.8469218248818688e+18
14208.0	1.8464848220258296e+18
14209.0	1.8458561042448381e+18
14210.0	1.8455022425604088e+18
14211.0	1.8451648443580413e+18
14212.0	1.8447367938244605e+18
14213.0	1.8442981149245437e+18
14214.0	1.8438651033681917e+18
14215.0	1.8434095918874621e+18
14216.0	1.8429910875897853e+18
14217.0	1.8425581750190077e+18
14218.0	1.8421061951422461e+18
14219.0	1.8416841273638912e+18
14220.0	1.8412515251716093e+18
14221.0	1.8408138126393341e+18
14222.0	1.84035128157143e+18
14223.0	1.839944882035097e+18
14224.0	1.8395112966979581e+18
14225.0	1.8389119709216768e+18
14226.0	1.8386419751845883e+18
14227.0	1.8382058833313787e+18
14228.0	1.8373789293215741e+18
14229.0	1.8372869197135864e+18
14230.0	1.8368973292699643e+18
14231.0	1.8364480337477627e+18
14232.0	1.8360305478270976e+18
14233.0	1.8355837504323581e+18
14234.0	1.83516292752343e+18
14235.0	1.834725562279526e+18
14236.0	1.8342922420223997e+18
14237.0	1.8338583546953725e+18
14238.0	1.8334274402910203e+18
14239.0	1.8329874242469885e+18
14240.0	1.8307339018829834e+18
14241.0	1.832129041478451e+18
14242.0	1.8316977764302845e+18
14243.0	1.8310580142079997e+18
14244.0	1.8308331542151165e+18
14245.0	1.8303716029366264e+18
14246.0	1.8299216262594555e+18
14247.0	1.8295282659753981e+18
14248.0	1.8290858910547965e+18
14249.0	1.8286657895661563e+18
14250.0	1.828237581326745e+18
14251.0	1.827807200437862e+18
14252.0	1.8273761316831224e+18
14253.0	1.82694557295575e+18
14254.0	1.8265118416568317e+18
14255.0	1.8260446448451581e+18
14256.0	1.825516380644966e+18
14257.0	1.825215199418777e+18
14258.0	1.8247916032360443e+18
14259.0	1.8243337915990008e+18
14260.0	1.8239233101660152e+18
14261.0	1.8234691995828221e+18
14262.0	1.82307318178775e+18
14263.0	1.8224372481261565e+18
14264.0	1.8221761476689915e+18
14265.0	1.8217723586674685e+18
14266.0	1.821351154915737e+18
14267.0	1.8209225322790907e+18
14268.0	1.820491817523609e+18
14269.0	1.8200519625408512e+18
14270.0	1.8196360218017787e+18
14271.0	1.8191938414968827e+18
14272.0	1.818777488038297e+18
14273.0	1.8183483050426363e+18
14274.0	1.8176116980187133e+18
14275.0	1.8174650164969472e+18
14276.0	1.8169913889783803e+18
14277.0	1.816592718705459e+18
14278.0	1.8162015595921403e+18
14279.0	1.8157710478409725e+18
14280.0	1.8153330031198203e+18
14281.0	1.8149157034262528e+18
14282.0	1.8144882904268797e+18
14283.0	1.814060533494579e+18
14284.0	1.813632940978995e+18
14285.0	1.8132054659039232e+18
14286.0	1.8127753047965693e+18
14287.0	1.8123486048288765e+18
14288.0	1.8119217807097856e+18
14289.0	1.8103267959504855e+18
14290.0	1.8110540328992763e+18
14291.0	1.8106407161167864e+18
14292.0	1.8102134339796987e+18
14293.0	1.8097873178591232e+18
14294.0	1.809181274485555e+18
14295.0	1.8089155267395581e+18
14296.0	1.8075613168402437e+18
14297.0	1.8080854169354237e+18
14298.0	1.8074585480036347e+18
14299.0	1.807210961593958e+18
14300.0	1.8067936551895035e+18
14301.0	1.806364911756902e+18
14302.0	1.8059502863515645e+18
14303.0	1.805482519114547e+18
14304.0	1.8050839025287163e+18
14305.0	1.8046718406819837e+18
14306.0	1.804104597975859e+18
14307.0	1.8037987208069115e+18
14308.0	1.8034061675069437e+18
14309.0	1.8029756104572923e+18
14310.0	1.8018883428417528e+18
14311.0	1.802015423542067e+18
14312.0	1.8016596341555197e+18
14313.0	1.8011973446795261e+18
14314.0	1.8008582922436605e+18
14315.0	1.800435873821491e+18
14316.0	1.7999445513732093e+18
14317.0	1.799500716834816e+18
14318.0	1.7991658285039613e+18
14319.0	1.7987432758640637e+18
14320.0	1.7983198491312125e+18
14321.0	1.7978908892725243e+18
14322.0	1.7974109015113725e+18
14323.0	1.797033586956697e+18
14324.0	1.7966277091917821e+18
14325.0	1.7961920485130237e+18
14326.0	1.795783686042419e+18
14327.0	1.7953501342597117e+18
14328.0	1.794927643695513e+18
14329.0	1.7945169995235325e+18
14330.0	1.7940936264777725e+18
14331.0	1.7936685941653504e+18
14332.0	1.793249076523827e+18
14333.0	1.7928269382811648e+18
14334.0	1.7924020720631803e+18
14335.0	1.7919419502034944e+18
14336.0	1.791516542081433e+18
14337.0	1.791133175984947e+18
14338.0	1.7907129822216187e+18
14339.0	1.7902794354720765e+18
14340.0	1.789874916661657e+18
14341.0	1.7894505487269885e+18
14342.0	1.789027643765555e+18
14343.0	1.7885807675179005e+18
14344.0	1.7881708296667133e+18
14345.0	1.7877708591595523e+18
14346.0	1.7873499825635325e+18
14347.0	1.7869146641399805e+18
14348.0	1.786508824962662e+18
14349.0	1.7860932298342397e+18
14350.0	1.785659683084697e+18
14351.0	1.785232359004569e+18
14352.0	1.7848217651642365e+18
14353.0	1.7844122735869947e+18
14354.0	1.7839911084228603e+18
14355.0	1.7835724581634043e+18
14356.0	1.7831550074748928e+18
14357.0	1.782738830177075e+18
14358.0	1.782320044022169e+18
14359.0	1.7818791756955648e+18
14360.0	1.7814811312128e+18
14361.0	1.7810641603526656e+18
14362.0	1.7806448440377344e+18
14363.0	1.7802274453585915e+18
14364.0	1.7797611645829117e+18
14365.0	1.7793864152645627e+18
14366.0	1.7789643256758272e+18
14367.0	1.7785543542702077e+18
14368.0	1.7781362593366013e+18
14369.0	1.7777212933537787e+18
14370.0	1.777303788978176e+18
14371.0	1.7768865933033464e+18
14372.0	1.776460440272896e+18
14373.0	1.776052176787865e+18
14374.0	1.7756326524354555e+18
14375.0	1.7752153594527741e+18
14376.0	1.7748000176603133e+18
14377.0	1.7743847966638077e+18
14378.0	1.7739655843676155e+18
14379.0	1.773552824588697e+18
14380.0	1.773135987946291e+18
14381.0	1.772703142484377e+18
14382.0	1.7723016418951165e+18
14383.0	1.7718403607298048e+18
14384.0	1.7714403952558075e+18
14385.0	1.7710571969314813e+18
14386.0	1.770616539997798e+18
14387.0	1.770223798793011e+18
14388.0	1.7698045328097275e+18
14389.0	1.7693950160666621e+18
14390.0	1.7689774714257403e+18
14391.0	1.768563658037657e+18
14392.0	1.768125484131942e+18
14393.0	1.7677361235361787e+18
14394.0	1.7672700105326587e+18
14395.0	1.7668761033113597e+18
14396.0	1.7664916886388733e+18
14397.0	1.7660763468464125e+18
14398.0	1.7656415954927616e+18
14399.0	1.7652412357541888e+18
14400.0	1.7647965254451197e+18
14401.0	1.7644084768276475e+18
14402.0	1.7639977219260408e+18
14403.0	1.7542875575222103e+18
14404.0	1.7391298646376407e+18
14405.0	1.7611512440946606e+18
14406.0	1.7623462969343997e+18
14407.0	1.7471785729523791e+18
14408.0	1.7614903032414203e+18
14409.0	1.761083831563059e+18
14410.0	1.760688853955379e+18
14411.0	1.7602823990542333e+18
14412.0	1.7598648040816637e+18
14413.0	1.7594567704444925e+18
14414.0	1.759043748941004e+18
14415.0	1.7586331467120635e+18
14416.0	1.7582165701165053e+18
14417.0	1.7577764668309504e+18
14418.0	1.7573277853548541e+18
14419.0	1.7569845050605563e+18
14420.0	1.756566227255296e+18
14421.0	1.7561619231932413e+18
14422.0	1.75574390711255e+18
14423.0	1.7553284277469181e+18
14424.0	1.7044586908090056e+18
14425.0	1.7545102666760187e+18
14426.0	1.7541055297617917e+18
14427.0	1.7536958200807421e+18
14428.0	1.7532393371992061e+18
14429.0	1.7528718540931072e+18
14430.0	1.7524646760939515e+18
14431.0	1.751979037766451e+18
14432.0	1.751592327970816e+18
14433.0	1.7400404044152753e+18
14434.0	1.750802949891686e+18
14435.0	1.750390012274278e+18
14436.0	1.750003411530547e+18
14437.0	1.7495925878423547e+18
14438.0	1.7488466560417795e+18
14439.0	1.748695721495756e+18
14440.0	1.7483636752252923e+18
14441.0	1.7479465701474296e+18
14442.0	1.747531278686617e+18
14443.0	1.747071874891776e+18
14444.0	1.7467210616274941e+18
14445.0	1.7463182171832315e+18
14446.0	1.7341068164988984e+18
14447.0	1.7454843291500541e+18
14448.0	1.7450932824440827e+18
14449.0	1.744684898163097e+18
14450.0	1.7442677544976381e+18
14451.0	1.7438629001428987e+18
14452.0	1.7434522190610427e+18
14453.0	1.7428194764259325e+18
14454.0	1.7426404333322235e+18
14455.0	1.742223932234137e+18
14456.0	1.7417787655847933e+18
14457.0	1.741341385241395e+18
14458.0	1.740991595387289e+18
14459.0	1.7405634961997821e+18
14460.0	1.7401957815681021e+18
14461.0	1.739765618783027e+18
14462.0	1.7392955144798205e+18
14463.0	1.738969096965324e+18
14464.0	1.7385675963760637e+18
14465.0	1.7381369151750144e+18
14466.0	1.737747799526605e+18
14467.0	1.7371771929886723e+18
14468.0	1.7369240835194875e+18
14469.0	1.7365104966238205e+18
14470.0	1.7360873047719933e+18
14471.0	1.7356959644647421e+18
14472.0	1.735300243626393e+18
14473.0	1.7349096650047485e+18
14474.0	1.7345063172440061e+18
14475.0	1.734084788014284e+18
14476.0	1.732930515553485e+18
14477.0	1.7332835065004032e+18
14478.0	1.7328726593241088e+18
14479.0	1.7324616376647675e+18
14480.0	1.7320463931801597e+18
14481.0	1.7316650772594685e+18
14482.0	1.7312555991039995e+18
14483.0	1.7308390443188221e+18
14484.0	1.7304436741242877e+18
14485.0	1.7299847501578237e+18
14486.0	1.7292407057940477e+18
14487.0	1.7292363504287736e+18
14488.0	1.7288097477689341e+18
14489.0	1.7284197362171904e+18
14490.0	1.7280081206444027e+18
14491.0	1.727617686306816e+18
14492.0	1.7272160900874237e+18
14493.0	1.7268013338198013e+18
14494.0	1.7263807072043005e+18
14495.0	1.7260047163719677e+18
14496.0	1.7254191596568576e+18
14497.0	1.72519445233664e+18
14498.0	1.7247904267763707e+18
14499.0	1.7243918772994043e+18
14500.0	1.7239887308652544e+18
14501.0	1.7232343316037632e+18
14502.0	1.7225665765965824e+18
14503.0	1.7227434906615803e+18
14504.0	1.7223688067743736e+18
14505.0	1.7216528827023352e+18
14506.0	1.7208111664201725e+18
14507.0	1.7208439155458048e+18
14508.0	1.7207681412497405e+18
14509.0	1.720365167620915e+18
14510.0	1.7199610296532987e+18
14511.0	1.7195628694077437e+18
14512.0	1.7191368304623613e+18
14513.0	1.7187591870742525e+18
14514.0	1.718246664935833e+18
14515.0	1.717947216796057e+18
14516.0	1.7147351047077914e+18
14517.0	1.717152845817446e+18
14518.0	1.7167512680529915e+18
14519.0	1.7163485108502525e+18
14520.0	1.7159486594613248e+18
14521.0	1.715539156140032e+18
14522.0	1.7151440409591803e+18
14523.0	1.713980096433356e+18
14524.0	1.7135182901411827e+18
14525.0	1.7139348516372477e+18
14526.0	1.7135383355588605e+18
14527.0	1.713086216431206e+18
14528.0	1.712552971075584e+18
14529.0	1.7123267588390907e+18
14530.0	1.7119124505231357e+18
14531.0	1.7115374277361661e+18
14532.0	1.7098763239686141e+18
14533.0	1.7107395771629565e+18
14534.0	1.7103415008034808e+18
14535.0	1.709924331972198e+18
14536.0	1.7095359377440765e+18
14537.0	1.7091214650114048e+18
14538.0	1.7087409191649277e+18
14539.0	1.708342354588467e+18
14540.0	1.7079449375735803e+18
14541.0	1.707512573617766e+18
14542.0	1.707141475021619e+18
14543.0	1.7062395620884475e+18
14544.0	1.7063463020920827e+18
14545.0	1.7059336631091197e+18
14546.0	1.6594501833326382e+18
14547.0	1.6636190899830513e+18
14548.0	1.704734912570982e+18
14549.0	1.7041935604645885e+18
14550.0	1.7039456485769213e+18
14551.0	1.703560353100595e+18
14552.0	1.7031523077193725e+18
14553.0	1.70274505925591e+18
14554.0	1.7023654260899837e+18
14555.0	1.7019659958091776e+18
14556.0	1.701549499744256e+18
14557.0	1.7011735290445821e+18
14558.0	1.7007756892438525e+18
14559.0	1.6982707502317496e+18
14560.0	1.6999507602440187e+18
14561.0	1.6995743147491325e+18
14562.0	1.6991522134163453e+18
14563.0	1.6987872452149248e+18
14564.0	1.698383041816166e+18
14565.0	1.6979934362730493e+18
14566.0	1.6975936704479232e+18
14567.0	1.6971941311152125e+18
14568.0	1.6967665033674747e+18
14569.0	1.6963998373117947e+18
14570.0	1.6954048930381821e+18
14571.0	1.6956021125677053e+18
14572.0	1.6951523690938368e+18
14573.0	1.6947487109545984e+18
14574.0	1.6943943291764728e+18
14575.0	1.6940179642122237e+18
14576.0	1.6936202015866875e+18
14577.0	1.6932171423940603e+18
14578.0	1.6928306658017277e+18
14579.0	1.6924368927981565e+18
14580.0	1.692042455416832e+18
14581.0	1.691615310852915e+18
14582.0	1.691251018773299e+18
14583.0	1.6908556821331963e+18
14584.0	1.690445133591347e+18
14585.0	1.690064398162329e+18
14586.0	1.6896646356926461e+18
14587.0	1.689257726128947e+18
14588.0	1.68887361512407e+18
14589.0	1.6884994379087872e+18
14590.0	1.688122250860953e+18
14591.0	1.6877387891343357e+18
14592.0	1.6873551277588477e+18
14593.0	1.6868303414755325e+18
14594.0	1.6866058153492472e+18
14595.0	1.6862200752766968e+18
14596.0	1.685756327860633e+18
14597.0	1.6854332523675643e+18
14598.0	1.6850913377386493e+18
14599.0	1.684720702193664e+18
14600.0	1.684342914521497e+18
14601.0	1.683964615144243e+18
14602.0	1.683560920095129e+18
14603.0	1.6832081472520187e+18
14604.0	1.68277632352256e+18
14605.0	1.6824440658591744e+18
14606.0	1.681987343063449e+18
14607.0	1.681698533356339e+18
14608.0	1.6813159759216635e+18
14609.0	1.6808682843013115e+18
14610.0	1.6805475743956987e+18
14611.0	1.6801887533662203e+18
14612.0	1.6798146768142333e+18
14613.0	1.6794406069731325e+18
14614.0	1.679058777669632e+18
14615.0	1.6786793223421952e+18
14616.0	1.6783097387286523e+18
14617.0	1.6779317010759675e+18
14618.0	1.6775307793006587e+18
14619.0	1.6771588267442166e+18
14620.0	1.6766904639160315e+18
14621.0	1.6764264006025216e+18
14622.0	1.6760452172218363e+18
14623.0	1.6756722496438267e+18
14624.0	1.6752167331299325e+18
14625.0	1.6749148220948477e+18
14626.0	1.6745188076552187e+18
14627.0	1.674120494736998e+18
14628.0	1.673790433211187e+18
14629.0	1.6734139424178168e+18
14630.0	1.6730363896266747e+18
14631.0	1.672652937966387e+18
14632.0	1.6672222403887135e+18
14633.0	1.671427718014564e+18
14634.0	1.671517170774835e+18
14635.0	1.670977355461426e+18
14636.0	1.670100698949222e+18
14637.0	1.670403490788147e+18
14638.0	1.670022186611507e+18
14639.0	1.6696379984314365e+18
14640.0	1.6692676833312765e+18
14641.0	1.6506863042428782e+18
14642.0	1.668514342712115e+18
14643.0	1.6681450023682043e+18
14644.0	1.6677529641287677e+18
14645.0	1.6673583237431296e+18
14646.0	1.6669957244846075e+18
14647.0	1.6666224800825341e+18
14648.0	1.666262127293235e+18
