# Flux units: erg / (cm m2 s)
# Wavelength units: Angstrom
wave	flux
14000.0	2.017782524385689e+18
14001.0	2.017324184266342e+18
14002.0	2.0168710299844605e+18
14003.0	2.016415443006259e+18
14004.0	2.0159599499804672e+18
14005.0	2.0155045509070845e+18
14006.0	2.0150490008387584e+18
14007.0	2.0145939238879224e+18
14008.0	2.0141351710490621e+18
14009.0	2.0136841541844987e+18
14010.0	2.013229397678489e+18
14011.0	2.0127517939597307e+18
14012.0	2.0123201967226877e+18
14013.0	2.011865794215936e+18
14014.0	2.0114114873393147e+18
14015.0	2.010957225761177e+18
14016.0	2.010503269528371e+18
14017.0	2.01004934013911e+18
14018.0	2.0095955013468163e+18
14019.0	2.0091418454261755e+18
14020.0	2.0086882532589563e+18
14021.0	2.008234775176806e+18
14022.0	2.0077814766108664e+18
14023.0	2.0073280606044155e+18
14024.0	2.0068747821711355e+18
14025.0	2.0064223258214392e+18
14026.0	2.00596937286615e+18
14027.0	2.0055167420334077e+18
14028.0	2.00506415817687e+18
14029.0	2.0046116431069181e+18
14030.0	2.0041456810983421e+18
14031.0	2.0037068663029755e+18
14032.0	2.0032550005112832e+18
14033.0	2.002790902451404e+18
14034.0	2.0023288528895992e+18
14035.0	2.00187708440576e+18
14036.0	2.0014253998079997e+18
14037.0	2.000973849427968e+18
14038.0	2.0005224097775608e+18
14039.0	2.000071095956275e+18
14040.0	1.999619901253222e+18
14041.0	1.9991688239906808e+18
14042.0	1.9987176460648445e+18
14043.0	1.998266068841267e+18
14044.0	1.9978159092924416e+18
14045.0	1.997365734644121e+18
14046.0	1.996915259683635e+18
14047.0	1.9964648535097344e+18
14048.0	1.9960146486624253e+18
14049.0	1.995564559577907e+18
14050.0	1.9951145745121277e+18
14051.0	1.9946487920197627e+18
14052.0	1.994192986937753e+18
14053.0	1.9937433005064187e+18
14054.0	1.9932937399042045e+18
14055.0	1.992844288353894e+18
14056.0	1.9923949676658683e+18
14057.0	1.991945756029747e+18
14058.0	1.9914966702227453e+18
14059.0	1.991047695145369e+18
14060.0	1.9905988526079992e+18
14061.0	1.9901498758529021e+18
14062.0	1.9897015148216323e+18
14063.0	1.9892523853938683e+18
14064.0	1.9888024791810043e+18
14065.0	1.9883560777285627e+18
14066.0	1.987908263634534e+18
14067.0	1.987460256602521e+18
14068.0	1.9870123670110205e+18
14069.0	1.9865645394952187e+18
14070.0	1.986114985603891e+18
14071.0	1.9856477049061373e+18
14072.0	1.9852003303751675e+18
14073.0	1.9847529843654656e+18
14074.0	1.984305754118553e+18
14075.0	1.983858624534937e+18
14076.0	1.983411642590822e+18
14077.0	1.98296189576151e+18
14078.0	1.9825177525223424e+18
14079.0	1.982071092700774e+18
14080.0	1.9816248405655547e+18
14081.0	1.981178440790835e+18
14082.0	1.9807316400406525e+18
14083.0	1.9802859314872315e+18
14084.0	1.979839932687974e+18
14085.0	1.9793838977581053e+18
14086.0	1.978947935089459e+18
14087.0	1.9785025050378237e+18
14088.0	1.9780568786927616e+18
14089.0	1.9776114536742907e+18
14090.0	1.9771660622102525e+18
14091.0	1.9767209089826816e+18
14092.0	1.9762758178308096e+18
14093.0	1.9758195564085243e+18
14094.0	1.9753646354857981e+18
14095.0	1.9749198362574843e+18
14096.0	1.9744744565374973e+18
14097.0	1.9740305381130237e+18
14098.0	1.9735857674059773e+18
14099.0	1.9731417986498555e+18
14100.0	1.972697145383321e+18
14101.0	1.9722534920388605e+18
14102.0	1.971809498116915e+18
14103.0	1.9713651132858365e+18
14104.0	1.9709219011821565e+18
14105.0	1.970478194150604e+18
14106.0	1.970034753876787e+18
14107.0	1.9695911475085307e+18
14108.0	1.9691480897552384e+18
14109.0	1.9687047199457277e+18
14110.0	1.9682612561838077e+18
14111.0	1.967817753834291e+18
14112.0	1.967376075168153e+18
14113.0	1.9669334368452603e+18
14114.0	1.9664908572426235e+18
14115.0	1.9660483464265725e+18
14116.0	1.965604318950195e+18
14117.0	1.9651397477728248e+18
14118.0	1.9647085213122552e+18
14119.0	1.9642583483416573e+18
14120.0	1.963816438149939e+18
14121.0	1.9633746688868347e+18
14122.0	1.9629327301738493e+18
14123.0	1.9624910229864445e+18
14124.0	1.9620495339028477e+18
14125.0	1.9615905981923325e+18
14126.0	1.9611676546433021e+18
14127.0	1.960719624123187e+18
14128.0	1.9602598529073147e+18
14129.0	1.959819031556915e+18
14130.0	1.9593782756376573e+18
14131.0	1.9589376304480253e+18
14132.0	1.9584970959880187e+18
14133.0	1.9580353266057216e+18
14134.0	1.9576163743563773e+18
14135.0	1.957175594949017e+18
14136.0	1.956734817219379e+18
14137.0	1.9562961450303488e+18
14138.0	1.9558560367116283e+18
14139.0	1.955416621291929e+18
14140.0	1.9549760331448317e+18
14141.0	1.9545374247092224e+18
14142.0	1.9540957544316928e+18
14143.0	1.9536579529801725e+18
14144.0	1.9532197757190141e+18
14145.0	1.9527764226867197e+18
14146.0	1.9523210923999227e+18
14147.0	1.9518822625050624e+18
14148.0	1.9514435416621053e+18
14149.0	1.9510049634254845e+18
14150.0	1.9505664472645627e+18
14151.0	1.950127957947187e+18
14152.0	1.9496897873969147e+18
14153.0	1.9492516168466427e+18
14154.0	1.948813567092326e+18
14155.0	1.9483725091831805e+18
14156.0	1.9479373702758397e+18
14157.0	1.947500100662067e+18
14158.0	1.9470623512199163e+18
14159.0	1.9466250346299387e+18
14160.0	1.946187417727795e+18
14161.0	1.9457480744501243e+18
14162.0	1.945309070072217e+18
14163.0	1.9448762027999227e+18
14164.0	1.9444385221443581e+18
14165.0	1.9439922565873661e+18
14166.0	1.943565675737907e+18
14167.0	1.943129315449241e+18
14168.0	1.94269268672512e+18
14169.0	1.9422565210521592e+18
14170.0	1.941820138953113e+18
14171.0	1.9413840739434496e+18
14172.0	1.9409481632841728e+18
14173.0	1.9405073972985853e+18
14174.0	1.9400762916339707e+18
14175.0	1.939640867513958e+18
14176.0	1.9392053158871037e+18
14177.0	1.9387583154880507e+18
14178.0	1.93831408500736e+18
14179.0	1.9378779696660477e+18
14180.0	1.93744384074711e+18
14181.0	1.937008810891673e+18
14182.0	1.9365738598891512e+18
14183.0	1.936139080014233e+18
14184.0	1.9357041977982973e+18
14185.0	1.935269803799347e+18
14186.0	1.934830918539673e+18
14187.0	1.934400968825241e+18
14188.0	1.933966690589081e+18
14189.0	1.933532447585075e+18
14190.0	1.933098528381337e+18
14191.0	1.9326646074998781e+18
14192.0	1.9322305356234747e+18
14193.0	1.9317964218040312e+18
14194.0	1.931363537754521e+18
14195.0	1.9309301671657464e+18
14196.0	1.9304967915438077e+18
14197.0	1.930063548461875e+18
14198.0	1.9296302449819643e+18
14199.0	1.9291972149706747e+18
14200.0	1.9287618478931965e+18
14201.0	1.9283316045774843e+18
14202.0	1.9278990460059643e+18
14203.0	1.9274653214179328e+18
14204.0	1.927033891953049e+18
14205.0	1.926601563229388e+18
14206.0	1.9261647013019645e+18
14207.0	1.925737298368921e+18
14208.0	1.9253052984786941e+18
14209.0	1.9248683191107581e+18
14210.0	1.9244379331887104e+18
14211.0	1.924009896076902e+18
14212.0	1.923578322327961e+18
14213.0	1.9231406668382205e+18
14214.0	1.92269557736407e+18
14215.0	1.9222638509424635e+18
14216.0	1.9218331563196416e+18
14217.0	1.921402084209459e+18
14218.0	1.9209711295397883e+18
14219.0	1.9205402738556925e+18
14220.0	1.9201095507116027e+18
14221.0	1.9196789013872637e+18
14222.0	1.9192483963469821e+18
14223.0	1.9188179953254397e+18
14224.0	1.9183877067112443e+18
14225.0	1.9179497609756672e+18
14226.0	1.9175274230841341e+18
14227.0	1.9170974767251453e+18
14228.0	1.9166500350853117e+18
14229.0	1.9162342738624507e+18
14230.0	1.9158082466611197e+18
14231.0	1.9153787230879741e+18
14232.0	1.914949305211289e+18
14233.0	1.9145199997419517e+18
14234.0	1.914090799969075e+18
14235.0	1.9136616169734144e+18
14236.0	1.913232710801817e+18
14237.0	1.91280381469655e+18
14238.0	1.9123750846857208e+18
14239.0	1.9119462288457728e+18
14240.0	1.9114609428398077e+18
14241.0	1.911089465078579e+18
14242.0	1.9106611528204283e+18
14243.0	1.9102268175417341e+18
14244.0	1.9098048286162944e+18
14245.0	1.9093768636465147e+18
14246.0	1.9089488818995197e+18
14247.0	1.908521171943424e+18
14248.0	1.90809294021591e+18
14249.0	1.9076658241732603e+18
14250.0	1.907238367553126e+18
14251.0	1.90681111897047e+18
14252.0	1.9063838821318653e+18
14253.0	1.9059567056912381e+18
14254.0	1.9055118947188733e+18
14255.0	1.905082070833561e+18
14256.0	1.9046486163587064e+18
14257.0	1.90422939902935e+18
14258.0	1.9038030329282555e+18
14259.0	1.9033765040881661e+18
14260.0	1.9029498611630075e+18
14261.0	1.9025242030604283e+18
14262.0	1.902108317686169e+18
14263.0	1.9016707209166843e+18
14264.0	1.9012538775633915e+18
14265.0	1.9008303199682555e+18
14266.0	1.9004045276479488e+18
14267.0	1.899978841024102e+18
14268.0	1.899553275196211e+18
14269.0	1.8991277244678141e+18
14270.0	1.8987024505634813e+18
14271.0	1.8982770273419261e+18
14272.0	1.897852047038873e+18
14273.0	1.8974269761388541e+18
14274.0	1.896984708592435e+18
14275.0	1.89657568509952e+18
14276.0	1.896151699685376e+18
14277.0	1.89572754482135e+18
14278.0	1.895303369824665e+18
14279.0	1.8948789213593592e+18
14280.0	1.894454392363417e+18
14281.0	1.894030474058137e+18
14282.0	1.8936063980470272e+18
14283.0	1.8931824176660477e+18
14284.0	1.8927585429815293e+18
14285.0	1.892334760571699e+18
14286.0	1.8919110536593403e+18
14287.0	1.8914875480735741e+18
14288.0	1.8910640810754045e+18
14289.0	1.8906042997932027e+18
14290.0	1.890217264519577e+18
14291.0	1.8897943142596605e+18
14292.0	1.889371315345817e+18
14293.0	1.8889482912661504e+18
14294.0	1.8885201182588928e+18
14295.0	1.8881028303093755e+18
14296.0	1.8876507128594427e+18
14297.0	1.8872576864419837e+18
14298.0	1.8868289161658363e+18
14299.0	1.886412829464985e+18
14300.0	1.885990808662835e+18
14301.0	1.8855686418989053e+18
14302.0	1.88514489639895e+18
14303.0	1.8847056789503992e+18
14304.0	1.8842833679024125e+18
14305.0	1.8838620064448507e+18
14306.0	1.8834381720256512e+18
14307.0	1.883018280252211e+18
14308.0	1.8825975429070845e+18
14309.0	1.8821760606535677e+18
14310.0	1.8817441228390392e+18
14311.0	1.8813304839340032e+18
14312.0	1.8809117934092283e+18
14313.0	1.8804892877455355e+18
14314.0	1.8800711424802816e+18
14315.0	1.8796505762627574e+18
14316.0	1.8792279414145021e+18
14317.0	1.878808578123366e+18
14318.0	1.8783891494010875e+18
14319.0	1.877968896917504e+18
14320.0	1.8775487065096187e+18
14321.0	1.8771286452862973e+18
14322.0	1.876707075791257e+18
14323.0	1.876288053077606e+18
14324.0	1.8758690437857275e+18
14325.0	1.875449380182425e+18
14326.0	1.8750298424082435e+18
14327.0	1.8746102828236797e+18
14328.0	1.8741907333054461e+18
14329.0	1.8737717206581243e+18
14330.0	1.8733460524892155e+18
14331.0	1.872902481353113e+18
14332.0	1.8724835240706045e+18
14333.0	1.8720646791954427e+18
14334.0	1.8716459265949693e+18
14335.0	1.8712265951805435e+18
14336.0	1.870807901300326e+18
14337.0	1.8703902710956027e+18
14338.0	1.8699718523617275e+18
14339.0	1.8695536114663421e+18
14340.0	1.8691355349876733e+18
14341.0	1.8687174316654587e+18
14342.0	1.8682995414138877e+18
14343.0	1.8678812367650813e+18
14344.0	1.8674636887687163e+18
14345.0	1.86704630686679e+18
14346.0	1.8666286548516856e+18
14347.0	1.8662106689699837e+18
14348.0	1.8657939413794813e+18
14349.0	1.8653767155056637e+18
14350.0	1.8649589275951096e+18
14351.0	1.8645418241949693e+18
14352.0	1.8641255579779072e+18
14353.0	1.8637087079137277e+18
14354.0	1.8632918293282816e+18
14355.0	1.8628750665056253e+18
14356.0	1.8624585603743736e+18
14357.0	1.862042279057817e+18
14358.0	1.8616148845133821e+18
14359.0	1.8611908974215165e+18
14360.0	1.8607746379153403e+18
14361.0	1.8603585780580347e+18
14362.0	1.8599425785987072e+18
14363.0	1.8595266479259643e+18
14364.0	1.8591087106981883e+18
14365.0	1.8586946993389565e+18
14366.0	1.8582791310540797e+18
14367.0	1.8578639603892221e+18
14368.0	1.8574485028339712e+18
14369.0	1.857033177818726e+18
14370.0	1.8566179350118397e+18
14371.0	1.856202811323187e+18
14372.0	1.85578774635479e+18
14373.0	1.8553727937937405e+18
14374.0	1.8549579586732032e+18
14375.0	1.8545432057610237e+18
14376.0	1.8541285451235323e+18
14377.0	1.8537139583057917e+18
14378.0	1.853299408397926e+18
14379.0	1.852885140347289e+18
14380.0	1.8524708471308283e+18
14381.0	1.8520565589475325e+18
14382.0	1.8516425090007037e+18
14383.0	1.8512278852730875e+18
14384.0	1.8508145517133821e+18
14385.0	1.8504008742207483e+18
14386.0	1.8499871581405181e+18
14387.0	1.8495735276240893e+18
14388.0	1.8491599189180416e+18
14389.0	1.8487465652256763e+18
14390.0	1.848333156168499e+18
14391.0	1.8479199501156347e+18
14392.0	1.8475066115227645e+18
14393.0	1.8470937762463741e+18
14394.0	1.846680806752256e+18
14395.0	1.846267687940915e+18
14396.0	1.84585513116631e+18
14397.0	1.845442448562585e+18
14398.0	1.8450297038831608e+18
14399.0	1.8446173283024893e+18
14400.0	1.844204130638233e+18
14401.0	1.843792347293286e+18
14402.0	1.8433803022237693e+18
14403.0	1.8427872276381693e+18
14404.0	1.842092634118553e+18
14405.0	1.8420841247145981e+18
14406.0	1.8417323098505213e+18
14407.0	1.8410691534782461e+18
14408.0	1.8409076274757627e+18
14409.0	1.8404965454184443e+18
14410.0	1.8400855908679677e+18
14411.0	1.8396743326498813e+18
14412.0	1.8392629368586237e+18
14413.0	1.8388518279577597e+18
14414.0	1.838440546251571e+18
14415.0	1.8380296487436283e+18
14416.0	1.837618737813913e+18
14417.0	1.8372075198611453e+18
14418.0	1.8367957381939197e+18
14419.0	1.8363863254695933e+18
14420.0	1.8359755420467197e+18
14421.0	1.835565211608678e+18
14422.0	1.8351455228395515e+18
14423.0	1.8347259364114432e+18
14424.0	1.83327066727383e+18
14425.0	1.8339054047199227e+18
14426.0	1.8334956681953277e+18
14427.0	1.8330856565243896e+18
14428.0	1.8326756129767421e+18
14429.0	1.8322658596749307e+18
14430.0	1.8318560711409667e+18
14431.0	1.8314428248227837e+18
14432.0	1.8310359555244032e+18
14433.0	1.8304387755540477e+18
14434.0	1.8302172374499323e+18
14435.0	1.829807631787622e+18
14436.0	1.8293992139522043e+18
14437.0	1.8289900377866237e+18
14438.0	1.8285756455845885e+18
14439.0	1.8281705295052797e+18
14440.0	1.827762975696486e+18
14441.0	1.827353893483315e+18
14442.0	1.8269449840754688e+18
14443.0	1.8265347559784445e+18
14444.0	1.826127965532979e+18
14445.0	1.825719641649971e+18
14446.0	1.825099580912435e+18
14447.0	1.8249020157722616e+18
14448.0	1.824494670000947e+18
14449.0	1.8240864971128824e+18
14450.0	1.8236783997222907e+18
14451.0	1.823270386217779e+18
14452.0	1.8228622703722493e+18
14453.0	1.8224511077842944e+18
14454.0	1.8220468204994555e+18
14455.0	1.8216389462458365e+18
14456.0	1.821230754902835e+18
14457.0	1.8208228621942781e+18
14458.0	1.8204163116630013e+18
14459.0	1.8200087897309181e+18
14460.0	1.819601757693542e+18
14461.0	1.8191935613173755e+18
14462.0	1.8187843952181243e+18
14463.0	1.8183802438287355e+18
14464.0	1.817973542302515e+18
14465.0	1.8175658911858685e+18
14466.0	1.8171599245017085e+18
14467.0	1.8167506610946043e+18
14468.0	1.8163461942935547e+18
14469.0	1.8159389223419904e+18
14470.0	1.815532272825139e+18
14471.0	1.8151263715721213e+18
14472.0	1.8146873369952253e+18
14473.0	1.814276275070566e+18
14474.0	1.8138700718276605e+18
14475.0	1.8134636420923387e+18
14476.0	1.8130457937838077e+18
14477.0	1.8126518597189627e+18
14478.0	1.8122459165229053e+18
14479.0	1.8118401159331837e+18
14480.0	1.8114340519411707e+18
14481.0	1.8110286707818493e+18
14482.0	1.810622888647065e+18
14483.0	1.8102170427588605e+18
14484.0	1.8098115525476347e+18
14485.0	1.8094050053718013e+18
14486.0	1.8089890461777917e+18
14487.0	1.80859595432919e+18
14488.0	1.8081907493306363e+18
14489.0	1.8077852792520696e+18
14490.0	1.8073803376558077e+18
14491.0	1.806975479945625e+18
14492.0	1.8065706188799997e+18
14493.0	1.80616573264855e+18
14494.0	1.8057609437249528e+18
14495.0	1.8053562403651581e+18
14496.0	1.8049274868662264e+18
14497.0	1.8044781879885821e+18
14498.0	1.8040736876331005e+18
14499.0	1.8036693147844605e+18
14500.0	1.8032507316338685e+18
14501.0	1.8028376681873403e+18
14502.0	1.802425634861875e+18
14503.0	1.8020337828495355e+18
14504.0	1.801630176719667e+18
14505.0	1.8012208193601533e+18
14506.0	1.800810725480857e+18
14507.0	1.800408382675353e+18
14508.0	1.8000144838426621e+18
14509.0	1.7996106461872123e+18
14510.0	1.7992069242945533e+18
14511.0	1.7988032846102525e+18
14512.0	1.798398960415539e+18
14513.0	1.797996030407475e+18
14514.0	1.7975905888501755e+18
14515.0	1.7971889892753405e+18
14516.0	1.7966951737327613e+18
14517.0	1.7963821930905595e+18
14518.0	1.7959788738510843e+18
14519.0	1.7955756015878141e+18
14520.0	1.7951723981111293e+18
14521.0	1.79476922147799e+18
14522.0	1.794366095176499e+18
14523.0	1.7939505889673213e+18
14524.0	1.7935469425721341e+18
14525.0	1.7931568152575997e+18
14526.0	1.7927541352300544e+18
14527.0	1.7923500291391485e+18
14528.0	1.791943498740531e+18
14529.0	1.7915451925331963e+18
14530.0	1.791142339700326e+18
14531.0	1.7907402284204027e+18
14532.0	1.7903195514732536e+18
14533.0	1.7899348901756928e+18
14534.0	1.7895325154934781e+18
14535.0	1.7891299461955581e+18
14536.0	1.7887275127930877e+18
14537.0	1.7883245928513533e+18
14538.0	1.7879227030306808e+18
14539.0	1.7875203786801147e+18
14540.0	1.787118077817651e+18
14541.0	1.7867156158939133e+18
14542.0	1.7863135817891837e+18
14543.0	1.7859036221276155e+18
14544.0	1.7855092166230013e+18
14545.0	1.7851070533337085e+18
14546.0	1.7834557826924534e+18
14547.0	1.7831822402519025e+18
14548.0	1.7839005936648187e+18
14549.0	1.783494348478873e+18
14550.0	1.7830970690371581e+18
14551.0	1.7826951892828155e+18
14552.0	1.7822932055097341e+18
14553.0	1.781891111007027e+18
14554.0	1.7814895365980155e+18
14555.0	1.7810876266446843e+18
14556.0	1.7806855103315965e+18
14557.0	1.7802840181309437e+18
14558.0	1.779882213874073e+18
14559.0	1.7794135373119485e+18
14560.0	1.779078293304115e+18
14561.0	1.7786768967335933e+18
14562.0	1.7782753625899005e+18
14563.0	1.777873764692787e+18
14564.0	1.7774717574316027e+18
14565.0	1.7770704799793147e+18
14566.0	1.7766688518832125e+18
14567.0	1.7762672137207803e+18
14568.0	1.7758650168770555e+18
14569.0	1.7754452794540024e+18
14570.0	1.7750205021552635e+18
14571.0	1.774637630986649e+18
14572.0	1.7742344493203456e+18
14573.0	1.7738333933273085e+18
14574.0	1.7734322115051517e+18
14575.0	1.7730315615207421e+18
14576.0	1.7726300928081915e+18
14577.0	1.7722286794604536e+18
14578.0	1.7718271167954941e+18
14579.0	1.7714259064520704e+18
14580.0	1.771024484715724e+18
14581.0	1.7706226620039165e+18
14582.0	1.7702215389020152e+18
14583.0	1.7698200785780733e+18
14584.0	1.7694181333925885e+18
14585.0	1.769017137797529e+18
14586.0	1.768615501312819e+18
14587.0	1.76821390844887e+18
14588.0	1.767813989951078e+18
14589.0	1.7674247165968381e+18
14590.0	1.7670322824151035e+18
14591.0	1.766633449403187e+18
14592.0	1.7662459712110587e+18
14593.0	1.7658537048014843e+18
14594.0	1.7654709712060416e+18
14595.0	1.7650831792799741e+18
14596.0	1.7646931626950653e+18
14597.0	1.7643060972224512e+18
14598.0	1.763920372249395e+18
14599.0	1.7635329309671421e+18
14600.0	1.7631451793063933e+18
14601.0	1.7627574796550141e+18
14602.0	1.7623693974831096e+18
14603.0	1.7619818672816125e+18
14604.0	1.7615922348949504e+18
14605.0	1.761205674416537e+18
14606.0	1.760815832314675e+18
14607.0	1.760429931180851e+18
14608.0	1.760042214752256e+18
14609.0	1.759653182989926e+18
14610.0	1.75926527697879e+18
14611.0	1.7588777585213435e+18
14612.0	1.758489980017049e+18
14613.0	1.7581016730304507e+18
14614.0	1.7577130019782653e+18
14615.0	1.7573245624516605e+18
14616.0	1.7569359635415037e+18
14617.0	1.7565470844518397e+18
14618.0	1.756158057722675e+18
14619.0	1.7557677559250936e+18
14620.0	1.75537506001879e+18
14621.0	1.7549908449951736e+18
14622.0	1.754601563252326e+18
14623.0	1.7542121942679547e+18
14624.0	1.7538203070234616e+18
14625.0	1.753433142565273e+18
14626.0	1.753043149468467e+18
14627.0	1.7526529634336765e+18
14628.0	1.752263831008051e+18
14629.0	1.7518738328780797e+18
14630.0	1.751483697174937e+18
14631.0	1.7510933752446976e+18
14632.0	1.7506219858067453e+18
14633.0	1.7503017238527995e+18
14634.0	1.7499215605268477e+18
14635.0	1.7495267204923387e+18
14636.0	1.749129816860262e+18
14637.0	1.7487492374593533e+18
14638.0	1.7483580196257787e+18
14639.0	1.7479664293380093e+18
14640.0	1.7475752719024125e+18
14641.0	1.7468629196996603e+18
14642.0	1.7467920678387712e+18
14643.0	1.74640046580695e+18
14644.0	1.7460085030649853e+18
14645.0	1.7456154850361344e+18
14646.0	1.745223943402291e+18
14647.0	1.7448313062162427e+18
14648.0	1.744438786470707e+18
