# Flux units: erg / (cm m2 s)
# Wavelength units: Angstrom
wave	flux
14000.0	1.7565331392299003e+18
14001.0	1.7561023640764408e+18
14002.0	1.7557573876056061e+18
14003.0	1.7553723437875197e+18
14004.0	1.75498733855703e+18
14005.0	1.7546060847120381e+18
14006.0	1.754219475579699e+18
14007.0	1.7538358225928184e+18
14008.0	1.7534119915290621e+18
14009.0	1.753074051422617e+18
14010.0	1.752685274673971e+18
14011.0	1.752029837498777e+18
14012.0	1.751926238189977e+18
14013.0	1.7515435347935232e+18
14014.0	1.7511584674873341e+18
14015.0	1.7507777857454077e+18
14016.0	1.7503955437223933e+18
14017.0	1.7500146220662781e+18
14018.0	1.7496327692746744e+18
14019.0	1.749251309069926e+18
14020.0	1.748869548553011e+18
14021.0	1.748487630330265e+18
14022.0	1.7480967346192381e+18
14023.0	1.7476736115539963e+18
14024.0	1.747308895010816e+18
14025.0	1.7469528086675453e+18
14026.0	1.7465726235312125e+18
14027.0	1.7461924467834875e+18
14028.0	1.745810525205299e+18
14029.0	1.7454295548952568e+18
14030.0	1.7424833918795791e+18
14031.0	1.7446383095119864e+18
14032.0	1.7442799330787325e+18
14033.0	1.7438527516049403e+18
14034.0	1.743519983914188e+18
14035.0	1.7431415352197115e+18
14036.0	1.7427579627634685e+18
14037.0	1.7422875195604987e+18
14038.0	1.741905342968627e+18
14039.0	1.741524159587942e+18
14040.0	1.741140870666649e+18
14041.0	1.740763391695257e+18
14042.0	1.740374069687091e+18
14043.0	1.7399807731564536e+18
14044.0	1.7396148218101757e+18
14045.0	1.739239132967731e+18
14046.0	1.7388590937931776e+18
14047.0	1.7384691157958653e+18
14048.0	1.738097203504742e+18
14049.0	1.7377194074439677e+18
14050.0	1.7373400578129917e+18
14051.0	1.7369568376782843e+18
14052.0	1.7368506664222717e+18
14053.0	1.7367116118228987e+18
14054.0	1.7363332822466563e+18
14055.0	1.735954590282547e+18
14056.0	1.735576619738726e+18
14057.0	1.7351984445128704e+18
14058.0	1.7348204437700603e+18
14059.0	1.7344397855162363e+18
14060.0	1.7340644238295037e+18
14061.0	1.73368019035095e+18
14062.0	1.733302322148147e+18
14063.0	1.732918969473433e+18
14064.0	1.732109747303219e+18
14065.0	1.7321659392327677e+18
14066.0	1.7317922401681403e+18
14067.0	1.731361282143027e+18
14068.0	1.7310355743047677e+18
14069.0	1.7306499667722237e+18
14070.0	1.7302781618552824e+18
14071.0	1.7299013103517696e+18
14072.0	1.7295258010255352e+18
14073.0	1.7291491743367163e+18
14074.0	1.728772646633472e+18
14075.0	1.728385359701606e+18
14076.0	1.727958351033139e+18
14077.0	1.727025878401024e+18
14078.0	1.7272259936780288e+18
14079.0	1.7268867231383547e+18
14080.0	1.72651426390999e+18
14081.0	1.7261392830660603e+18
14082.0	1.7257582456471547e+18
14083.0	1.7253868953927677e+18
14084.0	1.725005312714342e+18
14085.0	1.7241665894875133e+18
14086.0	1.724208597958656e+18
14087.0	1.7238797678804984e+18
14088.0	1.723490972676915e+18
14089.0	1.7230829340065787e+18
14090.0	1.722742826283827e+18
14091.0	1.7223756317458427e+18
14092.0	1.72199951508439e+18
14093.0	1.7216247556997115e+18
14094.0	1.7212501036892157e+18
14095.0	1.7208755657637885e+18
14096.0	1.7203797570879488e+18
14097.0	1.720095641645875e+18
14098.0	1.7196978941198333e+18
14099.0	1.7193775180808187e+18
14100.0	1.7189900315000827e+18
14101.0	1.7186302373920765e+18
14102.0	1.7182561893613565e+18
14103.0	1.71787580122071e+18
14104.0	1.7175073467138043e+18
14105.0	1.717134426112e+18
14106.0	1.7167615692636157e+18
14107.0	1.7163861824110587e+18
14108.0	1.716003203868262e+18
14109.0	1.7156314845151227e+18
14110.0	1.7152524570066941e+18
14111.0	1.7148738120187904e+18
14112.0	1.714508342178611e+18
14113.0	1.7141049826738176e+18
14114.0	1.7137619993362432e+18
14115.0	1.7133910651568125e+18
14116.0	1.7128896679903224e+18
14117.0	1.708359316353844e+18
14118.0	1.7122720550486016e+18
14119.0	1.7118346713497595e+18
14120.0	1.7114684347908093e+18
14121.0	1.711146924611993e+18
14122.0	1.7106777078235128e+18
14123.0	1.7103178935828477e+18
14124.0	1.709921389248512e+18
14125.0	1.7094606415986685e+18
14126.0	1.70927446818816e+18
14127.0	1.7089274448969725e+18
14128.0	1.70855475749847e+18
14129.0	1.708178775054745e+18
14130.0	1.7075513994510339e+18
14131.0	1.706790733899366e+18
14132.0	1.7064209405706237e+18
14133.0	1.705951341261619e+18
14134.0	1.7056277439971325e+18
14135.0	1.7051204076961787e+18
14136.0	1.7045656203952128e+18
14137.0	1.7043901172940797e+18
14138.0	1.7039695259107325e+18
14139.0	1.7036546376990712e+18
14140.0	1.7032736774553597e+18
14141.0	1.7027171503570941e+18
14142.0	1.7020290563309568e+18
14143.0	1.701954127606579e+18
14144.0	1.7015921407164416e+18
14145.0	1.7012222702125053e+18
14146.0	1.7008457206988797e+18
14147.0	1.700478779496857e+18
14148.0	1.7000949922922493e+18
14149.0	1.699725470754406e+18
14150.0	1.699382044498329e+18
14151.0	1.6989781128904704e+18
14152.0	1.698644612035379e+18
14153.0	1.6982753740324867e+18
14154.0	1.6978952492941307e+18
14155.0	1.6964422132039688e+18
14156.0	1.6970590107729912e+18
14157.0	1.6967986468356093e+18
14158.0	1.696424889050726e+18
14159.0	1.6960621320863741e+18
14160.0	1.6956919545593853e+18
14161.0	1.6952985506545661e+18
14162.0	1.6949100792512512e+18
14163.0	1.6945886110154744e+18
14164.0	1.6940828702277624e+18
14165.0	1.6937425896996861e+18
14166.0	1.6934837373894653e+18
14167.0	1.693110664114995e+18
14168.0	1.692718890955571e+18
14169.0	1.6923714364899325e+18
14170.0	1.6919919375417341e+18
14171.0	1.6916345912295421e+18
14172.0	1.6912720288808957e+18
14173.0	1.6908516505681915e+18
14174.0	1.690529876987084e+18
14175.0	1.690166076479897e+18
14176.0	1.6897914026590205e+18
14177.0	1.6894295634083837e+18
14178.0	1.6890636204507133e+18
14179.0	1.6886871447568381e+18
14180.0	1.688331727824486e+18
14181.0	1.6879655130759165e+18
14182.0	1.687598946005811e+18
14183.0	1.6872328503754747e+18
14184.0	1.6868643304374272e+18
14185.0	1.6865002447175675e+18
14186.0	1.6853753743278083e+18
14187.0	1.6857583730032637e+18
14188.0	1.6854004982087677e+18
14189.0	1.6850339563044861e+18
14190.0	1.6846756318806013e+18
14191.0	1.684306440853913e+18
14192.0	1.6839469437026304e+18
14193.0	1.6834550860611584e+18
14194.0	1.6832120479547387e+18
14195.0	1.68285445333975e+18
14196.0	1.6824890455752696e+18
14197.0	1.682123993487769e+18
14198.0	1.6817566596988925e+18
14199.0	1.6813920522076152e+18
14200.0	1.680548649815245e+18
14201.0	1.680648487672217e+18
14202.0	1.6802979461988347e+18
14203.0	1.6799225660571648e+18
14204.0	1.679556683497472e+18
14205.0	1.6791969548206075e+18
14206.0	1.6787787139252221e+18
14207.0	1.6784757744467963e+18
14208.0	1.678117523842662e+18
14209.0	1.677692602259865e+18
14210.0	1.677348065352089e+18
14211.0	1.6770184199012352e+18
14212.0	1.6766545002758141e+18
14213.0	1.6762767662907387e+18
14214.0	1.6759178647306235e+18
14215.0	1.6755464893104125e+18
14216.0	1.6751914364436477e+18
14217.0	1.674828421110169e+18
14218.0	1.6744600672665597e+18
14219.0	1.6741021756948477e+18
14220.0	1.6737349190811648e+18
14221.0	1.6733634832629757e+18
14222.0	1.6729240544215037e+18
14223.0	1.6726481161945085e+18
14224.0	1.6722899276660733e+18
14225.0	1.6704933193580554e+18
14226.0	1.671571527276953e+18
14227.0	1.6712097886896128e+18
14228.0	1.6673032005222413e+18
14229.0	1.6698938677526497e+18
14230.0	1.6701244487761915e+18
14231.0	1.6696719353839613e+18
14232.0	1.6694003525222397e+18
14233.0	1.6690354933727232e+18
14234.0	1.6686769978212347e+18
14235.0	1.6683142089801725e+18
14236.0	1.6679536196321277e+18
14237.0	1.6675901697687547e+18
14238.0	1.6672290485829632e+18
14239.0	1.6668568309465085e+18
14240.0	1.665808959589581e+18
14241.0	1.6661380513923072e+18
14242.0	1.6657833844015104e+18
14243.0	1.6653574427639803e+18
14244.0	1.665062542927462e+18
14245.0	1.664687998291148e+18
14246.0	1.6643224479203323e+18
14247.0	1.6639744330956795e+18
14248.0	1.6636070439419904e+18
14249.0	1.663252093416243e+18
14250.0	1.6629005084000253e+18
14251.0	1.6625426403164157e+18
14252.0	1.6621787727003643e+18
14253.0	1.6620092691316733e+18
14254.0	1.661726297895731e+18
14255.0	1.661352697816678e+18
14256.0	1.6595492007837706e+18
14257.0	1.660613678229094e+18
14258.0	1.660288285802496e+18
14259.0	1.659919143429734e+18
14260.0	1.6595286436610048e+18
14261.0	1.659202226146508e+18
14262.0	1.6588608316112893e+18
14263.0	1.6564676104028175e+18
14264.0	1.6578166814408696e+18
14265.0	1.6577706548264957e+18
14266.0	1.6574239771459581e+18
14267.0	1.657066097318297e+18
14268.0	1.6567058871353347e+18
14269.0	1.656345197123993e+18
14270.0	1.6559904512802816e+18
14271.0	1.6556281288458235e+18
14272.0	1.6552705812070395e+18
14273.0	1.6549119883476992e+18
14274.0	1.651602669069928e+18
14275.0	1.6539409717395453e+18
14276.0	1.653835297089126e+18
14277.0	1.6534801955684347e+18
14278.0	1.6531331823435776e+18
14279.0	1.6527751045447677e+18
14280.0	1.6524144900308984e+18
14281.0	1.652060267636326e+18
14282.0	1.651703469939097e+18
14283.0	1.651346480981606e+18
14284.0	1.6509891564797947e+18
14285.0	1.6506316306513915e+18
14286.0	1.6502681187123197e+18
14287.0	1.6499177265561597e+18
14288.0	1.6495608013520888e+18
14289.0	1.6487573656436723e+18
14290.0	1.6488449091567608e+18
14291.0	1.6484900106403837e+18
14292.0	1.6481337531695104e+18
14293.0	1.647771351882137e+18
14294.0	1.6473491448528893e+18
14295.0	1.647050486919987e+18
14296.0	1.6463346886770688e+18
14297.0	1.646345558635315e+18
14298.0	1.6455143532789757e+18
14299.0	1.6455870086905856e+18
14300.0	1.645246045329817e+18
14301.0	1.6448886738518013e+18
14302.0	1.6445342954291197e+18
14303.0	1.644171902530355e+18
14304.0	1.643826558638489e+18
14305.0	1.6434771345276925e+18
14306.0	1.643074654149017e+18
14307.0	1.6427438561034235e+18
14308.0	1.6424071206010877e+18
14309.0	1.6420466788925435e+18
14310.0	1.6415343849242621e+18
14311.0	1.640589654858137e+18
14312.0	1.64089782379479e+18
14313.0	1.6405779057737725e+18
14314.0	1.6402607341830141e+18
14315.0	1.6399243023482883e+18
14316.0	1.6395518028546043e+18
14317.0	1.639149960010137e+18
14318.0	1.6388671078924288e+18
14319.0	1.6385133133168637e+18
14320.0	1.6381590573678592e+18
14321.0	1.6378040246337533e+18
14322.0	1.6374326341140477e+18
14323.0	1.6370900853063677e+18
14324.0	1.636737478557696e+18
14325.0	1.6363834356793341e+18
14326.0	1.6360347313111037e+18
14327.0	1.6356782423146493e+18
14328.0	1.63532477825024e+18
14329.0	1.634974397838131e+18
14330.0	1.6346210377924605e+18
14331.0	1.634258475443814e+18
14332.0	1.6339147673305088e+18
14333.0	1.6335617377959933e+18
14334.0	1.6332088156356603e+18
14335.0	1.6328567373692925e+18
14336.0	1.632361596426649e+18
14337.0	1.6321607647625213e+18
14338.0	1.6318078056923133e+18
14339.0	1.6314465720991741e+18
14340.0	1.631264267514675e+18
14341.0	1.6313811694780416e+18
14342.0	1.6310398487625725e+18
14343.0	1.630684463706931e+18
14344.0	1.6303329307000832e+18
14345.0	1.6299860365934587e+18
14346.0	1.629630708580352e+18
14347.0	1.6292037871534075e+18
14348.0	1.6289283774087165e+18
14349.0	1.6285723111981053e+18
14350.0	1.6281052066611195e+18
14351.0	1.627742954690969e+18
14352.0	1.6275144087437307e+18
14353.0	1.627166598601113e+18
14354.0	1.626802004531609e+18
14355.0	1.6264235843583997e+18
14356.0	1.6260792236113912e+18
14357.0	1.6257567822970877e+18
14358.0	1.625405901923942e+18
14359.0	1.625048726739353e+18
14360.0	1.624694375160217e+18
14361.0	1.6243506569805821e+18
14362.0	1.6240038064947197e+18
14363.0	1.623653305286656e+18
14364.0	1.6229260431720448e+18
14365.0	1.622847597943193e+18
14366.0	1.622441270548889e+18
14367.0	1.622159310979072e+18
14368.0	1.6218096519872512e+18
14369.0	1.621460081914675e+18
14370.0	1.6211106309603325e+18
14371.0	1.6203097168674813e+18
14372.0	1.619646167908352e+18
14373.0	1.6192997183979515e+18
14374.0	1.6189529803194363e+18
14375.0	1.618603257574195e+18
14376.0	1.6182539240603643e+18
14377.0	1.6179043070115837e+18
14378.0	1.6175542000680957e+18
14379.0	1.617206458712064e+18
14380.0	1.6168568785731581e+18
14381.0	1.6165033037791235e+18
14382.0	1.6161589379989501e+18
14383.0	1.6158034019483643e+18
14384.0	1.6154534912983037e+18
14385.0	1.615114027820646e+18
14386.0	1.6147582501781504e+18
14387.0	1.6144169579839488e+18
14388.0	1.6140677016453115e+18
14389.0	1.6137205156151293e+18
14390.0	1.613371963919564e+18
14391.0	1.6130169529958395e+18
14392.0	1.6126726778126333e+18
14393.0	1.612245722831257e+18
14394.0	1.6118294599696381e+18
14395.0	1.6114602337107963e+18
14396.0	1.6111496153006075e+18
14397.0	1.610803353695027e+18
14398.0	1.6104542298963963e+18
14399.0	1.6101080689541115e+18
14400.0	1.6097354989961216e+18
14401.0	1.6094105880756224e+18
14402.0	1.6090659588931581e+18
14403.0	1.6068455446872036e+18
14404.0	1.6031656301297646e+18
14405.0	1.6073271917150185e+18
14406.0	1.6076790871097344e+18
14407.0	1.6044440254677e+18
14408.0	1.6069195020107776e+18
14409.0	1.6066321401774075e+18
14410.0	1.6062720658898944e+18
14411.0	1.6059506916065277e+18
14412.0	1.6056094413553661e+18
14413.0	1.6052645605146621e+18
14414.0	1.6049170540396541e+18
14415.0	1.6045714484232187e+18
14416.0	1.6042068107329533e+18
14417.0	1.6038181883346941e+18
14418.0	1.6034707254804477e+18
14419.0	1.6031873130037248e+18
14420.0	1.6028367111323643e+18
14421.0	1.6024920836276221e+18
14422.0	1.6021447617019904e+18
14423.0	1.6017958862061563e+18
14424.0	1.5899210901618604e+18
14425.0	1.6011092031438843e+18
14426.0	1.600765104121446e+18
14427.0	1.600419832371609e+18
14428.0	1.6000641839136765e+18
14429.0	1.599728005414912e+18
14430.0	1.5993864884060157e+18
14431.0	1.5984031556435965e+18
14432.0	1.5986875797864448e+18
14433.0	1.5961790890377198e+18
14434.0	1.597995945767731e+18
14435.0	1.597570785948467e+18
14436.0	1.5973144233771005e+18
14437.0	1.596970220335923e+18
14438.0	1.596514198827827e+18
14439.0	1.5962654447239168e+18
14440.0	1.5959370844078077e+18
14441.0	1.595589564511027e+18
14442.0	1.5952429740720128e+18
14443.0	1.5948806130499581e+18
14444.0	1.5945595055243264e+18
14445.0	1.5942183072825344e+18
14446.0	1.591423370736436e+18
14447.0	1.5935266782969853e+18
14448.0	1.5931877902778365e+18
14449.0	1.5928438019850237e+18
14450.0	1.592498367496192e+18
14451.0	1.592156912562995e+18
14452.0	1.591812768242073e+18
14453.0	1.5914337357004797e+18
14454.0	1.5911296570490875e+18
14455.0	1.5907804929851384e+18
14456.0	1.5904279231463421e+18
14457.0	1.590085335751065e+18
14458.0	1.5897430100803581e+18
14459.0	1.5894065950228477e+18
14460.0	1.589062564786995e+18
14461.0	1.5886699913543677e+18
14462.0	1.5877242580107267e+18
14463.0	1.5880319722848253e+18
14464.0	1.587706492616704e+18
14465.0	1.5873561843466237e+18
14466.0	1.5870253259030523e+18
14467.0	1.5866527962103805e+18
14468.0	1.5863389850959872e+18
14469.0	1.5859434488070144e+18
14470.0	1.5856456330903547e+18
14471.0	1.585310867233177e+18
14472.0	1.58497152958464e+18
14473.0	1.5846329905315837e+18
14474.0	1.5842934448455675e+18
14475.0	1.583948584137523e+18
14476.0	1.5834681165479933e+18
14477.0	1.5832668167995387e+18
14478.0	1.5829268802043907e+18
14479.0	1.5825815883218941e+18
14480.0	1.5822376973369341e+18
14481.0	1.5819056728768512e+18
14482.0	1.5815631106473981e+18
14483.0	1.5812168054210557e+18
14484.0	1.5808774073745403e+18
14485.0	1.5805223612186621e+18
14486.0	1.5800610750201856e+18
14487.0	1.5798517373075453e+18
14488.0	1.5794125467025405e+18
14489.0	1.5791142478020605e+18
14490.0	1.5788207958392824e+18
14491.0	1.5784903064944635e+18
14492.0	1.5781466134806525e+18
14493.0	1.5777972044693501e+18
14494.0	1.577456395458969e+18
14495.0	1.5771319073243133e+18
14496.0	1.576728918595993e+18
14497.0	1.5764512154058747e+18
14498.0	1.5761076951973888e+18
14499.0	1.575768496799744e+18
14500.0	1.5754287296544765e+18
14501.0	1.5750289000759293e+18
14502.0	1.5745458370510848e+18
14503.0	1.5743761942315003e+18
14504.0	1.5740681930670077e+18
14505.0	1.573675225369804e+18
14506.0	1.5732661649670141e+18
14507.0	1.572939047842611e+18
14508.0	1.5727141224185853e+18
14509.0	1.5723750716604413e+18
14510.0	1.572034604905267e+18
14511.0	1.5716972218023933e+18
14512.0	1.571351023950233e+18
14513.0	1.571019788019302e+18
14514.0	1.570657829650432e+18
14515.0	1.5703411445989376e+18
14516.0	1.5688859627028485e+18
14517.0	1.5696692489748477e+18
14518.0	1.5693364846395387e+18
14519.0	1.568998952219443e+18
14520.0	1.568660074266624e+18
14521.0	1.5683205604573181e+18
14522.0	1.567975639351296e+18
14523.0	1.567443455993446e+18
14524.0	1.5671676150743037e+18
14525.0	1.5669675350294525e+18
14526.0	1.5666290312085501e+18
14527.0	1.5662824508358653e+18
14528.0	1.5658653239476221e+18
14529.0	1.5656137747595264e+18
14530.0	1.5652726033612797e+18
14531.0	1.564942597200281e+18
14532.0	1.5644019329597435e+18
14533.0	1.5642676028243965e+18
14534.0	1.563931592097792e+18
14535.0	1.563590279770931e+18
14536.0	1.5632565306130432e+18
14537.0	1.5629155202760701e+18
14538.0	1.5625842222694397e+18
14539.0	1.562245795623731e+18
14540.0	1.5619078588727293e+18
14541.0	1.5615608775245821e+18
14542.0	1.5612333711687675e+18
14543.0	1.5608080150560765e+18
14544.0	1.5605601652441088e+18
14545.0	1.5602168446844925e+18
14546.0	1.5452994837413804e+18
14547.0	1.5465104699031444e+18
14548.0	1.5592077052084221e+18
14549.0	1.558821643013324e+18
14550.0	1.5585374118084605e+18
14551.0	1.5582060198494205e+18
14552.0	1.5578686266802176e+18
14553.0	1.5575292336668672e+18
14554.0	1.556916221037773e+18
14555.0	1.5559544906186747e+18
14556.0	1.5556151127048187e+18
14557.0	1.5552825798950907e+18
14558.0	1.5549462084583421e+18
14559.0	1.5539373944602606e+18
14560.0	1.5541866585915387e+18
14561.0	1.5544132281827328e+18
14562.0	1.5543613882630141e+18
14563.0	1.5540499460915197e+18
14564.0	1.5536506064076797e+18
14565.0	1.553380058700185e+18
14566.0	1.5530444556599293e+18
14567.0	1.5527068225765373e+18
14568.0	1.5522418252578813e+18
14569.0	1.552034718914969e+18
14570.0	1.5513864690991101e+18
14571.0	1.5513571089711096e+18
14572.0	1.5509423040495613e+18
14573.0	1.5506497144356864e+18
14574.0	1.5501817743933435e+18
14575.0	1.5500001140539392e+18
14576.0	1.5496613921292288e+18
14577.0	1.5493427508543485e+18
14578.0	1.5490072501551104e+18
14579.0	1.548675125031731e+18
14580.0	1.5483384868372475e+18
14581.0	1.5479891919110141e+18
14582.0	1.5476562413486075e+18
14583.0	1.5473387291803643e+18
14584.0	1.5469768110768125e+18
14585.0	1.546669928952627e+18
14586.0	1.5463338729275387e+18
14587.0	1.5459983403515904e+18
14588.0	1.545664218739507e+18
14589.0	1.5453402423099392e+18
14590.0	1.5450187438751741e+18
14591.0	1.5446882864070653e+18
14592.0	1.5443709873094656e+18
14593.0	1.543997152349388e+18
14594.0	1.5437313089732605e+18
14595.0	1.543406413152256e+18
14596.0	1.5427510732849142e+18
14597.0	1.5423695459713016e+18
14598.0	1.542410834699878e+18
14599.0	1.5421225400532992e+18
14600.0	1.5417892069703677e+18
14601.0	1.5414768135307264e+18
14602.0	1.541114585048678e+18
14603.0	1.5408322580578301e+18
14604.0	1.5404584532967421e+18
14605.0	1.5400924935618557e+18
14606.0	1.5398117016862715e+18
14607.0	1.5395430330269693e+18
14608.0	1.5392236535545853e+18
14609.0	1.5388895873073155e+18
14610.0	1.5383969176485885e+18
14611.0	1.538248826840678e+18
14612.0	1.537939332503961e+18
14613.0	1.537619399383449e+18
14614.0	1.537297068798771e+18
14615.0	1.5369616352083965e+18
14616.0	1.536656761316966e+18
14617.0	1.5363360480559101e+18
14618.0	1.535963221406515e+18
14619.0	1.535481398217932e+18
14620.0	1.534497711456256e+18
14621.0	1.5350506431971328e+18
14622.0	1.5347281012195325e+18
14623.0	1.534408174809907e+18
14624.0	1.5340594553421821e+18
14625.0	1.5337637703319547e+18
14626.0	1.5334403928489981e+18
14627.0	1.5331145793142781e+18
14628.0	1.5328012262178813e+18
14629.0	1.5324798469013501e+18
14630.0	1.532150134341632e+18
14631.0	1.5318363970469885e+18
14632.0	1.5305558290595845e+18
14633.0	1.5310483577896952e+18
14634.0	1.5308586880073725e+18
14635.0	1.52924716594626e+18
14636.0	1.5266092356206584e+18
14637.0	1.5299080372617213e+18
14638.0	1.5295665336745984e+18
14639.0	1.529171727194521e+18
14640.0	1.5287683374907392e+18
14641.0	1.5248654252113894e+18
14642.0	1.528123521970995e+18
14643.0	1.5277993156935675e+18
14644.0	1.5274689555333115e+18
14645.0	1.527144705635123e+18
14646.0	1.526768340670873e+18
14647.0	1.5264288939704315e+18
14648.0	1.5261809636278272e+18
