# Flux units: erg / (cm m2 s)
# Wavelength units: Angstrom
wave	flux
14000.0	1.4290117661294587e+18
14001.0	1.4286511650373632e+18
14002.0	1.428495660377702e+18
14003.0	1.4282201164152832e+18
14004.0	1.427939633240473e+18
14005.0	1.4276611096444925e+18
14006.0	1.4273750899884032e+18
14007.0	1.4270953785655293e+18
14008.0	1.426747118793523e+18
14009.0	1.4265422589198336e+18
14010.0	1.426254804811776e+18
14011.0	1.4254534595444739e+18
14012.0	1.4257054432624637e+18
14013.0	1.4254267955150845e+18
14014.0	1.425143169967718e+18
14015.0	1.4248670857789437e+18
14016.0	1.424589547005542e+18
14017.0	1.4243106744434685e+18
14018.0	1.424031390839603e+18
14019.0	1.4237538252226557e+18
14020.0	1.4234746288603136e+18
14021.0	1.4231956036255741e+18
14022.0	1.422911674410598e+18
14023.0	1.4226061394968576e+18
14024.0	1.4223442454773757e+18
14025.0	1.4220868712398845e+18
14026.0	1.421808465084416e+18
14027.0	1.4215272168685565e+18
14028.0	1.4212434671697917e+18
14029.0	1.4209665944518653e+18
14030.0	1.4189970449235978e+18
14031.0	1.420368374294118e+18
14032.0	1.420132583945011e+18
14033.0	1.419809362490163e+18
14034.0	1.419578076823552e+18
14035.0	1.4193007746088957e+18
14036.0	1.4190206404001787e+18
14037.0	1.4187439555870717e+18
14038.0	1.4184688780312573e+18
14039.0	1.4181889216610301e+18
14040.0	1.4179062440263675e+18
14041.0	1.4176338642468864e+18
14042.0	1.4173505088126976e+18
14043.0	1.4170461315268608e+18
14044.0	1.4167935555731453e+18
14045.0	1.416524173882163e+18
14046.0	1.4162467408052221e+18
14047.0	1.415960836911923e+18
14048.0	1.415691948471091e+18
14049.0	1.415419058664243e+18
14050.0	1.4151423050645504e+18
14051.0	1.4148574967234557e+18
14052.0	1.4145868114427901e+18
14053.0	1.4143118580383741e+18
14054.0	1.4140358963232765e+18
14055.0	1.413759085681049e+18
14056.0	1.4134831424208893e+18
14057.0	1.4132073132457981e+18
14058.0	1.4129315276914685e+18
14059.0	1.4126532893081597e+18
14060.0	1.4123790757789693e+18
14061.0	1.4120970927210493e+18
14062.0	1.4118268017049597e+18
14063.0	1.4115388811902976e+18
14064.0	1.4109247344214016e+18
14065.0	1.4109911805853693e+18
14066.0	1.4107215103262717e+18
14067.0	1.4104230805635072e+18
14068.0	1.4101709592723453e+18
14069.0	1.4098915917823997e+18
14070.0	1.4096196482105341e+18
14071.0	1.4093422889533437e+18
14072.0	1.4090688891191293e+18
14073.0	1.4087941018091517e+18
14074.0	1.4085182944444413e+18
14075.0	1.4082254246510592e+18
14076.0	1.4079356569649147e+18
14077.0	1.4072929352417277e+18
14078.0	1.4073873263755264e+18
14079.0	1.4071327338004477e+18
14080.0	1.4068666890977277e+18
14081.0	1.4065929872736253e+18
14082.0	1.4063130493583357e+18
14083.0	1.4060407073275901e+18
14084.0	1.4057415896989693e+18
14085.0	1.4050880743538685e+18
14086.0	1.4051624687239165e+18
14087.0	1.4049176639766528e+18
14088.0	1.404631195530035e+18
14089.0	1.4043489767522301e+18
14090.0	1.4040876481249277e+18
14091.0	1.403821250261811e+18
14092.0	1.403545729787494e+18
14093.0	1.4032684644827133e+18
14094.0	1.4029945009340413e+18
14095.0	1.4027206372098045e+18
14096.0	1.4023736936103936e+18
14097.0	1.40215062626304e+18
14098.0	1.4018673211604987e+18
14099.0	1.4016282131169277e+18
14100.0	1.4013458383110141e+18
14101.0	1.4010884623958013e+18
14102.0	1.400813804270387e+18
14103.0	1.4005281948172285e+18
14104.0	1.4002661724520445e+18
14105.0	1.3999943328989181e+18
14106.0	1.3997206101032957e+18
14107.0	1.3994447675064317e+18
14108.0	1.3991638665789435e+18
14109.0	1.3988972036358141e+18
14110.0	1.398620799841075e+18
14111.0	1.3983387681292285e+18
14112.0	1.3980728618385408e+18
14113.0	1.3977901791707133e+18
14114.0	1.3975224047370237e+18
14115.0	1.3972557652819965e+18
14116.0	1.3969118147379197e+18
14117.0	1.3938450344443917e+18
14118.0	1.396442588721971e+18
14119.0	1.3961299822116861e+18
14120.0	1.3958608580509693e+18
14121.0	1.3956165784305661e+18
14122.0	1.3952802439036925e+18
14123.0	1.3950377955164157e+18
14124.0	1.3947478709633021e+18
14125.0	1.3941786586120187e+18
14126.0	1.3942564310745085e+18
14127.0	1.3939953440391165e+18
14128.0	1.3937221136547837e+18
14129.0	1.3934431219744763e+18
14130.0	1.3931641512656893e+18
14131.0	1.3929059583000573e+18
14132.0	1.3926310267060221e+18
14133.0	1.3919428395663345e+18
14134.0	1.392091409363763e+18
14135.0	1.3917992324694013e+18
14136.0	1.391431897002803e+18
14137.0	1.3912707837198333e+18
14138.0	1.3909674801758208e+18
14139.0	1.3907307536580605e+18
14140.0	1.3904496195272701e+18
14141.0	1.3901851342667773e+18
14142.0	1.3897020125216768e+18
14143.0	1.389640680892006e+18
14144.0	1.3893781526937597e+18
14145.0	1.3891057460707325e+18
14146.0	1.388830606439219e+18
14147.0	1.3885626810105853e+18
14148.0	1.3882855792836605e+18
14149.0	1.3880130929688573e+18
14150.0	1.3877534210916347e+18
14151.0	1.387465062691635e+18
14152.0	1.3872128189267965e+18
14153.0	1.3868213427240955e+18
14154.0	1.38620328518615e+18
14155.0	1.3851474958221317e+18
14156.0	1.3856154551582712e+18
14157.0	1.385359324951347e+18
14158.0	1.3850457579454461e+18
14159.0	1.3847791545614333e+18
14160.0	1.38450264171479e+18
14161.0	1.3841873558831101e+18
14162.0	1.383884926432051e+18
14163.0	1.3836941216710653e+18
14164.0	1.3833380068065277e+18
14165.0	1.3830469632131067e+18
14166.0	1.3828870620839933e+18
14167.0	1.3826095862251517e+18
14168.0	1.382337387639603e+18
14169.0	1.3820796233318397e+18
14170.0	1.3818026071687165e+18
14171.0	1.381536246215475e+18
14172.0	1.3812728909004797e+18
14173.0	1.3809459860078587e+18
14174.0	1.3807289316147197e+18
14175.0	1.3804648548794365e+18
14176.0	1.380193460761395e+18
14177.0	1.3799266745057275e+18
14178.0	1.3796572324167675e+18
14179.0	1.3793773985202173e+18
14180.0	1.3791208362999808e+18
14181.0	1.3788521072427005e+18
14182.0	1.3787240442363901e+18
14183.0	1.3785141335818237e+18
14184.0	1.3782422738960381e+18
14185.0	1.3779776342851581e+18
14186.0	1.3771869693935616e+18
14187.0	1.3774196643463165e+18
14188.0	1.3771654115098621e+18
14189.0	1.3768946725421053e+18
14190.0	1.376627060847411e+18
14191.0	1.376357723616051e+18
14192.0	1.3761002420043773e+18
14193.0	1.3757584448159741e+18
14194.0	1.3755688815689725e+18
14195.0	1.3753060899684347e+18
14196.0	1.3750380009619453e+18
14197.0	1.374769063867187e+18
14198.0	1.3744981084733437e+18
14199.0	1.37423149334528e+18
14200.0	1.3736431717449728e+18
14201.0	1.3736872001929213e+18
14202.0	1.3734298368606208e+18
14203.0	1.3731512025350144e+18
14204.0	1.3728942561165312e+18
14205.0	1.3726270068097021e+18
14206.0	1.372265286677299e+18
14207.0	1.3720943872442365e+18
14208.0	1.3718274818703357e+18
14209.0	1.3714513677254653e+18
14210.0	1.3712280847908856e+18
14211.0	1.371021831569408e+18
14212.0	1.3707590005424125e+18
14213.0	1.3704868246061053e+18
14214.0	1.3702251302354941e+18
14215.0	1.3699464715829245e+18
14216.0	1.369691896623923e+18
14217.0	1.3694261513945085e+18
14218.0	1.3691517289889787e+18
14219.0	1.3688902015516667e+18
14220.0	1.3686203937193981e+18
14221.0	1.3683511277912061e+18
14222.0	1.3680425385852925e+18
14223.0	1.3678216245936128e+18
14224.0	1.3675573725364221e+18
14225.0	1.3662692648681475e+18
14226.0	1.3670199219716093e+18
14227.0	1.3667594313662461e+18
14228.0	1.3635355517386765e+18
14229.0	1.3657915101544425e+18
14230.0	1.3659624733409275e+18
14231.0	1.3656541752197117e+18
14232.0	1.3654309988204544e+18
14233.0	1.3651599410855933e+18
14234.0	1.3648998262898685e+18
14235.0	1.3646324092108797e+18
14236.0	1.3643690085974013e+18
14237.0	1.364101529442713e+18
14238.0	1.3638372295704573e+18
14239.0	1.3635627106959357e+18
14240.0	1.3619415341858824e+18
14241.0	1.3630351125512192e+18
14242.0	1.3627737092653053e+18
14243.0	1.3623919974023165e+18
14244.0	1.3622462562435072e+18
14245.0	1.361966353560371e+18
14246.0	1.361692738138931e+18
14247.0	1.361448088580915e+18
14248.0	1.3611720203304957e+18
14249.0	1.3609189737758717e+18
14250.0	1.3606554666270717e+18
14251.0	1.3603921197006845e+18
14252.0	1.3601281310457856e+18
14253.0	1.3598629679857664e+18
14254.0	1.359597100282675e+18
14255.0	1.3593051574304765e+18
14256.0	1.358115483366196e+18
14257.0	1.358764988117811e+18
14258.0	1.3585371560411136e+18
14259.0	1.3582584688672765e+18
14260.0	1.3579752417787901e+18
14261.0	1.357732346278707e+18
14262.0	1.3574947834167293e+18
14263.0	1.3558380954124298e+18
14264.0	1.3567276368265213e+18
14265.0	1.356695015207731e+18
14266.0	1.356437057123123e+18
14267.0	1.3561739559829501e+18
14268.0	1.355908293800755e+18
14269.0	1.3556406812671997e+18
14270.0	1.3553832432762877e+18
14271.0	1.3551172530995197e+18
14272.0	1.3548562105237501e+18
14273.0	1.3545922688450557e+18
14274.0	1.3522545441505293e+18
14275.0	1.353878985506816e+18
14276.0	1.3537873307369472e+18
14277.0	1.353523794228019e+18
14278.0	1.3532771246931965e+18
14279.0	1.3530138289373181e+18
14280.0	1.3527452340977661e+18
14281.0	1.3524882432196608e+18
14282.0	1.3522256395239421e+18
14283.0	1.351962891544166e+18
14284.0	1.3517001494364157e+18
14285.0	1.3514373343477757e+18
14286.0	1.3511701345337341e+18
14287.0	1.350911899625062e+18
14288.0	1.350649219593011e+18
14289.0	1.3495148952420324e+18
14290.0	1.3501214301880317e+18
14291.0	1.349860644303667e+18
14292.0	1.3495979374280701e+18
14293.0	1.3493351340834813e+18
14294.0	1.3489673598926848e+18
14295.0	1.3488017654153213e+18
14296.0	1.3478477978140675e+18
14297.0	1.348280092144435e+18
14298.0	1.347659453431808e+18
14299.0	1.3477425442717693e+18
14300.0	1.3474915579592701e+18
14301.0	1.3472333557661693e+18
14302.0	1.3469731495346173e+18
14303.0	1.3466895340535803e+18
14304.0	1.346439669297971e+18
14305.0	1.3461904664035323e+18
14306.0	1.345891477959475e+18
14307.0	1.3456532146487293e+18
14308.0	1.345406061930086e+18
14309.0	1.3451435513479165e+18
14310.0	1.344755442332467e+18
14311.0	1.3441279216058363e+18
14312.0	1.3443000256430075e+18
14313.0	1.3439725771685885e+18
14314.0	1.3438287603564541e+18
14315.0	1.3435777472004093e+18
14316.0	1.3432786555764736e+18
14317.0	1.3430158002225147e+18
14318.0	1.3427962275692544e+18
14319.0	1.342535887958835e+18
14320.0	1.3422747774353405e+18
14321.0	1.3420120680431613e+18
14322.0	1.3417194700406781e+18
14323.0	1.341482429788979e+18
14324.0	1.3412315693055997e+18
14325.0	1.3409662963548157e+18
14326.0	1.3407123908067328e+18
14327.0	1.3404474148126717e+18
14328.0	1.3401855392481277e+18
14329.0	1.339931715908403e+18
14330.0	1.3396750337310717e+18
14331.0	1.3394283725848573e+18
14332.0	1.3391715335405565e+18
14333.0	1.3389119229001725e+18
14334.0	1.3386521579094013e+18
14335.0	1.3383752004665341e+18
14336.0	1.338025949999923e+18
14337.0	1.3378709000028157e+18
14338.0	1.337611119073689e+18
14339.0	1.3373436793454592e+18
14340.0	1.3370935629316093e+18
14341.0	1.3368261047484413e+18
14342.0	1.3365730355445757e+18
14343.0	1.3363105123794941e+18
14344.0	1.3360506316259325e+18
14345.0	1.335793254871859e+18
14346.0	1.3355312316678144e+18
14347.0	1.3352190940807165e+18
14348.0	1.3350149707268093e+18
14349.0	1.3347563860131837e+18
14350.0	1.334417476183654e+18
14351.0	1.334151910470451e+18
14352.0	1.333972952101683e+18
14353.0	1.3337159746453501e+18
14354.0	1.3334196747501565e+18
14355.0	1.3331421384933373e+18
14356.0	1.3328932560437245e+18
14357.0	1.3326538074226685e+18
14358.0	1.3323950742306816e+18
14359.0	1.3321252622041085e+18
14360.0	1.331869147935539e+18
14361.0	1.331616243987251e+18
14362.0	1.3313599887900667e+18
14363.0	1.3311017354264573e+18
14364.0	1.330594788356915e+18
14365.0	1.3305518982430715e+18
14366.0	1.3302791460093947e+18
14367.0	1.3300701010591744e+18
14368.0	1.3298114291040253e+18
14369.0	1.3295546924007421e+18
14370.0	1.3292969566142461e+18
14371.0	1.3290388492124157e+18
14372.0	1.3287746500034557e+18
14373.0	1.3285200104521725e+18
14374.0	1.3282646075375616e+18
14375.0	1.3280038594019325e+18
14376.0	1.3277495184850944e+18
14377.0	1.3274889330884605e+18
14378.0	1.3272298391863293e+18
14379.0	1.3269745528733693e+18
14380.0	1.3267163959787517e+18
14381.0	1.3264511498715133e+18
14382.0	1.3261897298083837e+18
14383.0	1.325909079700275e+18
14384.0	1.3256462545453053e+18
14385.0	1.3254025981984765e+18
14386.0	1.3251331728867325e+18
14387.0	1.3248867239723008e+18
14388.0	1.3246278817284093e+18
14389.0	1.3243735609442301e+18
14390.0	1.3241149670031357e+18
14391.0	1.323859700822835e+18
14392.0	1.3235996741074944e+18
14393.0	1.3233468473343997e+18
14394.0	1.3230621899882493e+18
14395.0	1.322817651159859e+18
14396.0	1.3225767143997437e+18
14397.0	1.322320922253721e+18
14398.0	1.3220633198460925e+18
14399.0	1.321807390126899e+18
14400.0	1.3215310844788733e+18
14401.0	1.321286856028979e+18
14402.0	1.3210340720377853e+18
14403.0	1.3187354558726103e+18
14404.0	1.3136331974639596e+18
14405.0	1.3189645261078472e+18
14406.0	1.3200108371836925e+18
14407.0	1.3166044986212367e+18
14408.0	1.3194604312526845e+18
14409.0	1.3192289870413821e+18
14410.0	1.3189706120429565e+18
14411.0	1.3187321759268864e+18
14412.0	1.318475661521715e+18
14413.0	1.3182234211123197e+18
14414.0	1.3179658489036797e+18
14415.0	1.3177112697503744e+18
14416.0	1.3174475377868795e+18
14417.0	1.3171679085723645e+18
14418.0	1.316901652476723e+18
14419.0	1.316689266343936e+18
14420.0	1.3164304358440957e+18
14421.0	1.3161796785405952e+18
14422.0	1.3159219586924544e+18
14423.0	1.3156616543141885e+18
14424.0	1.302945015319748e+18
14425.0	1.3151539094880253e+18
14426.0	1.3149049473466365e+18
14427.0	1.3146486099410941e+18
14428.0	1.3143766319759357e+18
14429.0	1.314138264646451e+18
14430.0	1.313885494915891e+18
14431.0	1.3131848775368707e+18
14432.0	1.313367917802291e+18
14433.0	1.310744503962827e+18
14434.0	1.312855394825011e+18
14435.0	1.312551991456563e+18
14436.0	1.312357522551603e+18
14437.0	1.3121034710417405e+18
14438.0	1.3117544890105853e+18
14439.0	1.3115781311102973e+18
14440.0	1.311340215087923e+18
14441.0	1.3110785140064253e+18
14442.0	1.3108169312043008e+18
14443.0	1.3105312730972157e+18
14444.0	1.3103202215919613e+18
14445.0	1.3100709163565053e+18
14446.0	1.3068647006208015e+18
14447.0	1.309549729624883e+18
14448.0	1.3093097659432957e+18
14449.0	1.3090556146089981e+18
14450.0	1.3087980818268157e+18
14451.0	1.3085465477382141e+18
14452.0	1.308293485245235e+18
14453.0	1.3080044154912765e+18
14454.0	1.3077873258659835e+18
14455.0	1.307527932490547e+18
14456.0	1.307269458506547e+18
14457.0	1.3070144674725885e+18
14458.0	1.3067707423391741e+18
14459.0	1.306517059089203e+18
14460.0	1.3062648748834816e+18
14461.0	1.3059831820713981e+18
14462.0	1.305326562102477e+18
14463.0	1.3054996501233661e+18
14464.0	1.3052530787352573e+18
14465.0	1.3049764736139261e+18
14466.0	1.3047448666636285e+18
14467.0	1.3044544211779581e+18
14468.0	1.3042354575376381e+18
14469.0	1.3036138650402816e+18
14470.0	1.3031920950575101e+18
14471.0	1.3029303671324672e+18
14472.0	1.3026828352487421e+18
14473.0	1.3024344410161152e+18
14474.0	1.302184213033779e+18
14475.0	1.3019276004818941e+18
14476.0	1.30153145434112e+18
14477.0	1.3014388835352573e+18
14478.0	1.3011862639607805e+18
14479.0	1.3009294886699005e+18
14480.0	1.3006699568824317e+18
14481.0	1.300432591991603e+18
14482.0	1.3001776898768893e+18
14483.0	1.2999198995644413e+18
14484.0	1.2996716085116925e+18
14485.0	1.299391389578035e+18
14486.0	1.2989267026378752e+18
14487.0	1.298918980924211e+18
14488.0	1.2986219965186045e+18
14489.0	1.2983751751499773e+18
14490.0	1.2981547627970557e+18
14491.0	1.2979146162438141e+18
14492.0	1.2976607434113021e+18
14493.0	1.2974023726071805e+18
14494.0	1.2971419952480253e+18
14495.0	1.2969087785238525e+18
14496.0	1.2965476070064125e+18
14497.0	1.2964052271628285e+18
14498.0	1.2961544455323645e+18
14499.0	1.2959041722515453e+18
14500.0	1.2956528101294077e+18
14501.0	1.2953383606419453e+18
14502.0	1.294885504155648e+18
14503.0	1.2948740688052221e+18
14504.0	1.2946436496818173e+18
14505.0	1.2943439238791163e+18
14506.0	1.2940193938014205e+18
14507.0	1.2936944996581376e+18
14508.0	1.2936458121773056e+18
14509.0	1.2933947411398653e+18
14510.0	1.2931416811634683e+18
14511.0	1.2928938749722621e+18
14512.0	1.2926308988223485e+18
14513.0	1.2923920113991677e+18
14514.0	1.2921070621294592e+18
14515.0	1.2918893081264125e+18
14516.0	1.2894304183779343e+18
14517.0	1.2913868154077181e+18
14518.0	1.291139682821734e+18
14519.0	1.2908883265716221e+18
14520.0	1.2906381724090365e+18
14521.0	1.290385818753433e+18
14522.0	1.2901349037441021e+18
14523.0	1.2897179748270075e+18
14524.0	1.2894974987206653e+18
14525.0	1.2893841174560763e+18
14526.0	1.2891358154981373e+18
14527.0	1.2888730280919037e+18
14528.0	1.288509733417779e+18
14529.0	1.2883876464558077e+18
14530.0	1.2881309407903744e+18
14531.0	1.2878948929110013e+18
14532.0	1.2874336167788541e+18
14533.0	1.2873947523579904e+18
14534.0	1.2871469067403261e+18
14535.0	1.2868887322296317e+18
14536.0	1.2866449768972285e+18
14537.0	1.2863870121017344e+18
14538.0	1.286149053297459e+18
14539.0	1.2858990409023485e+18
14540.0	1.2856505577504765e+18
14541.0	1.2853850750844925e+18
14542.0	1.2851512308924416e+18
14543.0	1.2848059859861501e+18
14544.0	1.2846487121690621e+18
14545.0	1.2843927379902461e+18
14546.0	1.266843897561077e+18
14547.0	1.2684669547970422e+18
14548.0	1.2836429247807485e+18
14549.0	1.2833070935703552e+18
14550.0	1.2831514857308157e+18
14551.0	1.2829091078078461e+18
14552.0	1.282658989716275e+18
14553.0	1.2824023889084416e+18
14554.0	1.2821622859759616e+18
14555.0	1.281878295524147e+18
14556.0	1.2816252925902845e+18
14557.0	1.2813802613506045e+18
14558.0	1.2811313847730173e+18
14559.0	1.2792418088779725e+18
14560.0	1.2806044208070653e+18
14561.0	1.280379866998374e+18
14562.0	1.2801106723733501e+18
14563.0	1.2798870429892605e+18
14564.0	1.2795997793026048e+18
14565.0	1.2793927987888125e+18
14566.0	1.279144548840243e+18
14567.0	1.2788940993986557e+18
14568.0	1.2785827486629885e+18
14569.0	1.2783986061344765e+18
14570.0	1.2776599489347581e+18
14571.0	1.2779011029598203e+18
14572.0	1.2775948021661693e+18
14573.0	1.2773620459765757e+18
14574.0	1.277059325440819e+18
14575.0	1.2769035540234237e+18
14576.0	1.2766513782063101e+18
14577.0	1.2764102426361856e+18
14578.0	1.2761635823288317e+18
14579.0	1.2761300237025275e+18
14580.0	1.2759309553238013e+18
14581.0	1.2756762948009981e+18
14582.0	1.2754306872639485e+18
14583.0	1.2751887052832763e+18
14584.0	1.2749173128429568e+18
14585.0	1.274693658293043e+18
14586.0	1.2744436593197053e+18
14587.0	1.2741961123364861e+18
14588.0	1.2739513679871997e+18
14589.0	1.2737121634746363e+18
14590.0	1.2734729958719488e+18
14591.0	1.2732267768053757e+18
14592.0	1.2729882744193021e+18
14593.0	1.2726572180045821e+18
14594.0	1.2725130891362301e+18
14595.0	1.2722685201088512e+18
14596.0	1.2717860962959355e+18
14597.0	1.2715031401594872e+18
14598.0	1.2715256350507005e+18
14599.0	1.2712863130976253e+18
14600.0	1.271040197210931e+18
14601.0	1.270807571883622e+18
14602.0	1.270540290700083e+18
14603.0	1.2703293809623037e+18
14604.0	1.2700372686602237e+18
14605.0	1.269786721071923e+18
14606.0	1.2695354101202941e+18
14607.0	1.2693672579563517e+18
14608.0	1.2691313375838205e+18
14609.0	1.2688841940926464e+18
14610.0	1.2685334814916605e+18
14611.0	1.268410771256115e+18
14612.0	1.268179442807603e+18
14613.0	1.2679422733713405e+18
14614.0	1.267699589264179e+18
14615.0	1.267456458044211e+18
14616.0	1.267226501133107e+18
14617.0	1.2669814455664637e+18
14618.0	1.2667196966699005e+18
14619.0	1.2663792735354872e+18
14620.0	1.2656676981178368e+18
14621.0	1.2660290206302205e+18
14622.0	1.2657882675806205e+18
14623.0	1.2655521291042813e+18
14624.0	1.2652661060927488e+18
14625.0	1.2650728283701245e+18
14626.0	1.2648318714773501e+18
14627.0	1.264588678181683e+18
14628.0	1.264360344466227e+18
14629.0	1.2641219762978816e+18
14630.0	1.2638774047539197e+18
14631.0	1.2636440177410045e+18
14632.0	1.2623240644001797e+18
14633.0	1.2630448932913147e+18
14634.0	1.2629157859033085e+18
14635.0	1.2617731509583816e+18
14636.0	1.2593599531188221e+18
14637.0	1.2622115631005693e+18
14638.0	1.261959428387635e+18
14639.0	1.261714757858099e+18
14640.0	1.2614953865314301e+18
14641.0	1.2571767566499802e+18
14642.0	1.2610173021454333e+18
14643.0	1.260781005124403e+18
14644.0	1.2605318106185725e+18
14645.0	1.2602848625819645e+18
14646.0	1.2600290393980925e+18
