# Flux units: erg / (cm m2 s)
# Wavelength units: Angstrom
wave	flux
14000.0	1.802341819246182e+18
14001.0	1.801940719632384e+18
14002.0	1.801793724376678e+18
14003.0	1.8014742794731515e+18
14004.0	1.801153603121971e+18
14005.0	1.800832512373555e+18
14006.0	1.8005017780813821e+18
14007.0	1.8001787881521147e+18
14008.0	1.7997505211924477e+18
14009.0	1.79954141668311e+18
14010.0	1.7992078453637115e+18
14011.0	1.7981102547271677e+18
14012.0	1.7985789195452413e+18
14013.0	1.7982651184971776e+18
14014.0	1.7979384073814013e+18
14015.0	1.797622348120064e+18
14016.0	1.7973046631464955e+18
14017.0	1.7969845756755965e+18
14018.0	1.7966597167644672e+18
14019.0	1.7963441490755581e+18
14020.0	1.7960231187251197e+18
14021.0	1.7957021638721533e+18
14022.0	1.795380368480665e+18
14023.0	1.795048760095539e+18
14024.0	1.79472631374807e+18
14025.0	1.7944231460995064e+18
14026.0	1.794102150981222e+18
14027.0	1.7937843938656253e+18
14028.0	1.7934567767801853e+18
14029.0	1.793136919157145e+18
14030.0	1.7918714959626243e+18
14031.0	1.7924387789340664e+18
14032.0	1.792183100873113e+18
14033.0	1.79181480574976e+18
14034.0	1.7915467024826365e+18
14035.0	1.791230149971148e+18
14036.0	1.7909116664020987e+18
14037.0	1.79059300499456e+18
14038.0	1.7902742378905595e+18
14039.0	1.7899506137825277e+18
14040.0	1.789632353350451e+18
14041.0	1.7893164786384893e+18
14042.0	1.7889870395473917e+18
14043.0	1.7886320269459456e+18
14044.0	1.7883446466576381e+18
14045.0	1.7880371655868416e+18
14046.0	1.7877209939181565e+18
14047.0	1.7873972926349307e+18
14048.0	1.7870884341547003e+18
14049.0	1.7867720510930941e+18
14050.0	1.7864541446602752e+18
14051.0	1.7861260729122813e+18
14052.0	1.785813488212377e+18
14053.0	1.7855006417879037e+18
14054.0	1.7851831564632061e+18
14055.0	1.784865550342553e+18
14056.0	1.7845479895203837e+18
14057.0	1.7842305645936637e+18
14058.0	1.783913141344665e+18
14059.0	1.7835916814974968e+18
14060.0	1.7832785045618685e+18
14061.0	1.782952677605376e+18
14062.0	1.7826437335613437e+18
14063.0	1.7823074040676352e+18
14064.0	1.7818179992551421e+18
14065.0	1.781681977976422e+18
14066.0	1.78137634743255e+18
14067.0	1.781056120710758e+18
14068.0	1.7807429840404477e+18
14069.0	1.7804241229840381e+18
14070.0	1.780109102232371e+18
14071.0	1.7797896824946685e+18
14072.0	1.779476919956275e+18
14073.0	1.779160577159987e+18
14074.0	1.7788442444300285e+18
14075.0	1.7785066566451195e+18
14076.0	1.7782062337490936e+18
14077.0	1.777683992569446e+18
14078.0	1.777561997043302e+18
14079.0	1.7772512880361472e+18
14080.0	1.7769478855065595e+18
14081.0	1.776632292651827e+18
14082.0	1.7763153223876608e+18
14083.0	1.775998595393126e+18
14084.0	1.7756812711297021e+18
14085.0	1.7750059126882304e+18
14086.0	1.7750292397293563e+18
14087.0	1.7747349086404605e+18
14088.0	1.7744082478563323e+18
14089.0	1.7741051489943547e+18
14090.0	1.7737908916060152e+18
14091.0	1.7734784780337147e+18
14092.0	1.773163724039782e+18
14093.0	1.772848760330649e+18
14094.0	1.7725336590483453e+18
14095.0	1.7722177172275197e+18
14096.0	1.7718670784462843e+18
14097.0	1.7715640651481088e+18
14098.0	1.7712575705776123e+18
14099.0	1.7709594881032187e+18
14100.0	1.7706305976270848e+18
14101.0	1.7703319195615227e+18
14102.0	1.7700152764530685e+18
14103.0	1.7696837318213627e+18
14104.0	1.7693858238300152e+18
14105.0	1.769075195353497e+18
14106.0	1.7687611460026365e+18
14107.0	1.7684433502994427e+18
14108.0	1.7681194342678528e+18
14109.0	1.7678134715351037e+18
14110.0	1.7675031014277115e+18
14111.0	1.7671817472770048e+18
14112.0	1.7668679042859005e+18
14113.0	1.766563733359821e+18
14114.0	1.7662336416350203e+18
14115.0	1.7659311819849725e+18
14116.0	1.7655801875267581e+18
14117.0	1.7636098477916157e+18
14118.0	1.7649811503185915e+18
14119.0	1.7646499278094333e+18
14120.0	1.7643484328493053e+18
14121.0	1.7640389653561344e+18
14122.0	1.7637209985253376e+18
14123.0	1.7634157958004733e+18
14124.0	1.7630958073151485e+18
14125.0	1.7622411675435003e+18
14126.0	1.762487639946035e+18
14127.0	1.762180640381337e+18
14128.0	1.7618675355877368e+18
14129.0	1.761542817605222e+18
14130.0	1.7612189586161661e+18
14131.0	1.7609315212853243e+18
14132.0	1.7606055534002176e+18
14133.0	1.759647688451685e+18
14134.0	1.759983944125644e+18
14135.0	1.7596649622732795e+18
14136.0	1.7593595833876477e+18
14137.0	1.7590543018098685e+18
14138.0	1.7587328637730813e+18
14139.0	1.758435328235929e+18
14140.0	1.7581208275779581e+18
14141.0	1.7577889255915515e+18
14142.0	1.757398244628889e+18
14143.0	1.7571853602127864e+18
14144.0	1.7568789512060928e+18
14145.0	1.7565660997484544e+18
14146.0	1.756252545325465e+18
14147.0	1.7559441146642427e+18
14148.0	1.7556325013651453e+18
14149.0	1.7553226916167677e+18
14150.0	1.7550135311466493e+18
14151.0	1.75469717660631e+18
14152.0	1.7543896150048768e+18
14153.0	1.7540810467704827e+18
14154.0	1.753739764642611e+18
14155.0	1.7534196167737341e+18
14156.0	1.7531442036736e+18
14157.0	1.7528384473006077e+18
14158.0	1.7525233309188093e+18
14159.0	1.7522174940151805e+18
14160.0	1.751895671780147e+18
14161.0	1.7515256318263293e+18
14162.0	1.7511579071283195e+18
14163.0	1.7509671921254397e+18
14164.0	1.7506103004758013e+18
14165.0	1.7503214337261563e+18
14166.0	1.7500444620226552e+18
14167.0	1.7497196333105147e+18
14168.0	1.7494229265678333e+18
14169.0	1.7491179922784256e+18
14170.0	1.7488044378554365e+18
14171.0	1.7484951146463227e+18
14172.0	1.748189260965478e+18
14173.0	1.7478498310422525e+18
14174.0	1.7475634976522237e+18
14175.0	1.7472614423330819e+18
14176.0	1.7469524328579064e+18
14177.0	1.746643362984755e+18
14178.0	1.7463337277194237e+18
14179.0	1.746019223706009e+18
14180.0	1.7457163211374587e+18
14181.0	1.7454074240696317e+18
14182.0	1.7450975371460603e+18
14183.0	1.7447895091380221e+18
14184.0	1.7444740823777277e+18
14185.0	1.7441676263948288e+18
14186.0	1.7435548637462525e+18
14187.0	1.7435135834062843e+18
14188.0	1.743240708698931e+18
14189.0	1.742935537850777e+18
14190.0	1.7426275232645115e+18
14191.0	1.7423181799227387e+18
14192.0	1.7420021911257085e+18
14193.0	1.7416450847277053e+18
14194.0	1.7413821186441208e+18
14195.0	1.7410778906755064e+18
14196.0	1.7407699348094976e+18
14197.0	1.7404621332938752e+18
14198.0	1.740147877583257e+18
14199.0	1.739840654881587e+18
14200.0	1.7393512567799803e+18
14201.0	1.7392155458797563e+18
14202.0	1.7389215553683453e+18
14203.0	1.738609633368473e+18
14204.0	1.738305732555571e+18
14205.0	1.7379975267090427e+18
14206.0	1.7375415622434816e+18
14207.0	1.737384458715136e+18
14208.0	1.7370794321510397e+18
14209.0	1.7366093345587197e+18
14210.0	1.7363487239962616e+18
14211.0	1.7361502696636413e+18
14212.0	1.735852155312537e+18
14213.0	1.7355462982762496e+18
14214.0	1.7352389094801405e+18
14215.0	1.7349173271592957e+18
14216.0	1.7346274705539072e+18
14217.0	1.7343210716135421e+18
14218.0	1.734000160381337e+18
14219.0	1.7337081328041984e+18
14220.0	1.7333998564933632e+18
14221.0	1.7330941907173376e+18
14222.0	1.7327735630200832e+18
14223.0	1.7324824279908347e+18
14224.0	1.7321742238220285e+18
14225.0	1.7312719921217539e+18
14226.0	1.73155002917847e+18
14227.0	1.7312546595799037e+18
14228.0	1.7293206861381635e+18
14229.0	1.7303523792257009e+18
14230.0	1.7303399707967488e+18
14231.0	1.730030483170918e+18
14232.0	1.7297021329211387e+18
14233.0	1.7293852465430525e+18
14234.0	1.7290825385902077e+18
14235.0	1.7287739552563197e+18
14236.0	1.7284715375493115e+18
14237.0	1.72816413533143e+18
14238.0	1.727858630616678e+18
14239.0	1.7275387276951547e+18
14240.0	1.7251555090628613e+18
14241.0	1.7269197943865341e+18
14242.0	1.7266306071920637e+18
14243.0	1.7261463043309565e+18
14244.0	1.726029306737459e+18
14245.0	1.725714448724787e+18
14246.0	1.7254093735067643e+18
14247.0	1.725111190369075e+18
14248.0	1.7247906566242304e+18
14249.0	1.7245023535890427e+18
14250.0	1.7241735973306363e+18
14251.0	1.72386077942743e+18
14252.0	1.7235559927775227e+18
14253.0	1.7232500602437627e+18
14254.0	1.7229424516661243e+18
14255.0	1.7225926014140413e+18
14256.0	1.7217229611335685e+18
14257.0	1.7219522016575485e+18
14258.0	1.7217259575443453e+18
14259.0	1.72140040070103e+18
14260.0	1.7210948573986813e+18
14261.0	1.720790409648537e+18
14262.0	1.7205284199989243e+18
14263.0	1.719333127245005e+18
14264.0	1.7196734060953597e+18
14265.0	1.7196146036310013e+18
14266.0	1.719321998917632e+18
14267.0	1.7190209250656253e+18
14268.0	1.7187179184783352e+18
14269.0	1.7184033356120067e+18
14270.0	1.7180794598457341e+18
14271.0	1.7177674053058557e+18
14272.0	1.717461063408025e+18
14273.0	1.7171378067210237e+18
14274.0	1.715434905875252e+18
14275.0	1.7163776964952067e+18
14276.0	1.716230043572633e+18
14277.0	1.7159364708139005e+18
14278.0	1.7156458927882237e+18
14279.0	1.7153423392636923e+18
14280.0	1.715032923779891e+18
14281.0	1.7147389953441787e+18
14282.0	1.7144367907078141e+18
14283.0	1.714134134764339e+18
14284.0	1.71383140164567e+18
14285.0	1.7135282927173627e+18
14286.0	1.7132244523024381e+18
14287.0	1.712922195656704e+18
14288.0	1.712611852392857e+18
14289.0	1.71097170672353e+18
14290.0	1.712007547138867e+18
14291.0	1.7117117530767357e+18
14292.0	1.7114086978355197e+18
14293.0	1.7110702393131003e+18
14294.0	1.7105991904526333e+18
14295.0	1.7104415181766656e+18
14296.0	1.7090843470987272e+18
14297.0	1.709839836879257e+18
14298.0	1.7092475390787581e+18
14299.0	1.7092341626044413e+18
14300.0	1.7089465960890365e+18
14301.0	1.7086500655071232e+18
14302.0	1.7083500016435197e+18
14303.0	1.7080071894335488e+18
14304.0	1.7077266626379776e+18
14305.0	1.707444604082585e+18
14306.0	1.7071308550438907e+18
14307.0	1.706829992584806e+18
14308.0	1.706534673317888e+18
14309.0	1.7062237864722432e+18
14310.0	1.7058668797231104e+18
14311.0	1.7055109242421243e+18
14312.0	1.7052685924564987e+18
14313.0	1.7048556162514941e+18
14314.0	1.7047232423395323e+18
14315.0	1.704429563884339e+18
14316.0	1.7040690265456635e+18
14317.0	1.7038157442711547e+18
14318.0	1.7035070434967547e+18
14319.0	1.7031957472870397e+18
14320.0	1.70289500562391e+18
14321.0	1.7025913363365885e+18
14322.0	1.7022469370019832e+18
14323.0	1.7019692455559165e+18
14324.0	1.701694303895552e+18
14325.0	1.7013826402648061e+18
14326.0	1.7010941963010048e+18
14327.0	1.7007857035640827e+18
14328.0	1.700485436696166e+18
14329.0	1.7001937379524605e+18
14330.0	1.6998936975769597e+18
14331.0	1.6995933065576448e+18
14332.0	1.699293588304691e+18
14333.0	1.6989936804691965e+18
14334.0	1.6986936803590144e+18
14335.0	1.698377460036403e+18
14336.0	1.6980327369015293e+18
14337.0	1.6977902591541243e+18
14338.0	1.6974909284548603e+18
14339.0	1.6971809911996413e+18
14340.0	1.6968945772789757e+18
14341.0	1.696592708186931e+18
14342.0	1.696293385876275e+18
14343.0	1.695994951080345e+18
14344.0	1.6956901694636032e+18
14345.0	1.6953966571028477e+18
14346.0	1.695059669942272e+18
14347.0	1.6947344821977088e+18
14348.0	1.6944583963312125e+18
14349.0	1.6941618439389181e+18
14350.0	1.693813357674496e+18
14351.0	1.6935065426591741e+18
14352.0	1.6932525976846333e+18
14353.0	1.6929641168109565e+18
14354.0	1.692660588452249e+18
14355.0	1.6923506998509563e+18
14356.0	1.692055736261017e+18
14357.0	1.6917718976430077e+18
14358.0	1.691473493046067e+18
14359.0	1.6911564321849341e+18
14360.0	1.6908717060521981e+18
14361.0	1.6905754925596667e+18
14362.0	1.6902790089539581e+18
14363.0	1.6899791598387197e+18
14364.0	1.689529968335257e+18
14365.0	1.689342660784947e+18
14366.0	1.689054235276083e+18
14367.0	1.688787749332582e+18
14368.0	1.6884893111812093e+18
14369.0	1.6881919652265981e+18
14370.0	1.687894079045632e+18
14371.0	1.6875963069497341e+18
14372.0	1.6872915605651453e+18
14373.0	1.6869985917861885e+18
14374.0	1.686702012550348e+18
14375.0	1.686401311152537e+18
14376.0	1.6861070622719997e+18
14377.0	1.6858084848697336e+18
14378.0	1.685479035712307e+18
14379.0	1.68517591671767e+18
14380.0	1.6848771967090685e+18
14381.0	1.6845656052203515e+18
14382.0	1.684280909286604e+18
14383.0	1.68398259528663e+18
14384.0	1.6836652609568765e+18
14385.0	1.68339052733399e+18
14386.0	1.683070840838553e+18
14387.0	1.682795293520691e+18
14388.0	1.682493535158272e+18
14389.0	1.682200406995763e+18
14390.0	1.6819010393866237e+18
14391.0	1.681606709975449e+18
14392.0	1.681308543614976e+18
14393.0	1.6810127076098043e+18
14394.0	1.6806671489695741e+18
14395.0	1.680405202940723e+18
14396.0	1.6801216075923453e+18
14397.0	1.6798247565656061e+18
14398.0	1.6795274441654267e+18
14399.0	1.6792303381250048e+18
14400.0	1.6789079337205757e+18
14401.0	1.6786262845292544e+18
14402.0	1.6783278447001597e+18
14403.0	1.6774830716092406e+18
14404.0	1.6736036289773537e+18
14405.0	1.6752134515064776e+18
14406.0	1.6771335468351485e+18
14407.0	1.6760898446163965e+18
14408.0	1.6765380647190525e+18
14409.0	1.6762372660133888e+18
14410.0	1.675957034496819e+18
14411.0	1.675671951009382e+18
14412.0	1.6753731940909053e+18
14413.0	1.6750825221128187e+18
14414.0	1.6747830823616507e+18
14415.0	1.6744514639101947e+18
14416.0	1.6741556463599608e+18
14417.0	1.673853017260032e+18
14418.0	1.6735469924515835e+18
14419.0	1.6732654506344448e+18
14420.0	1.6729646871609341e+18
14421.0	1.6726738323111933e+18
14422.0	1.672368966808371e+18
14423.0	1.6720361705963515e+18
14424.0	1.6686834134286316e+18
14425.0	1.6714511222308861e+18
14426.0	1.6711925098348544e+18
14427.0	1.6708997876809725e+18
14428.0	1.6705773732102141e+18
14429.0	1.6703070704500733e+18
14430.0	1.6700121974571003e+18
14431.0	1.6694500617355261e+18
14432.0	1.6694162573230077e+18
14433.0	1.6685378509471736e+18
14434.0	1.6688087476207616e+18
14435.0	1.6684998337757181e+18
14436.0	1.6682437295734784e+18
14437.0	1.6679504739041277e+18
14438.0	1.667616751589785e+18
14439.0	1.667349576102707e+18
14440.0	1.6670649439223803e+18
14441.0	1.6667581893050365e+18
14442.0	1.666453714711347e+18
14443.0	1.6661054717165563e+18
14444.0	1.6658770180440061e+18
14445.0	1.6655842807906304e+18
14446.0	1.663747096785716e+18
14447.0	1.6649671292223488e+18
14448.0	1.6647056747659261e+18
14449.0	1.6644130549530621e+18
14450.0	1.664111414031155e+18
14451.0	1.6638195609370621e+18
14452.0	1.6635284393295867e+18
14453.0	1.6632271003975677e+18
14454.0	1.662939240280883e+18
14455.0	1.6626330292453376e+18
14456.0	1.662309363194265e+18
14457.0	1.6620134131040253e+18
14458.0	1.6617210516602875e+18
14459.0	1.661421712572416e+18
14460.0	1.661119865290752e+18
14461.0	1.6607765732524032e+18
14462.0	1.6604270820327421e+18
14463.0	1.6602201015189504e+18
14464.0	1.659948647841792e+18
14465.0	1.659627359122227e+18
14466.0	1.6593616264757248e+18
14467.0	1.6590405676040187e+18
14468.0	1.6587712630882304e+18
14469.0	1.6584406059712507e+18
14470.0	1.6581470969659387e+18
14471.0	1.6578836124663803e+18
14472.0	1.6575967807930365e+18
14473.0	1.657308123758592e+18
14474.0	1.6570183711719421e+18
14475.0	1.656722582142976e+18
14476.0	1.6563949684129792e+18
14477.0	1.656136787191398e+18
14478.0	1.655841293441433e+18
14479.0	1.6555472374988797e+18
14480.0	1.6552336260333565e+18
14481.0	1.654964918786457e+18
14482.0	1.6546659253092344e+18
14483.0	1.654364237411123e+18
14484.0	1.654066914944614e+18
14485.0	1.6537347998875648e+18
14486.0	1.6530965258043392e+18
14487.0	1.6532010713481213e+18
14488.0	1.6529037337821181e+18
14489.0	1.6525942092464125e+18
14490.0	1.6523166788616187e+18
14491.0	1.6520309393850363e+18
14492.0	1.6517402640515067e+18
14493.0	1.6514351250800637e+18
14494.0	1.6511253102985213e+18
14495.0	1.6508564621230075e+18
14496.0	1.6503890790842365e+18
14497.0	1.650272319727206e+18
14498.0	1.6499826812256253e+18
14499.0	1.6496901150998525e+18
14500.0	1.649396570862387e+18
14501.0	1.6490769195991037e+18
14502.0	1.6485067459133437e+18
14503.0	1.6484951813783547e+18
14504.0	1.648215318960537e+18
14505.0	1.6478865576689661e+18
14506.0	1.647548283695923e+18
14507.0	1.6469614368129021e+18
14508.0	1.6469969743118333e+18
14509.0	1.6467071529385981e+18
14510.0	1.646409969722982e+18
14511.0	1.6461212942335997e+18
14512.0	1.6458093068025853e+18
14513.0	1.6455344540614653e+18
14514.0	1.6452000740802557e+18
14515.0	1.6449358966816763e+18
14516.0	1.641174980047669e+18
14517.0	1.6443242799169528e+18
14518.0	1.644070554723942e+18
14519.0	1.6437795136471037e+18
14520.0	1.6434891151376381e+18
14521.0	1.6431983106195453e+18
14522.0	1.6429054123048957e+18
14523.0	1.6425626923696125e+18
14524.0	1.642282660501913e+18
14525.0	1.6420222630100987e+18
14526.0	1.6417342636425213e+18
14527.0	1.6414134547513341e+18
14528.0	1.640965504761856e+18
14529.0	1.6408458798563325e+18
14530.0	1.64054508282839e+18
14531.0	1.6402741827993597e+18
14532.0	1.6399378449170432e+18
14533.0	1.6396921224560637e+18
14534.0	1.639402624883097e+18
14535.0	1.6390962007769088e+18
14536.0	1.6388133033607163e+18
14537.0	1.6385079160864765e+18
14538.0	1.6382348215975933e+18
14539.0	1.6379432402943997e+18
14540.0	1.6376512479494141e+18
14541.0	1.6373293502169085e+18
14542.0	1.6370637836648443e+18
14543.0	1.6367366480855037e+18
14544.0	1.6364789500477435e+18
14545.0	1.6361692342517757e+18
14546.0	1.6316420283432932e+18
14547.0	1.6315773790191575e+18
14548.0	1.6352808051671037e+18
14549.0	1.6348569875251195e+18
14550.0	1.6347178809163768e+18
14551.0	1.634441642377216e+18
14552.0	1.6341492725448704e+18
14553.0	1.6338469253021693e+18
14554.0	1.6335681651474432e+18
14555.0	1.6332762801766395e+18
14556.0	1.6329835127242747e+18
14557.0	1.6326907721154557e+18
14558.0	1.6323843211657213e+18
14559.0	1.6295315871104975e+18
14560.0	1.631797690708787e+18
14561.0	1.6315064348835837e+18
14562.0	1.6311628794429437e+18
14563.0	1.6309017034883072e+18
14564.0	1.6305952223395837e+18
14565.0	1.6303257802506237e+18
14566.0	1.630034856614297e+18
14567.0	1.6297416932196347e+18
14568.0	1.6294389215133693e+18
14569.0	1.629153064596275e+18
14570.0	1.628152270107443e+18
14571.0	1.6285684893483003e+18
14572.0	1.628232052480409e+18
14573.0	1.6279262189322237e+18
14574.0	1.6276642980691965e+18
14575.0	1.6274005954658307e+18
14576.0	1.627107849823846e+18
14577.0	1.626820284986163e+18
14578.0	1.6265209744195581e+18
14579.0	1.6262319147319293e+18
14580.0	1.6259408434561021e+18
14581.0	1.6256435897761792e+18
14582.0	1.6253529949732861e+18
14583.0	1.6250662371196925e+18
14584.0	1.6247532883542008e+18
14585.0	1.62448279601152e+18
14586.0	1.6241882216529915e+18
14587.0	1.6239003481145341e+18
14588.0	1.6236099328278525e+18
14589.0	1.6233209939361792e+18
14590.0	1.623031847007027e+18
14591.0	1.622740156651929e+18
14592.0	1.622439544173363e+18
14593.0	1.6220050176344061e+18
14594.0	1.6218695332265981e+18
14595.0	1.621573462340403e+18
14596.0	1.6211448967462907e+18
14597.0	1.6208239754477563e+18
14598.0	1.6206972739125243e+18
14599.0	1.6204275432554493e+18
14600.0	1.6201361163026424e+18
14601.0	1.6198473854484477e+18
14602.0	1.6195506266963963e+18
14603.0	1.619267407157657e+18
14604.0	1.6189163942445053e+18
14605.0	1.6186611171590144e+18
14606.0	1.6182914563702781e+18
14607.0	1.6181027395338237e+18
14608.0	1.617815738410598e+18
14609.0	1.6175217512546301e+18
14610.0	1.6172089081856e+18
14611.0	1.6169351073759232e+18
14612.0	1.6166658666135555e+18
14613.0	1.6163795567116288e+18
14614.0	1.6160825379127293e+18
14615.0	1.615799617008435e+18
14616.0	1.6155134614568963e+18
14617.0	1.6152156457402365e+18
14618.0	1.614920380160409e+18
14619.0	1.6145134806630395e+18
14620.0	1.6139796766261248e+18
14621.0	1.614063881473228e+18
14622.0	1.6137733168693243e+18
14623.0	1.6134880136003584e+18
14624.0	1.613121701543936e+18
14625.0	1.612904339288883e+18
14626.0	1.6126058373840893e+18
14627.0	1.6122896606822397e+18
14628.0	1.6120078068088832e+18
14629.0	1.6117179434926075e+18
14630.0	1.6114226863013885e+18
14631.0	1.6111349268479997e+18
14632.0	1.6105829463752701e+18
14633.0	1.6105198271332347e+18
14634.0	1.6102635635474432e+18
14635.0	1.6099323158724603e+18
14636.0	1.609545196712755e+18
14637.0	1.6094000435953661e+18
14638.0	1.6090988304924672e+18
14639.0	1.6087976626880512e+18
14640.0	1.6085161342926843e+18
14641.0	1.607250360454348e+18
14642.0	1.6079332451549181e+18
14643.0	1.6076560771579904e+18
14644.0	1.6073508056465403e+18
14645.0	1.6070437154848765e+18
14646.0	1.6067701847883768e+18
14647.0	1.6064684247482363e+18
14648.0	1.606196580161945e+18
