# Flux units: erg / (cm m2 s)
# Wavelength units: Angstrom
wave	flux
14000.0	1.5873154140340221e+18
14001.0	1.5870255372959744e+18
14002.0	1.5867971255664635e+18
14003.0	1.5865373890969595e+18
14004.0	1.5862775251206141e+18
14005.0	1.586017738319462e+18
14006.0	1.5857566630281213e+18
14007.0	1.5854975422824448e+18
14008.0	1.5852242414338043e+18
14009.0	1.5849786917781501e+18
14010.0	1.584719319374233e+18
14011.0	1.5843518966661123e+18
14012.0	1.5842002943868925e+18
14013.0	1.5839412927594493e+18
14014.0	1.5836820277297147e+18
14015.0	1.583422459032371e+18
14016.0	1.5831636335656957e+18
14017.0	1.582904526241792e+18
14018.0	1.5826454591832064e+18
14019.0	1.5823864525225981e+18
14020.0	1.5821273938526205e+18
14021.0	1.5818684106801147e+18
14022.0	1.581609571791667e+18
14023.0	1.5813507631022077e+18
14024.0	1.5810908739600381e+18
14025.0	1.5808335550873597e+18
14026.0	1.580574701099417e+18
14027.0	1.5803164225699835e+18
14028.0	1.5800579242590203e+18
14029.0	1.579799399104512e+18
14030.0	1.5794920958722048e+18
14031.0	1.5792816357638141e+18
14032.0	1.5790244427202557e+18
14033.0	1.5787603743735803e+18
14034.0	1.578508050078105e+18
14035.0	1.5782500466950141e+18
14036.0	1.5779920198238203e+18
14037.0	1.5777340281847803e+18
14038.0	1.577476105332326e+18
14039.0	1.5772182395224064e+18
14040.0	1.5769604173332475e+18
14041.0	1.5767026505089021e+18
14042.0	1.5764433032708093e+18
14043.0	1.5761806693761021e+18
14044.0	1.5759151481225213e+18
14045.0	1.5756538312392701e+18
14046.0	1.5753963529830397e+18
14047.0	1.5751387438645248e+18
14048.0	1.5748814954561533e+18
14049.0	1.5746242487255037e+18
14050.0	1.574366985217638e+18
14051.0	1.574108468451737e+18
14052.0	1.573852614230016e+18
14053.0	1.5735955587596285e+18
14054.0	1.573338525099622e+18
14055.0	1.5730815535153155e+18
14056.0	1.5728246255517693e+18
14057.0	1.5725677697302523e+18
14058.0	1.5723109541740541e+18
14059.0	1.5720542040489984e+18
14060.0	1.5717975059333115e+18
14061.0	1.5715397021990912e+18
14062.0	1.5712842606968832e+18
14063.0	1.5710254452965376e+18
14064.0	1.5707602864308221e+18
14065.0	1.5705134046642176e+18
14066.0	1.5702584983551997e+18
14067.0	1.5700021978595325e+18
14068.0	1.5697459376291837e+18
14069.0	1.5694895649914877e+18
14070.0	1.5692335799074813e+18
14071.0	1.5689770210426877e+18
14072.0	1.5687214922989565e+18
14073.0	1.5684655156035581e+18
14074.0	1.5682096227942395e+18
14075.0	1.5679537132077053e+18
14076.0	1.5676979177062395e+18
14077.0	1.567431555914137e+18
14078.0	1.5671856791027707e+18
14079.0	1.566929910444851e+18
14080.0	1.5666752457277437e+18
14081.0	1.5664197220171776e+18
14082.0	1.5661640909324285e+18
14083.0	1.5659085823213563e+18
14084.0	1.5656533085913088e+18
14085.0	1.5653597425434621e+18
14086.0	1.565141794763571e+18
14087.0	1.564887668595097e+18
14088.0	1.5646324300972032e+18
14089.0	1.564377478489702e+18
14090.0	1.5641222987120637e+18
14091.0	1.5638674813222912e+18
14092.0	1.5636125649469437e+18
14093.0	1.5633576989032448e+18
14094.0	1.563102883191193e+18
14095.0	1.5628481110999037e+18
14096.0	1.5625915203584e+18
14097.0	1.5623385836945405e+18
14098.0	1.5620833049313277e+18
14099.0	1.561829623359078e+18
14100.0	1.5615730846269435e+18
14101.0	1.5613207519428605e+18
14102.0	1.5610663472726016e+18
14103.0	1.560809293479936e+18
14104.0	1.5605578063675392e+18
14105.0	1.5603035912798205e+18
14106.0	1.5600494365900797e+18
14107.0	1.559795290288947e+18
14108.0	1.5595413134376957e+18
14109.0	1.559286571545395e+18
14110.0	1.5590331466645501e+18
14111.0	1.558778705084416e+18
14112.0	1.5585253657673728e+18
14113.0	1.5582718737776637e+18
14114.0	1.558018163684147e+18
14115.0	1.5577641918660603e+18
14116.0	1.5575096445894653e+18
14117.0	1.5571700066287613e+18
14118.0	1.5570035363807232e+18
14119.0	1.5567491786866685e+18
14120.0	1.5564959517769725e+18
14121.0	1.5562433523351547e+18
14122.0	1.5559885903101947e+18
14123.0	1.5557364119764992e+18
14124.0	1.555482797513113e+18
14125.0	1.5551590073106424e+18
14126.0	1.5549775399092221e+18
14127.0	1.5547247726952443e+18
14128.0	1.5544716531597307e+18
14129.0	1.554217263588966e+18
14130.0	1.5539639494377472e+18
14131.0	1.5537132860866557e+18
14132.0	1.5534601950724093e+18
14133.0	1.55312373974958e+18
14134.0	1.5529548653264893e+18
14135.0	1.5527007475466235e+18
14136.0	1.552449470149427e+18
14137.0	1.552197530052198e+18
14138.0	1.5519444574928893e+18
14139.0	1.5516928747503613e+18
14140.0	1.5514403306733563e+18
14141.0	1.5511877496864763e+18
14142.0	1.550930467723673e+18
14143.0	1.5506837906391037e+18
14144.0	1.5504319931482107e+18
14145.0	1.5501799523876864e+18
14146.0	1.5499277103005693e+18
14147.0	1.549675902743347e+18
14148.0	1.549424081764352e+18
14149.0	1.5491723882921981e+18
14150.0	1.5489205639577597e+18
14151.0	1.5486684929982464e+18
14152.0	1.5484172474777595e+18
14153.0	1.5481655774937088e+18
14154.0	1.5479104748912637e+18
14155.0	1.5476588518834176e+18
14156.0	1.5474107084701693e+18
14157.0	1.5471597129302013e+18
14158.0	1.5469077577334781e+18
14159.0	1.5466570776051707e+18
14160.0	1.546404847262105e+18
14161.0	1.546145397682995e+18
14162.0	1.5458872986697728e+18
14163.0	1.5456520502247421e+18
14164.0	1.5453990632292347e+18
14165.0	1.5451462674939901e+18
14166.0	1.544899437736755e+18
14167.0	1.5446487139876864e+18
14168.0	1.544397701670502e+18
14169.0	1.5441471658262525e+18
14170.0	1.5438959572156413e+18
14171.0	1.543645295542272e+18
14172.0	1.5433952026165248e+18
14173.0	1.5431407258042365e+18
14174.0	1.5428934967492603e+18
14175.0	1.5426437511118843e+18
14176.0	1.5423933746511872e+18
14177.0	1.5421430518775803e+18
14178.0	1.541892720715366e+18
14179.0	1.541641762085273e+18
14180.0	1.5413923838689275e+18
14181.0	1.541142262421913e+18
14182.0	1.5408920688328701e+18
14183.0	1.5406421822668795e+18
14184.0	1.5403914367074301e+18
14185.0	1.540142231296409e+18
14186.0	1.5398750105108477e+18
14187.0	1.5396387084566523e+18
14188.0	1.5393927074938877e+18
14189.0	1.5391430474203133e+18
14190.0	1.5388934141902848e+18
14191.0	1.5386437843156992e+18
14192.0	1.538393149485875e+18
14193.0	1.5381425314332672e+18
14194.0	1.537895253724365e+18
14195.0	1.537646140588032e+18
14196.0	1.5373967774711805e+18
14197.0	1.5371474898518016e+18
14198.0	1.5368973969260541e+18
14199.0	1.5366488407932923e+18
14200.0	1.5363901981982715e+18
14201.0	1.536150463525683e+18
14202.0	1.5359019208146941e+18
14203.0	1.5356521147793405e+18
14204.0	1.5354035804569597e+18
14205.0	1.5351546871021565e+18
14206.0	1.5348876928090112e+18
14207.0	1.5346574255194107e+18
14208.0	1.5344088542871555e+18
14209.0	1.5341398517612541e+18
14210.0	1.5338972314075133e+18
14211.0	1.5336629627518973e+18
14212.0	1.5334144921829373e+18
14213.0	1.533166194419302e+18
14214.0	1.5329176550637565e+18
14215.0	1.5326673339678715e+18
14216.0	1.5324212340195328e+18
14217.0	1.532173006720204e+18
14218.0	1.5319248112975872e+18
14219.0	1.5316766729175037e+18
14220.0	1.5314286150680576e+18
14221.0	1.5311805119201277e+18
14222.0	1.5309325664780285e+18
14223.0	1.5306846411685885e+18
14224.0	1.530436762835353e+18
14225.0	1.5301570379907067e+18
14226.0	1.5299408987947005e+18
14227.0	1.529693416403763e+18
14228.0	1.5293504011894781e+18
14229.0	1.5291825652760573e+18
14230.0	1.5289506018099197e+18
14231.0	1.5287031378739197e+18
14232.0	1.528455725947289e+18
14233.0	1.5282083173761021e+18
14234.0	1.527960959136563e+18
14235.0	1.5277132401868797e+18
14236.0	1.5274663902969853e+18
14237.0	1.5272189448159232e+18
14238.0	1.5269718784999421e+18
14239.0	1.5267236344233981e+18
14240.0	1.5261878271868928e+18
14241.0	1.5262298289471485e+18
14242.0	1.5259835629043707e+18
14243.0	1.5256979039584253e+18
14244.0	1.525472455085261e+18
14245.0	1.5252247596236797e+18
14246.0	1.5249772285788157e+18
14247.0	1.5247321050644483e+18
14248.0	1.5244822503751677e+18
14249.0	1.524238388507443e+18
14250.0	1.5239917567213563e+18
14251.0	1.523745577920102e+18
14252.0	1.5234990518304765e+18
14253.0	1.523252458631987e+18
14254.0	1.5230057547038715e+18
14255.0	1.522753859905126e+18
14256.0	1.522481730106163e+18
14257.0	1.5222653543514104e+18
14258.0	1.5220209824563197e+18
14259.0	1.5217748690862077e+18
14260.0	1.5215266803744763e+18
14261.0	1.521270025879552e+18
14262.0	1.521043486487347e+18
14263.0	1.5207505378410493e+18
14264.0	1.5205410407448576e+18
14265.0	1.5203055792291837e+18
14266.0	1.5200597812707325e+18
14267.0	1.5198139950563325e+18
14268.0	1.5195682121973757e+18
14269.0	1.5193220401070075e+18
14270.0	1.519076772308582e+18
14271.0	1.5188310733357053e+18
14272.0	1.5185854599266304e+18
14273.0	1.5183394505752576e+18
14274.0	1.5180232889729021e+18
14275.0	1.5178417947279357e+18
14276.0	1.517603259626291e+18
14277.0	1.5173576764162043e+18
14278.0	1.5171129807208443e+18
14279.0	1.5168676038705147e+18
14280.0	1.516621420036096e+18
14281.0	1.5163624284749821e+18
14282.0	1.516115073590886e+18
14283.0	1.5158699517542395e+18
14284.0	1.5156248685051901e+18
14285.0	1.5153798137774075e+18
14286.0	1.5151347305283581e+18
14287.0	1.5148898502836221e+18
14288.0	1.5146445472530424e+18
14289.0	1.5142142787715067e+18
14290.0	1.5141549109149693e+18
14291.0	1.5139104501006336e+18
14292.0	1.513665942310092e+18
14293.0	1.5134208808714237e+18
14294.0	1.5131550089740285e+18
14295.0	1.512931751205273e+18
14296.0	1.5125382348931072e+18
14297.0	1.5124421333221368e+18
14298.0	1.5121700353998848e+18
14299.0	1.5119538827821053e+18
14300.0	1.511710232307302e+18
14301.0	1.5114659845636093e+18
14302.0	1.5112212335034365e+18
14303.0	1.510972303238758e+18
14304.0	1.5107148635701243e+18
14305.0	1.5104719294824448e+18
14306.0	1.5102269569630203e+18
14307.0	1.5099832175689725e+18
14308.0	1.5097398573400064e+18
14309.0	1.5094955340988416e+18
14310.0	1.5092467850280952e+18
14311.0	1.508998888239923e+18
14312.0	1.508759707215462e+18
14313.0	1.5084900637999101e+18
14314.0	1.5082765653377027e+18
14315.0	1.5080331883315197e+18
14316.0	1.5077815552573437e+18
14317.0	1.507545167639347e+18
14318.0	1.5073026848587776e+18
14319.0	1.5070592910753787e+18
14320.0	1.5068157597188093e+18
14321.0	1.506572486731366e+18
14322.0	1.5063228669231104e+18
14323.0	1.506082956089753e+18
14324.0	1.5058425452953595e+18
14325.0	1.505599435046912e+18
14326.0	1.5053562459455488e+18
14327.0	1.5051131373748221e+18
14328.0	1.5048689651286016e+18
14329.0	1.504615411063193e+18
14330.0	1.5043671300767744e+18
14331.0	1.5041240768708603e+18
14332.0	1.5038811813707776e+18
14333.0	1.503638265738035e+18
14334.0	1.5033954105032701e+18
14335.0	1.503150392685363e+18
14336.0	1.5029066600022013e+18
14337.0	1.502666999149363e+18
14338.0	1.502424090227507e+18
14339.0	1.5021814396747773e+18
14340.0	1.5019391649316864e+18
14341.0	1.5016964556587005e+18
14342.0	1.5014541372948477e+18
14343.0	1.50121157230592e+18
14344.0	1.5009691885109248e+18
14345.0	1.5007268953128952e+18
14346.0	1.5004840937652221e+18
14347.0	1.5002399097749504e+18
14348.0	1.4999999452545027e+18
14349.0	1.4997578399612928e+18
14350.0	1.4995132130525181e+18
14351.0	1.4992710138068992e+18
14352.0	1.4990307204530176e+18
14353.0	1.498789079888691e+18
14354.0	1.4985470467375104e+18
14355.0	1.4983047065632765e+18
14356.0	1.4980630542548984e+18
14357.0	1.497807401359769e+18
14358.0	1.4975633801084925e+18
14359.0	1.4973214677532672e+18
14360.0	1.4970795000332285e+18
14361.0	1.4968379467104253e+18
14362.0	1.4965963447336957e+18
14363.0	1.496354637060505e+18
14364.0	1.4961053209198587e+18
14365.0	1.4958699835555835e+18
14366.0	1.4956284637872128e+18
14367.0	1.4953885361766397e+18
14368.0	1.4951470281523195e+18
14369.0	1.4949057180991488e+18
14370.0	1.4946643761692667e+18
14371.0	1.4944230761824256e+18
14372.0	1.4941817946505213e+18
14373.0	1.493940548350771e+18
14374.0	1.493699291984691e+18
14375.0	1.4934575843115003e+18
14376.0	1.493217180227993e+18
14377.0	1.4929760278806523e+18
14378.0	1.492734677562163e+18
14379.0	1.4924941459718141e+18
14380.0	1.4922531848847357e+18
14381.0	1.492011873153843e+18
14382.0	1.4917712509665275e+18
14383.0	1.491530315045273e+18
14384.0	1.4912873188818941e+18
14385.0	1.4910492350873597e+18
14386.0	1.490808564246118e+18
14387.0	1.4905678799831035e+18
14388.0	1.490327019559321e+18
14389.0	1.4900743446200315e+18
14390.0	1.4898293200912381e+18
14391.0	1.4895891710214141e+18
14392.0	1.4893485169573885e+18
14393.0	1.489108240380723e+18
14394.0	1.4888620246695936e+18
14395.0	1.4886258635440125e+18
14396.0	1.488387115371724e+18
14397.0	1.4881468136292347e+18
14398.0	1.4879065135644667e+18
14399.0	1.4876662973857784e+18
14400.0	1.487422663688192e+18
14401.0	1.4871848600731648e+18
14402.0	1.4869453334380544e+18
14403.0	1.486636047138816e+18
14404.0	1.4858853589975035e+18
14405.0	1.4859192003198963e+18
14406.0	1.4859848193671165e+18
14407.0	1.4856445270949885e+18
14408.0	1.485504903747993e+18
14409.0	1.4852626071945216e+18
14410.0	1.4850258488000507e+18
14411.0	1.4847866442874877e+18
14412.0	1.4845464767627264e+18
14413.0	1.4843075507519483e+18
14414.0	1.4840675375775741e+18
14415.0	1.4838281535487995e+18
14416.0	1.4835888349511675e+18
14417.0	1.483349162354278e+18
14418.0	1.483108632441651e+18
14419.0	1.4828701074063352e+18
14420.0	1.4826300707438584e+18
14421.0	1.4823915104763901e+18
14422.0	1.4821520727605248e+18
14423.0	1.481910650300006e+18
14424.0	1.4812627679051766e+18
14425.0	1.4814324862222336e+18
14426.0	1.4811798280601597e+18
14427.0	1.4809400615108605e+18
14428.0	1.4806974763892736e+18
14429.0	1.4804612699652093e+18
14430.0	1.4802227482853373e+18
14431.0	1.479969710958182e+18
14432.0	1.4797442553741307e+18
14433.0	1.4794282531553275e+18
14434.0	1.4792645008162813e+18
14435.0	1.4790249020391421e+18
14436.0	1.478789291206246e+18
14437.0	1.4785505346453501e+18
14438.0	1.4783087883845632e+18
14439.0	1.4780724427096064e+18
14440.0	1.4778342431522816e+18
14441.0	1.4775936796852221e+18
14442.0	1.4773535809470464e+18
14443.0	1.4771080094810107e+18
14444.0	1.4768790105489403e+18
14445.0	1.4766411717017597e+18
14446.0	1.4761923123871744e+18
14447.0	1.476162146952806e+18
14448.0	1.4759261250781181e+18
14449.0	1.4756878198243325e+18
14450.0	1.4754494122295293e+18
14451.0	1.4752110700658685e+18
14452.0	1.4749727060918272e+18
14453.0	1.4747333858164736e+18
14454.0	1.4744962230910976e+18
14455.0	1.4742570705879035e+18
14456.0	1.4740196327161853e+18
14457.0	1.4737813811494907e+18
14458.0	1.4735434315726848e+18
14459.0	1.4733050692763645e+18
14460.0	1.4730669083066365e+18
14461.0	1.4728062490902525e+18
14462.0	1.4725525725511675e+18
14463.0	1.4723220938686464e+18
14464.0	1.4720853522513915e+18
14465.0	1.471842790617907e+18
14466.0	1.4716099849355267e+18
14467.0	1.4713546206085115e+18
14468.0	1.4711181054836736e+18
14469.0	1.4708761931284477e+18
14470.0	1.4706371916201981e+18
14471.0	1.4704030353719299e+18
14472.0	1.4701673909846016e+18
14473.0	1.4699297719189504e+18
14474.0	1.4696921847300093e+18
14475.0	1.4694544633233403e+18
14476.0	1.4692120963055616e+18
14477.0	1.4689794013528064e+18
14478.0	1.4687419886469112e+18
14479.0	1.4685044836663293e+18
14480.0	1.4682653026418685e+18
14481.0	1.468029711941632e+18
14482.0	1.467791696933683e+18
14483.0	1.4675531903533056e+18
14484.0	1.4673159068319741e+18
14485.0	1.4670737528848381e+18
14486.0	1.4667911893352445e+18
14487.0	1.466605782643507e+18
14488.0	1.4663687591690235e+18
14489.0	1.4661303599628288e+18
14490.0	1.465894017643315e+18
14491.0	1.4656571552301053e+18
14492.0	1.4654203314044925e+18
14493.0	1.465183205588992e+18
14494.0	1.4649427511738363e+18
14495.0	1.464708933825331e+18
14496.0	1.4644489406644221e+18
14497.0	1.464234885198643e+18
14498.0	1.4639981989462013e+18
14499.0	1.4637612878790653e+18
14500.0	1.4635243097030653e+18
14501.0	1.463285408858112e+18
14502.0	1.4630090176462845e+18
14503.0	1.4628113753309181e+18
14504.0	1.4625759490473981e+18
14505.0	1.4623381924085757e+18
14506.0	1.462099123791462e+18
14507.0	1.461823784511078e+18
14508.0	1.4616298298277885e+18
14509.0	1.461393269404467e+18
14510.0	1.4611566183841787e+18
14511.0	1.4609199287762941e+18
14512.0	1.4606807477518336e+18
14513.0	1.460446621702553e+18
14514.0	1.4602046304944128e+18
14515.0	1.4599727291039744e+18
14516.0	1.4592392074100739e+18
14517.0	1.4594822706823165e+18
14518.0	1.459247782245171e+18
14519.0	1.4590114734800893e+18
14520.0	1.458775037208166e+18
14521.0	1.458538592547635e+18
14522.0	1.4583021059440635e+18
14523.0	1.458060480479232e+18
14524.0	1.4578245223579645e+18
14525.0	1.457591976722432e+18
14526.0	1.457356610836889e+18
14527.0	1.4571165808852992e+18
14528.0	1.4568579416457216e+18
14529.0	1.4566457803276285e+18
14530.0	1.4564087769858045e+18
14531.0	1.4561749193719808e+18
14532.0	1.4559325020225536e+18
14533.0	1.4557026323529725e+18
14534.0	1.4554666641653757e+18
14535.0	1.4552303788883965e+18
14536.0	1.454994276483072e+18
14537.0	1.454756169200435e+18
14538.0	1.4545220867719165e+18
14539.0	1.4542859524898813e+18
14540.0	1.454049806463795e+18
14541.0	1.4538128349986813e+18
14542.0	1.4535774825349115e+18
14543.0	1.453338653831987e+18
14544.0	1.4531050847862781e+18
14545.0	1.4528684371214336e+18
14546.0	1.4520007497089016e+18
14547.0	1.4518062195671032e+18
14548.0	1.452158519292723e+18
14549.0	1.4519046263275515e+18
14550.0	1.451688847841689e+18
14551.0	1.4514531229237248e+18
14552.0	1.4512169534095357e+18
14553.0	1.4509792353583101e+18
14554.0	1.450745298891571e+18
14555.0	1.4505093239930877e+18
14556.0	1.450273263530803e+18
14557.0	1.4500373607743485e+18
14558.0	1.4498006543892477e+18
14559.0	1.4492036455464947e+18
14560.0	1.449328563663667e+18
14561.0	1.4490923471732736e+18
14562.0	1.4488538389151741e+18
14563.0	1.4486218955816955e+18
14564.0	1.4483851153768448e+18
14565.0	1.4481503383715837e+18
14566.0	1.4479145094348797e+18
14567.0	1.447678608356147e+18
14568.0	1.4474424656855037e+18
14569.0	1.447206653526016e+18
14570.0	1.4468718306263035e+18
14571.0	1.4467345879662587e+18
14572.0	1.446491752864153e+18
14573.0	1.4462415995404285e+18
14574.0	1.446009748481638e+18
14575.0	1.4457758808014845e+18
14576.0	1.4455400266989565e+18
14577.0	1.4453045349842944e+18
14578.0	1.4450682815840253e+18
14579.0	1.4448328972435453e+18
14580.0	1.4445970934726653e+18
14581.0	1.4443607343759357e+18
14582.0	1.4441253986893821e+18
14583.0	1.4438896318283773e+18
14584.0	1.4436518164692992e+18
14585.0	1.4434179638886397e+18
14586.0	1.4431815225835515e+18
14587.0	1.4429460644233213e+18
14588.0	1.4427105190215675e+18
14589.0	1.4424766882512893e+18
14590.0	1.442243132627353e+18
14591.0	1.4420094109089787e+18
14592.0	1.441775595238195e+18
14593.0	1.4415218650120187e+18
14594.0	1.441308660151091e+18
14595.0	1.4410741549367293e+18
14596.0	1.4408334740291581e+18
14597.0	1.4405983430246397e+18
14598.0	1.4403732682833915e+18
14599.0	1.4401407209701373e+18
14600.0	1.4399069556310013e+18
14601.0	1.439673368130355e+18
14602.0	1.439439233692467e+18
14603.0	1.4392059783806973e+18
14604.0	1.4389648126115837e+18
14605.0	1.4387369780183037e+18
14606.0	1.4384901147066365e+18
14607.0	1.4382696134344701e+18
14608.0	1.4380374268313597e+18
14609.0	1.437803201796505e+18
14610.0	1.4375674265468925e+18
14611.0	1.4373351208255485e+18
14612.0	1.4371022664892413e+18
14613.0	1.436868561548083e+18
14614.0	1.4366339959357437e+18
14615.0	1.4364007993442301e+18
14616.0	1.4361669719293947e+18
14617.0	1.4359329750646781e+18
14618.0	1.4356990033657853e+18
14619.0	1.435459673024102e+18
14620.0	1.435211608463769e+18
14621.0	1.434996962439987e+18
14622.0	1.4347629286653947e+18
14623.0	1.4345287740948477e+18
14624.0	1.4342846404362237e+18
14625.0	1.4340604297215995e+18
14626.0	1.4338261795209213e+18
14627.0	1.433591513245286e+18
14628.0	1.4333579039342592e+18
14629.0	1.4331236436672507e+18
14630.0	1.4328891770404864e+18
14631.0	1.4326549805268987e+18
14632.0	1.4323852230262781e+18
14633.0	1.4321821113384955e+18
14634.0	1.4319514984382464e+18
14635.0	1.4317126579912704e+18
14636.0	1.4314692004544507e+18
14637.0	1.431247724426035e+18
14638.0	1.4309974704390141e+18
14639.0	1.430760987190886e+18
14640.0	1.4305273543917565e+18
14641.0	1.4301604182228987e+18
14642.0	1.4300573037756413e+18
14643.0	1.429823523337011e+18
14644.0	1.4295884711854077e+18
14645.0	1.4293496995250173e+18
14646.0	1.429117479367475e+18
