# Flux units: erg / (cm m2 s)
# Wavelength units: Angstrom
wave	flux
14000.0	1.698752096947404e+18
14001.0	1.698427630623129e+18
14002.0	1.698139206791987e+18
14003.0	1.6978327977852925e+18
14004.0	1.6975262059069435e+18
14005.0	1.697219679459737e+18
14006.0	1.6969122118107133e+18
14007.0	1.6966062423670781e+18
14008.0	1.6962886261800952e+18
14009.0	1.6959940870537213e+18
14010.0	1.695687988425523e+18
14011.0	1.695299267041689e+18
14012.0	1.695075777747353e+18
14013.0	1.6947698770903037e+18
14014.0	1.6944639613337597e+18
14015.0	1.6941578325065723e+18
14016.0	1.693852334502707e+18
14017.0	1.6935466284613632e+18
14018.0	1.6932409710739453e+18
14019.0	1.6929354026057725e+18
14020.0	1.6926297921945595e+18
14021.0	1.692324263991705e+18
14022.0	1.6920189002055677e+18
14023.0	1.6917134592442365e+18
14024.0	1.6914073018957821e+18
14025.0	1.691103300419584e+18
14026.0	1.6907979886428157e+18
14027.0	1.6904931868934141e+18
14028.0	1.690188215694131e+18
14029.0	1.6898832797270008e+18
14030.0	1.689537365409792e+18
14031.0	1.6892729464193021e+18
14032.0	1.6889689482985467e+18
14033.0	1.6886593751089147e+18
14034.0	1.6883597323534333e+18
14035.0	1.6880552997027837e+18
14036.0	1.687750875440742e+18
14037.0	1.6874465098989565e+18
14038.0	1.687142211466035e+18
14039.0	1.6868379784642557e+18
14040.0	1.686533819282227e+18
14041.0	1.6862297238536187e+18
14042.0	1.6859242141057024e+18
14043.0	1.6856164864098296e+18
14044.0	1.6853161641771005e+18
14045.0	1.6850139981283328e+18
14046.0	1.6847102382440448e+18
14047.0	1.6844063810519037e+18
14048.0	1.684102842626867e+18
14049.0	1.6837993495003133e+18
14050.0	1.6834958530183163e+18
14051.0	1.683191341514752e+18
14052.0	1.68288905634775e+18
14053.0	1.6825857645477888e+18
14054.0	1.6822825448898557e+18
14055.0	1.6819793873076221e+18
14056.0	1.6816762918010883e+18
14057.0	1.6813732650811387e+18
14058.0	1.6810702987591675e+18
14059.0	1.6807674079346685e+18
14060.0	1.6804645791858685e+18
14061.0	1.6801609166094333e+18
14062.0	1.6798591179816957e+18
14063.0	1.6795546031226875e+18
14064.0	1.6792455852589053e+18
14065.0	1.6789503146459133e+18
14066.0	1.6786490109460477e+18
14067.0	1.6783466486038525e+18
14068.0	1.6780443433041915e+18
14069.0	1.6777419423743997e+18
14070.0	1.6774399055101947e+18
14071.0	1.6769452762726397e+18
14072.0	1.6765572612095997e+18
14073.0	1.676255336752742e+18
14074.0	1.675953467660697e+18
14075.0	1.6756516522557437e+18
14076.0	1.675349908992819e+18
14077.0	1.675039461710233e+18
14078.0	1.6747459678044157e+18
14079.0	1.6744443302379515e+18
14080.0	1.6741436254846976e+18
14081.0	1.6738422177660925e+18
14082.0	1.6735405768441856e+18
14083.0	1.6732394123952125e+18
14084.0	1.672938343576371e+18
14085.0	1.6726059433066493e+18
14086.0	1.672335351978393e+18
14087.0	1.672035133764403e+18
14088.0	1.6717340850782203e+18
14089.0	1.6714333048274941e+18
14090.0	1.6711323568046077e+18
14091.0	1.6708317476814843e+18
14092.0	1.670531063060889e+18
14093.0	1.6702304455491581e+18
14094.0	1.669929890113126e+18
14095.0	1.6696293933973504e+18
14096.0	1.6693271837278205e+18
14097.0	1.669028514050867e+18
14098.0	1.6687275005968384e+18
14099.0	1.6684280944001021e+18
14100.0	1.6681263326822397e+18
14101.0	1.6678278559432704e+18
14102.0	1.667527800468275e+18
14103.0	1.6672258156134397e+18
14104.0	1.6669279613091837e+18
14105.0	1.6666281004498941e+18
14106.0	1.6663283503202296e+18
14107.0	1.6660285649584125e+18
14108.0	1.6657290312548347e+18
14109.0	1.665428841562112e+18
14110.0	1.6651295393841147e+18
14111.0	1.664829478875955e+18
14112.0	1.6645308695969792e+18
14113.0	1.664231782167347e+18
14114.0	1.6639325739417597e+18
14115.0	1.663633166067302e+18
14116.0	1.6633328320905213e+18
14117.0	1.6629623274078205e+18
14118.0	1.662736125237657e+18
14119.0	1.662436229146214e+18
14120.0	1.662137499071283e+18
14121.0	1.661839334388531e+18
14122.0	1.6615392554254333e+18
14123.0	1.6612414111875067e+18
14124.0	1.6609426022596605e+18
14125.0	1.660587230625792e+18
14126.0	1.6603465899835392e+18
14127.0	1.6600482608840704e+18
14128.0	1.6597497606569981e+18
14129.0	1.6594502185648128e+18
14130.0	1.6591516965273597e+18
14131.0	1.65885531694039e+18
14132.0	1.6585571589685243e+18
14133.0	1.658191420692889e+18
14134.0	1.6579611634696187e+18
14135.0	1.6576617740500987e+18
14136.0	1.6573643374985213e+18
14137.0	1.6570676945092603e+18
14138.0	1.656769335210803e+18
14139.0	1.6564724573405181e+18
14140.0	1.6561743497003003e+18
14141.0	1.6558770607882237e+18
14142.0	1.6555745558396925e+18
14143.0	1.6552822027845632e+18
14144.0	1.6549853635018747e+18
14145.0	1.6546881282768893e+18
14146.0	1.6543907336683515e+18
14147.0	1.6540937014476797e+18
14148.0	1.6537966860042237e+18
14149.0	1.6534998299443197e+18
14150.0	1.6532029000646653e+18
14151.0	1.6529057235599357e+18
14152.0	1.6526092634423293e+18
14153.0	1.6523125147566077e+18
14154.0	1.6520128871006203e+18
14155.0	1.651714695574323e+18
14156.0	1.6514220824723453e+18
14157.0	1.6511262615666688e+18
14158.0	1.65082934846423e+18
14159.0	1.6505335174922237e+18
14160.0	1.650236421518131e+18
14161.0	1.6499336212905984e+18
14162.0	1.6496317102555133e+18
14163.0	1.6493485427261437e+18
14164.0	1.6490505911140347e+18
14165.0	1.648749909848883e+18
14166.0	1.648460742787072e+18
14167.0	1.6481650728763387e+18
14168.0	1.647869079165337e+18
14169.0	1.647573607225753e+18
14170.0	1.6472775631831035e+18
14171.0	1.646981998968832e+18
14172.0	1.646686865929011e+18
14173.0	1.6463866980466685e+18
14174.0	1.6460954774536192e+18
14175.0	1.6458007219011581e+18
14176.0	1.6455054596767741e+18
14177.0	1.6452102628835325e+18
14178.0	1.6449150392467453e+18
14179.0	1.644619122710937e+18
14180.0	1.6443250617352192e+18
14181.0	1.6440301182779387e+18
14182.0	1.6437351328776192e+18
14183.0	1.6434404276568061e+18
14184.0	1.6431450379255803e+18
14185.0	1.642850960172646e+18
14186.0	1.6425413416845312e+18
14187.0	1.6422587512913915e+18
14188.0	1.6419671397892093e+18
14189.0	1.641672684548915e+18
14190.0	1.6413783400382461e+18
14191.0	1.641084022371123e+18
14192.0	1.6407888742318075e+18
14193.0	1.640493613685145e+18
14194.0	1.6402013914923005e+18
14195.0	1.639907562042163e+18
14196.0	1.6396135362985981e+18
14197.0	1.6393195877302272e+18
14198.0	1.6390250670587904e+18
14199.0	1.6387316486504448e+18
14200.0	1.638430046316134e+18
14201.0	1.638144117257011e+18
14202.0	1.637850875009433e+18
14203.0	1.6375563258167293e+18
14204.0	1.6372634476347384e+18
14205.0	1.6369700292263933e+18
14206.0	1.6366619659862016e+18
14207.0	1.6363836806266877e+18
14208.0	1.6360904870330365e+18
14209.0	1.6357811101368315e+18
14210.0	1.6354924816236541e+18
14211.0	1.635211010270822e+18
14212.0	1.6349179978711037e+18
14213.0	1.634625154921267e+18
14214.0	1.6343322062749693e+18
14215.0	1.634037888607846e+18
14216.0	1.6337468089434112e+18
14217.0	1.6334541387988987e+18
14218.0	1.6331614971756544e+18
14219.0	1.6328689411162112e+18
14220.0	1.6325761635975165e+18
14221.0	1.6322535511556096e+18
14222.0	1.6319610739490813e+18
14223.0	1.631668663851417e+18
14224.0	1.6313763040854013e+18
14225.0	1.6310582114254843e+18
14226.0	1.630791644951347e+18
14227.0	1.63049956704256e+18
14228.0	1.6301374560010237e+18
14229.0	1.6299019508645885e+18
14230.0	1.629623402102784e+18
14231.0	1.6293314785443837e+18
14232.0	1.6290395969290237e+18
14233.0	1.6287477841002493e+18
14234.0	1.6284560316694525e+18
14235.0	1.6281640007368704e+18
14236.0	1.6278726895468541e+18
14237.0	1.627580955570995e+18
14238.0	1.6272895504285693e+18
14239.0	1.6268650113662976e+18
14240.0	1.6263531821268992e+18
14241.0	1.6262783674875904e+18
14242.0	1.6259870797856765e+18
14243.0	1.625676313735987e+18
14244.0	1.6254044725051387e+18
14245.0	1.625111970132787e+18
14246.0	1.6248198888685563e+18
14247.0	1.6245309080338432e+18
14248.0	1.6242375282130941e+18
14249.0	1.6239485457006587e+18
14250.0	1.6236575583109115e+18
14251.0	1.6233669668634621e+18
14252.0	1.6230761287909376e+18
14253.0	1.6227852521308157e+18
14254.0	1.6224943050063872e+18
14255.0	1.6221995125440507e+18
14256.0	1.6218874143834107e+18
14257.0	1.6216217253576704e+18
14258.0	1.621329659192934e+18
14259.0	1.6210121386360824e+18
14260.0	1.620720877777715e+18
14261.0	1.620432037871616e+18
14262.0	1.6201634900082685e+18
14263.0	1.6198348881002493e+18
14264.0	1.6195749486264315e+18
14265.0	1.6192927659196413e+18
14266.0	1.619002654300569e+18
14267.0	1.618712601401753e+18
14268.0	1.618422588768256e+18
14269.0	1.618132290922086e+18
14270.0	1.6178427329511421e+18
14271.0	1.6175528008482813e+18
14272.0	1.6172630952378365e+18
14273.0	1.6169731648126976e+18
14274.0	1.6166259771047933e+18
14275.0	1.616388723782451e+18
14276.0	1.6161040328818688e+18
14277.0	1.6158144883326968e+18
14278.0	1.615525594739507e+18
14279.0	1.6152360736784381e+18
14280.0	1.6149459721256957e+18
14281.0	1.6146514715869181e+18
14282.0	1.614339116734873e+18
14283.0	1.6140498439766013e+18
14284.0	1.6137606249054205e+18
14285.0	1.6134714528104448e+18
14286.0	1.6131822505164797e+18
14287.0	1.6128933015584768e+18
14288.0	1.612604220060467e+18
14289.0	1.612176421185126e+18
14290.0	1.6120262902677501e+18
14291.0	1.6117375493472253e+18
14292.0	1.6114489275449344e+18
14293.0	1.611159911478067e+18
14294.0	1.6108541030957053e+18
14295.0	1.6105828826218493e+18
14296.0	1.610182368532889e+18
14297.0	1.6100056658608125e+18
14298.0	1.609695260521267e+18
14299.0	1.609428762833715e+18
14300.0	1.6091409077501947e+18
14301.0	1.6088526282031104e+18
14302.0	1.6085640483438587e+18
14303.0	1.608271985534566e+18
14304.0	1.6079863483990013e+18
14305.0	1.607699887502131e+18
14306.0	1.607410396640051e+18
14307.0	1.6070953893101565e+18
14308.0	1.6068073027010557e+18
14309.0	1.6065190785187837e+18
14310.0	1.6062236837543933e+18
14311.0	1.6059346609766397e+18
14312.0	1.6056520538062843e+18
14313.0	1.6053503004770301e+18
14314.0	1.6050803416498176e+18
14315.0	1.6047930569916416e+18
14316.0	1.6044990094376957e+18
14317.0	1.6042170901331963e+18
14318.0	1.6039307114446843e+18
14319.0	1.6036434183979003e+18
14320.0	1.6033560297209856e+18
14321.0	1.6030688541147128e+18
14322.0	1.6027766285664253e+18
14323.0	1.6024921155043323e+18
14324.0	1.6022074061488123e+18
14325.0	1.6019203614048253e+18
14326.0	1.601633372025651e+18
14327.0	1.6013464363335675e+18
14328.0	1.6010586835910653e+18
14329.0	1.600772741110169e+18
14330.0	1.6004859664793595e+18
14331.0	1.6001992237252605e+18
14332.0	1.5999125766012923e+18
14333.0	1.5996259647094781e+18
14334.0	1.599334019340697e+18
14335.0	1.5990227550076928e+18
14336.0	1.598735351231283e+18
14337.0	1.5984513666514941e+18
14338.0	1.5981647128166397e+18
14339.0	1.5978782972182525e+18
14340.0	1.5975921701879805e+18
14341.0	1.5973057009025021e+18
14342.0	1.597019607426662e+18
14343.0	1.5967331616292867e+18
14344.0	1.5964471117742077e+18
14345.0	1.596161164260147e+18
14346.0	1.5958747536949243e+18
14347.0	1.59558708316078e+18
14348.0	1.5953031371685888e+18
14349.0	1.5950173003841533e+18
14350.0	1.5947294385897472e+18
14351.0	1.594443543085056e+18
14352.0	1.5941599628361725e+18
14353.0	1.5938742820798464e+18
14354.0	1.5935882590683133e+18
14355.0	1.5933023115542525e+18
14356.0	1.5930169596313597e+18
14357.0	1.5927320791482363e+18
14358.0	1.5924466567610365e+18
14359.0	1.5921612192743421e+18
14360.0	1.5918757297782781e+18
14361.0	1.5915218009849848e+18
14362.0	1.5909431279615997e+18
14363.0	1.590657933744537e+18
14364.0	1.5903665588011005e+18
14365.0	1.590086657795686e+18
14366.0	1.5897980896804864e+18
14367.0	1.5894901086486525e+18
14368.0	1.5892050587156477e+18
14369.0	1.5889202101092347e+18
14370.0	1.5886353464033277e+18
14371.0	1.5883505347067904e+18
14372.0	1.5880657347543037e+18
14373.0	1.5877810119770107e+18
14374.0	1.5874963680526333e+18
14375.0	1.5872117576826877e+18
14376.0	1.5869271791894525e+18
14377.0	1.586642567141785e+18
14378.0	1.5863578359758848e+18
14379.0	1.586073757443686e+18
14380.0	1.5857893551112187e+18
14381.0	1.5855046893764605e+18
14382.0	1.585220580645273e+18
14383.0	1.5849360189292544e+18
14384.0	1.5846523061403648e+18
14385.0	1.584368239352217e+18
14386.0	1.584084164175462e+18
14387.0	1.583800082287821e+18
14388.0	1.583515882959667e+18
14389.0	1.583232158426726e+18
14390.0	1.5829480127856637e+18
14391.0	1.5826644325367805e+18
14392.0	1.582380432857497e+18
14393.0	1.5820968576417792e+18
14394.0	1.5818084623319037e+18
14395.0	1.5815280680763384e+18
14396.0	1.5812457595404285e+18
14397.0	1.580962147414835e+18
14398.0	1.5806785352892413e+18
14399.0	1.5803950573813757e+18
14400.0	1.5801089974599677e+18
14401.0	1.5798273046478843e+18
14402.0	1.579544512928153e+18
14403.0	1.5791251144048635e+18
14404.0	1.5783721294626806e+18
14405.0	1.578433836063129e+18
14406.0	1.5783837241966592e+18
14407.0	1.5779225504055293e+18
14408.0	1.5778163976044544e+18
14409.0	1.5775316949598203e+18
14410.0	1.5772507822882816e+18
14411.0	1.5769681465966592e+18
14412.0	1.576684754252595e+18
14413.0	1.5764023114989563e+18
14414.0	1.5761190533726203e+18
14415.0	1.575836311984537e+18
14416.0	1.5755536444162043e+18
14417.0	1.5752705792278528e+18
14418.0	1.5749865661267963e+18
14419.0	1.5747051014848507e+18
14420.0	1.5744219373109248e+18
14421.0	1.574139910632243e+18
14422.0	1.5738572581634043e+18
14423.0	1.5735733977350144e+18
14424.0	1.5725572621598712e+18
14425.0	1.5730085927583744e+18
14426.0	1.572727470371635e+18
14427.0	1.5724452272668672e+18
14428.0	1.572160214243737e+18
14429.0	1.5718800229924864e+18
14430.0	1.5715984325214205e+18
14431.0	1.571304779232051e+18
14432.0	1.5710334648057853e+18
14433.0	1.5706169804849144e+18
14434.0	1.5704679887405053e+18
14435.0	1.5701852859400192e+18
14436.0	1.569905958715392e+18
14437.0	1.569624032700006e+18
14438.0	1.569338011366195e+18
14439.0	1.5690593015431165e+18
14440.0	1.5687783653834747e+18
14441.0	1.5684952431525885e+18
14442.0	1.5682126108164096e+18
14443.0	1.5679253630681085e+18
14444.0	1.5676386656124923e+18
14445.0	1.567342801086054e+18
14446.0	1.5668283277574144e+18
14447.0	1.5667778518253563e+18
14448.0	1.5664978333794301e+18
14449.0	1.5662162227757056e+18
14450.0	1.5659345853284347e+18
14451.0	1.5656530183454715e+18
14452.0	1.5653713674764285e+18
14453.0	1.565087867758182e+18
14454.0	1.5648085237563387e+18
14455.0	1.5645263729262584e+18
14456.0	1.564245285771673e+18
14457.0	1.563963730532761e+18
14458.0	1.5636829235576832e+18
14459.0	1.5634014119395325e+18
14460.0	1.5631201922449405e+18
14461.0	1.5628361137127421e+18
14462.0	1.562549689725747e+18
14463.0	1.5622760868872187e+18
14464.0	1.561995873825587e+18
14465.0	1.5617114345832448e+18
14466.0	1.561434033383014e+18
14467.0	1.5611504682336253e+18
14468.0	1.5608718724956157e+18
14469.0	1.5605877369208824e+18
14470.0	1.5603061749710843e+18
14471.0	1.5600279382654973e+18
14472.0	1.5597487066710016e+18
14473.0	1.559468027202765e+18
14474.0	1.559187332635033e+18
14475.0	1.5589064317075453e+18
14476.0	1.558617331754598e+18
14477.0	1.5583452875194363e+18
14478.0	1.5580647540129792e+18
14479.0	1.557784161786265e+18
14480.0	1.557502398509875e+18
14481.0	1.557223215569305e+18
14482.0	1.5569422575992824e+18
14483.0	1.5566609053646843e+18
14484.0	1.5563805312417787e+18
14485.0	1.5560964778754043e+18
14486.0	1.5557803095621632e+18
14487.0	1.5555409171447805e+18
14488.0	1.5552606873059323e+18
14489.0	1.554979410568806e+18
14490.0	1.5546998048423928e+18
14491.0	1.5544197847187456e+18
14492.0	1.5541398048604152e+18
14493.0	1.5538595649552381e+18
14494.0	1.553551162815283e+18
14495.0	1.5532728103469056e+18
14496.0	1.5529742899871741e+18
14497.0	1.5527122651054077e+18
14498.0	1.5524322651144184e+18
14499.0	1.5521521543938043e+18
14500.0	1.551871998374707e+18
14501.0	1.5515884248367101e+18
14502.0	1.5512788667465723e+18
14503.0	1.5510298811170816e+18
14504.0	1.5507510085550075e+18
14505.0	1.5504682772332544e+18
14506.0	1.550184386605875e+18
14507.0	1.549878235968307e+18
14508.0	1.5496320085131264e+18
14509.0	1.5493521209294843e+18
14510.0	1.5490722299903995e+18
14511.0	1.5487923340181496e+18
14512.0	1.5485103761260544e+18
14513.0	1.5482326226042877e+18
14514.0	1.5479482622148603e+18
14515.0	1.547672795427635e+18
14516.0	1.5470319510749181e+18
14517.0	1.5471130001276928e+18
14518.0	1.5468337517559805e+18
14519.0	1.5465540889870339e+18
14520.0	1.5462744094408701e+18
14521.0	1.5459947399610368e+18
14522.0	1.5456739595911163e+18
14523.0	1.5449700228399107e+18
14524.0	1.544690662060851e+18
14525.0	1.5444189651140605e+18
14526.0	1.5441402754236413e+18
14527.0	1.5438575189360637e+18
14528.0	1.5435623892516864e+18
14529.0	1.5433004063129597e+18
14530.0	1.5430204633645053e+18
14531.0	1.542742953112371e+18
14532.0	1.542451994243891e+18
14533.0	1.542184293629952e+18
14534.0	1.5419051392106493e+18
14535.0	1.5416257113227264e+18
14536.0	1.5413464361074685e+18
14537.0	1.5410655569903613e+18
14538.0	1.5407879695630328e+18
14539.0	1.540508731257651e+18
14540.0	1.5402295097294848e+18
14541.0	1.5399496338898941e+18
14542.0	1.5396709928534013e+18
14543.0	1.5393867096391677e+18
14544.0	1.5391123719585787e+18
14545.0	1.5388328182415357e+18
14546.0	1.5375023632023544e+18
14547.0	1.5373152787890163e+18
14548.0	1.5379938785886203e+18
14549.0	1.537700367905587e+18
14550.0	1.537418245596774e+18
14551.0	1.5371321319882747e+18
14552.0	1.536852631958323e+18
14553.0	1.5365722494468096e+18
14554.0	1.536294277821235e+18
14555.0	1.5360149606629368e+18
14556.0	1.5357354807656443e+18
14557.0	1.535456393455206e+18
14558.0	1.535176918591078e+18
14559.0	1.534632373780479e+18
14560.0	1.5346180628152315e+18
14561.0	1.534338262473113e+18
14562.0	1.5340568095752192e+18
14563.0	1.5337806465335293e+18
14564.0	1.5335004770926592e+18
14565.0	1.5332221581787133e+18
14566.0	1.5329428477313021e+18
14567.0	1.5326634684973056e+18
14568.0	1.5323836077572093e+18
14569.0	1.5321047687495675e+18
14570.0	1.5317522341429248e+18
14571.0	1.5315456244056064e+18
14572.0	1.5312613898452987e+18
14573.0	1.5309825793589248e+18
14574.0	1.5307057267736573e+18
14575.0	1.5304283272511488e+18
14576.0	1.5301489060741115e+18
14577.0	1.5298448660103165e+18
14578.0	1.5293984511361021e+18
14579.0	1.5291191792762883e+18
14580.0	1.5288396289146875e+18
14581.0	1.5285595316158464e+18
14582.0	1.5282803436421115e+18
14583.0	1.5280007597260797e+18
14584.0	1.5277195031216125e+18
14585.0	1.5274414207664125e+18
14586.0	1.5271612882354176e+18
14587.0	1.5268818704138237e+18
14588.0	1.5266028032360448e+18
14589.0	1.5263275075764221e+18
14590.0	1.5260528863608824e+18
14591.0	1.5257781225390077e+18
14592.0	1.5255033335513085e+18
14593.0	1.525212686739046e+18
14594.0	1.524954018978201e+18
14595.0	1.5246784095846397e+18
14596.0	1.5243976361639936e+18
14597.0	1.5241219110076413e+18
14598.0	1.5238536366129147e+18
14599.0	1.5235794801262587e+18
14600.0	1.523304318684364e+18
14601.0	1.523029304881971e+18
14602.0	1.5227535981805565e+18
14603.0	1.5224788058374141e+18
14604.0	1.5221975676878843e+18
14605.0	1.5219267767107584e+18
14606.0	1.521642649524633e+18
14607.0	1.5213758951456765e+18
14608.0	1.5211019701846013e+18
14609.0	1.5208258675408896e+18
14610.0	1.520549478006784e+18
14611.0	1.5202755647897597e+18
14612.0	1.5200006533283837e+18
14613.0	1.519725116076851e+18
14614.0	1.5194488976703488e+18
14615.0	1.5191539441467384e+18
14616.0	1.5188729190678525e+18
14617.0	1.5185970093621243e+18
14618.0	1.5183210661019643e+18
14619.0	1.5180408765284355e+18
14620.0	1.5177535918702595e+18
14621.0	1.517493033317171e+18
14622.0	1.5172169105407997e+18
14623.0	1.516940697167462e+18
14624.0	1.5166564273750013e+18
14625.0	1.5163879583645693e+18
14626.0	1.5161113087836157e+18
14627.0	1.5158343270137856e+18
14628.0	1.5155585062273021e+18
14629.0	1.5152818918785027e+18
14630.0	1.5150050711699456e+18
14631.0	1.5147284299775997e+18
14632.0	1.5143915787124736e+18
14633.0	1.5141671918370813e+18
14634.0	1.513897439369625e+18
14635.0	1.5136142550630397e+18
14636.0	1.5130562297593853e+18
14637.0	1.5125129969270781e+18
14638.0	1.5122355856605181e+18
14639.0	1.5119571727941632e+18
14640.0	1.5116809426436096e+18
14641.0	1.5111723329519616e+18
14642.0	1.511126054679347e+18
14643.0	1.5108494118092797e+18
14644.0	1.510571878069043e+18
14645.0	1.5102913177190397e+18
14646.0	1.510016010315366e+18
14647.0	1.5097379967467515e+18
