# Flux units: erg / (cm m2 s)
# Wavelength units: Angstrom
wave	flux
14000.0	1.3812118277062653e+18
14001.0	1.380963497227059e+18
14002.0	1.380783968432947e+18
14003.0	1.3805630896734205e+18
14004.0	1.380341926540083e+18
14005.0	1.3801205411086336e+18
14006.0	1.3798984426455037e+18
14007.0	1.379676659594035e+18
14008.0	1.3794428925771773e+18
14009.0	1.3792324358242301e+18
14010.0	1.3790081613561853e+18
14011.0	1.3787241306390525e+18
14012.0	1.378564077676134e+18
14013.0	1.378351104340787e+18
14014.0	1.3781313320386557e+18
14015.0	1.3779108022452221e+18
14016.0	1.3776903244611581e+18
14017.0	1.3774698122838013e+18
14018.0	1.3772417419706368e+18
14019.0	1.3770287233368061e+18
14020.0	1.3768081809604608e+18
14021.0	1.3765876947877885e+18
14022.0	1.3763673101172733e+18
14023.0	1.3761467593523197e+18
14024.0	1.3759262689853437e+18
14025.0	1.375706352399155e+18
14026.0	1.375486096913203e+18
14027.0	1.3752659035029501e+18
14028.0	1.3750455616143357e+18
14029.0	1.3748242718130173e+18
14030.0	1.3745887616434173e+18
14031.0	1.3743775062949885e+18
14032.0	1.3741649800724477e+18
14033.0	1.3739420670754813e+18
14034.0	1.373726326338355e+18
14035.0	1.373506691609395e+18
14036.0	1.3732838096502781e+18
14037.0	1.3730664473952253e+18
14038.0	1.3728478385930237e+18
14039.0	1.3726282902667261e+18
14040.0	1.372408760395366e+18
14041.0	1.3721891827089408e+18
14042.0	1.3719686294274045e+18
14043.0	1.3717466643431421e+18
14044.0	1.3715256186503165e+18
14045.0	1.3713073344872445e+18
14046.0	1.3710928293920765e+18
14047.0	1.3708736694583293e+18
14048.0	1.3706546043158523e+18
14049.0	1.370435555111731e+18
14050.0	1.3702165084241917e+18
14051.0	1.3699970775384061e+18
14052.0	1.3697784813191165e+18
14053.0	1.3695598381236221e+18
14054.0	1.369341064065843e+18
14055.0	1.3691223143350272e+18
14056.0	1.368903610741555e+18
14057.0	1.3686849541242877e+18
14058.0	1.3684663369334784e+18
14059.0	1.3682409241313277e+18
14060.0	1.3680292015374333e+18
14061.0	1.367810025665331e+18
14062.0	1.3675920032268285e+18
14063.0	1.3673724238626813e+18
14064.0	1.3671492457857021e+18
14065.0	1.3669363236208637e+18
14066.0	1.3667191224270845e+18
14067.0	1.3665010555289597e+18
14068.0	1.36628295172096e+18
14069.0	1.3660648906948605e+18
14070.0	1.3658468909055995e+18
14071.0	1.365628643652403e+18
14072.0	1.3654110087675901e+18
14073.0	1.365193158295552e+18
14074.0	1.3649753195675645e+18
14075.0	1.3647556940660736e+18
14076.0	1.3645394072305661e+18
14077.0	1.3643180377374717e+18
14078.0	1.3641032239415293e+18
14079.0	1.3638864396615677e+18
14080.0	1.3636664911986685e+18
14081.0	1.3634513284366333e+18
14082.0	1.3632342606217213e+18
14083.0	1.3630163824672765e+18
14084.0	1.3627971143204861e+18
14085.0	1.3625650745180157e+18
14086.0	1.362358143497011e+18
14087.0	1.3621425235558397e+18
14088.0	1.3619295225380861e+18
14089.0	1.3617138430377981e+18
14090.0	1.3614969052463101e+18
14091.0	1.3612799791988733e+18
14092.0	1.3610630774783997e+18
14093.0	1.3608462026014717e+18
14094.0	1.3606293528903677e+18
14095.0	1.360412493951795e+18
14096.0	1.3601954689187837e+18
14097.0	1.3599773743382525e+18
14098.0	1.3597623332110336e+18
14099.0	1.3595456579829757e+18
14100.0	1.3593281145339901e+18
14101.0	1.3591128192319485e+18
14102.0	1.3588962958376957e+18
14103.0	1.3586781224042493e+18
14104.0	1.358463644152627e+18
14105.0	1.3582474487529472e+18
14106.0	1.3580312063770621e+18
14107.0	1.3578091632787453e+18
14108.0	1.3575988029947901e+18
14109.0	1.3573824247234557e+18
14110.0	1.3571664650436605e+18
14111.0	1.3569503971508221e+18
14112.0	1.356734320030515e+18
14113.0	1.3565184173932541e+18
14114.0	1.356300935181107e+18
14115.0	1.3560854410690557e+18
14116.0	1.3558637427425277e+18
14117.0	1.3556217314017277e+18
14118.0	1.3554353247879165e+18
14119.0	1.3552227624943616e+18
14120.0	1.3550077490495488e+18
14121.0	1.3547923723780093e+18
14122.0	1.354576568726323e+18
14123.0	1.3543602323980285e+18
14124.0	1.3541390298382333e+18
14125.0	1.3538966452043773e+18
14126.0	1.3537102889222141e+18
14127.0	1.3534994362269693e+18
14128.0	1.3532849546199037e+18
14129.0	1.3530688733052925e+18
14130.0	1.3528530864308221e+18
14131.0	1.3526387180699645e+18
14132.0	1.35241779904512e+18
14133.0	1.352169793205043e+18
14134.0	1.3519822709063677e+18
14135.0	1.3517783312629757e+18
14136.0	1.3515652664918013e+18
14137.0	1.3513509803393021e+18
14138.0	1.351136438334259e+18
14139.0	1.3509218837463037e+18
14140.0	1.3507072578551805e+18
14141.0	1.3504923903721467e+18
14142.0	1.3502776998887421e+18
14143.0	1.3500637727686653e+18
14144.0	1.3498495931514877e+18
14145.0	1.3496352809943037e+18
14146.0	1.3494209612873725e+18
14147.0	1.3492067766370301e+18
14148.0	1.3489926171525117e+18
14149.0	1.3487784727674877e+18
14150.0	1.348564310766387e+18
14151.0	1.3483501210828797e+18
14152.0	1.3481362644271101e+18
14153.0	1.3479222945251325e+18
14154.0	1.3477056855670781e+18
14155.0	1.347493748224819e+18
14156.0	1.3472805534302208e+18
14157.0	1.3470666565091325e+18
14158.0	1.3468526891237373e+18
14159.0	1.3466388517617664e+18
14160.0	1.3464230363660285e+18
14161.0	1.3462070330654717e+18
14162.0	1.3459906925428733e+18
14163.0	1.3457784238505981e+18
14164.0	1.3455706296418301e+18
14165.0	1.3453572251320317e+18
14166.0	1.3451446208954365e+18
14167.0	1.3449299807436795e+18
14168.0	1.3447182103347197e+18
14169.0	1.344505075938099e+18
14170.0	1.344291585864499e+18
14171.0	1.3440784162357245e+18
14172.0	1.3438655737626621e+18
14173.0	1.3436517674385408e+18
14174.0	1.3434389685862395e+18
14175.0	1.3432267183489021e+18
14176.0	1.3430139320795133e+18
14177.0	1.3428011198054397e+18
14178.0	1.3425882899152893e+18
14179.0	1.3423753090301947e+18
14180.0	1.3421628734046208e+18
14181.0	1.3419502171586557e+18
14182.0	1.3417375391023101e+18
14183.0	1.3415249298325501e+18
14184.0	1.3413119808241661e+18
14185.0	1.3410991324790781e+18
14186.0	1.3408781010468864e+18
14187.0	1.3406709561163773e+18
14188.0	1.340462542828339e+18
14189.0	1.3402505358606336e+18
14190.0	1.3400383451824128e+18
14191.0	1.339826040419123e+18
14192.0	1.339613434504806e+18
14193.0	1.3394014157930493e+18
14194.0	1.339189865165619e+18
14195.0	1.3389780427472893e+18
14196.0	1.338766114632499e+18
14197.0	1.3385541856788477e+18
14198.0	1.3383418758823936e+18
14199.0	1.3381299578339325e+18
14200.0	1.3379155668238333e+18
14201.0	1.3377055127240701e+18
14202.0	1.3374950551322621e+18
14203.0	1.3372832478134272e+18
14204.0	1.337071590650675e+18
14205.0	1.3368590149353472e+18
14206.0	1.336640436332134e+18
14207.0	1.3364350370709501e+18
14208.0	1.33622449307648e+18
14209.0	1.3360041075671037e+18
14210.0	1.3357937070178301e+18
14211.0	1.3355910709641213e+18
14212.0	1.3353808692248573e+18
14213.0	1.3351700391788541e+18
14214.0	1.3349587955744765e+18
14215.0	1.334746696332083e+18
14216.0	1.3345370532741117e+18
14217.0	1.3343261871570941e+18
14218.0	1.3341140551991293e+18
14219.0	1.333904408785715e+18
14220.0	1.3336935703511035e+18
14221.0	1.3334827377885181e+18
14222.0	1.3332719320694781e+18
14223.0	1.3330610500141053e+18
14224.0	1.3328495748841472e+18
14225.0	1.332626486565273e+18
14226.0	1.3324256381239293e+18
14227.0	1.3322140740747264e+18
14228.0	1.3319609805438973e+18
14229.0	1.331776244101939e+18
14230.0	1.3315863587323901e+18
14231.0	1.331377035280384e+18
14232.0	1.331166988730368e+18
14233.0	1.3309568088014845e+18
14234.0	1.3307465282093053e+18
14235.0	1.3305360815226877e+18
14236.0	1.3303258604896253e+18
14237.0	1.3301150044389373e+18
14238.0	1.329902996632371e+18
14239.0	1.3296813956136957e+18
14240.0	1.3292932798873597e+18
14241.0	1.3292507672608765e+18
14242.0	1.3290591496437757e+18
14243.0	1.3288450497183741e+18
14244.0	1.328645183583027e+18
14245.0	1.3284370966118397e+18
14246.0	1.3282279199604733e+18
14247.0	1.3280182844522493e+18
14248.0	1.3278069292793853e+18
14249.0	1.327599438738227e+18
14250.0	1.3273901287079936e+18
14251.0	1.3271808732037117e+18
14252.0	1.3269714415386621e+18
14253.0	1.3267618345517053e+18
14254.0	1.3265518349778941e+18
14255.0	1.3263377946116093e+18
14256.0	1.3261224892432384e+18
14257.0	1.325917841601331e+18
14258.0	1.3257146888093693e+18
14259.0	1.3255049106948093e+18
14260.0	1.325295960535859e+18
14261.0	1.325086782206771e+18
14262.0	1.3248922361266173e+18
14263.0	1.3246691436134397e+18
14264.0	1.3244649237905408e+18
14265.0	1.324266729504768e+18
14266.0	1.324060087890739e+18
14267.0	1.3238520260853755e+18
14268.0	1.323643601892147e+18
14269.0	1.3234348589318141e+18
14270.0	1.323226318975795e+18
14271.0	1.323017446830899e+18
14272.0	1.3228077517635581e+18
14273.0	1.322594266723123e+18
14274.0	1.3223642494140416e+18
14275.0	1.322171556377395e+18
14276.0	1.3219732823998461e+18
14277.0	1.3217670316949501e+18
14278.0	1.321559632589619e+18
14279.0	1.3213516563480573e+18
14280.0	1.3211435903483901e+18
14281.0	1.3209360670916603e+18
14282.0	1.3207281722195965e+18
14283.0	1.320520216949555e+18
14284.0	1.3203122272862208e+18
14285.0	1.3201040522346493e+18
14286.0	1.319894712005427e+18
14287.0	1.3196853692596221e+18
14288.0	1.319467325010739e+18
14289.0	1.3191485511958525e+18
14290.0	1.3190528027852797e+18
14291.0	1.318854457504563e+18
14292.0	1.3186480381886461e+18
14293.0	1.318439499071488e+18
14294.0	1.3182235049983997e+18
14295.0	1.3180165924323325e+18
14296.0	1.3177269287649277e+18
14297.0	1.3175900493316093e+18
14298.0	1.3173867556110333e+18
14299.0	1.3171941439438848e+18
14300.0	1.3169902579875837e+18
14301.0	1.316783696065331e+18
14302.0	1.3165765251301373e+18
14303.0	1.3163657034727421e+18
14304.0	1.3161606254952445e+18
14305.0	1.3159546272874493e+18
14306.0	1.3157478246121467e+18
14307.0	1.315540827321139e+18
14308.0	1.3153340657500157e+18
14309.0	1.315127143117619e+18
14310.0	1.314920049357619e+18
14311.0	1.3147128742281213e+18
14312.0	1.3145001877831677e+18
14313.0	1.314270993396531e+18
14314.0	1.3140934971621373e+18
14315.0	1.3138865871126525e+18
14316.0	1.313677872673587e+18
14317.0	1.3134742585081856e+18
14318.0	1.313268563129139e+18
14319.0	1.313062417281843e+18
14320.0	1.3128561363779581e+18
14321.0	1.3126496658915325e+18
14322.0	1.312441307968307e+18
14323.0	1.3122355496747008e+18
14324.0	1.3120302678540285e+18
14325.0	1.3118244852334592e+18
14326.0	1.3116185516179453e+18
14327.0	1.3114124879790077e+18
14328.0	1.3112061668098048e+18
14329.0	1.3110008195579901e+18
14330.0	1.3107950285488125e+18
14331.0	1.3105892274733053e+18
14332.0	1.3103834884734973e+18
14333.0	1.3101777687674875e+18
14334.0	1.3099720280899581e+18
14335.0	1.309765055125913e+18
14336.0	1.309559456215859e+18
14337.0	1.3093551751561213e+18
14338.0	1.3091497138192381e+18
14339.0	1.3089442617098237e+18
14340.0	1.3087390016995325e+18
14341.0	1.3085336880021501e+18
14342.0	1.308326926431027e+18
14343.0	1.3081231285551101e+18
14344.0	1.307914492130099e+18
14345.0	1.3077107085148157e+18
14346.0	1.3075072705101821e+18
14347.0	1.3073006238629885e+18
14348.0	1.3070960265527293e+18
14349.0	1.306891055110553e+18
14350.0	1.3066851214950395e+18
14351.0	1.3064802305835005e+18
14352.0	1.3062753807761408e+18
14353.0	1.3060711466926075e+18
14354.0	1.3058665779036157e+18
14355.0	1.3056617457123325e+18
14356.0	1.30545554030592e+18
14357.0	1.3052510998626301e+18
14358.0	1.3050481525915645e+18
14359.0	1.3048421359288317e+18
14360.0	1.304638958809907e+18
14361.0	1.3044344789401595e+18
14362.0	1.304229976421171e+18
14363.0	1.3040252155330557e+18
14364.0	1.3038184397012992e+18
14365.0	1.3036148624457725e+18
14366.0	1.3034117566300157e+18
14367.0	1.3032084285161472e+18
14368.0	1.3030043538161661e+18
14369.0	1.302800287504793e+18
14370.0	1.3025962220322813e+18
14371.0	1.3023921842421757e+18
14372.0	1.302187413287731e+18
14373.0	1.3019827715178493e+18
14374.0	1.301778267321139e+18
14375.0	1.301573220381491e+18
14376.0	1.3013714139611133e+18
14377.0	1.3011675363934205e+18
14378.0	1.300963628626739e+18
14379.0	1.3007600807313408e+18
14380.0	1.3005563482865661e+18
14381.0	1.3003526342967293e+18
14382.0	1.300149044458291e+18
14383.0	1.2999456156811261e+18
14384.0	1.2997402776567805e+18
14385.0	1.2995387203780608e+18
14386.0	1.2993337002819581e+18
14387.0	1.2991318762455037e+18
14388.0	1.2989285028331517e+18
14389.0	1.2987251193544701e+18
14390.0	1.2985218063400957e+18
14391.0	1.2983187458228221e+18
14392.0	1.298115553604403e+18
14393.0	1.2979124293337085e+18
14394.0	1.2977048238686205e+18
14395.0	1.2975050583965693e+18
14396.0	1.297302303224627e+18
14397.0	1.2970999549001725e+18
14398.0	1.2968967744258045e+18
14399.0	1.2966926309392381e+18
14400.0	1.296487203156787e+18
14401.0	1.2962835243991037e+18
14402.0	1.2960778139205632e+18
14403.0	1.2958563051765757e+18
14404.0	1.2953781259993085e+18
14405.0	1.2952001625194493e+18
14406.0	1.2952523337891837e+18
14407.0	1.2950579579977725e+18
14408.0	1.2948643984179197e+18
14409.0	1.2946628142956541e+18
14410.0	1.2944629456437245e+18
14411.0	1.294261377459814e+18
14412.0	1.2940591658696701e+18
14413.0	1.293857495344742e+18
14414.0	1.2936552954986493e+18
14415.0	1.293453236581171e+18
14416.0	1.2932512321896445e+18
14417.0	1.2930491288125437e+18
14418.0	1.292846991881011e+18
14419.0	1.2926448457220093e+18
14420.0	1.2924425158524925e+18
14421.0	1.292240831066931e+18
14422.0	1.292038367818547e+18
14423.0	1.2918335414992893e+18
14424.0	1.2916110730985467e+18
14425.0	1.2914296157634557e+18
14426.0	1.2912314223165437e+18
14427.0	1.2910303121506301e+18
14428.0	1.2908259354607613e+18
14429.0	1.2906268561768445e+18
14430.0	1.290424500302643e+18
14431.0	1.2902187176820733e+18
14432.0	1.290020534301491e+18
14433.0	1.2898137333039101e+18
14434.0	1.2896163560685565e+18
14435.0	1.289415916991283e+18
14436.0	1.2892159233490941e+18
14437.0	1.2890148123443195e+18
14438.0	1.2888130596110333e+18
14439.0	1.2886121381887997e+18
14440.0	1.288411158885171e+18
14441.0	1.2882077796007933e+18
14442.0	1.2880055478779901e+18
14443.0	1.2878010201931773e+18
14444.0	1.287603478541107e+18
14445.0	1.287399579163033e+18
14446.0	1.2871130419298304e+18
14447.0	1.2869858681159677e+18
14448.0	1.2868010729537536e+18
14449.0	1.286602105238323e+18
14450.0	1.2864018993643517e+18
14451.0	1.286201435960115e+18
14452.0	1.2860009071247357e+18
14453.0	1.2858003187302395e+18
14454.0	1.2855996909092861e+18
14455.0	1.2853988240130045e+18
14456.0	1.2851987599065088e+18
14457.0	1.2849983074074621e+18
14458.0	1.2847977500508157e+18
14459.0	1.2845972044382203e+18
14460.0	1.2843966261100541e+18
14461.0	1.2841953414610941e+18
14462.0	1.2839957244674045e+18
14463.0	1.2837957408915453e+18
14464.0	1.283595292586803e+18
14465.0	1.2833928444379136e+18
14466.0	1.283195894182707e+18
14467.0	1.2829943461314557e+18
14468.0	1.282795652723507e+18
14469.0	1.2825895513358333e+18
14470.0	1.282391929991987e+18
14471.0	1.2821939378716667e+18
14472.0	1.2819954843779067e+18
14473.0	1.2817959185547264e+18
14474.0	1.2815962352910333e+18
14475.0	1.281396479046451e+18
14476.0	1.281196586906419e+18
14477.0	1.2809971905331197e+18
14478.0	1.2807976532312061e+18
14479.0	1.280597996811059e+18
14480.0	1.2803972423221245e+18
14481.0	1.2801987804397565e+18
14482.0	1.279998728077312e+18
14483.0	1.2797987075915773e+18
14484.0	1.2795976225914877e+18
14485.0	1.2793926612156413e+18
14486.0	1.2791775739510781e+18
14487.0	1.278999089538662e+18
14488.0	1.2788028204384253e+18
14489.0	1.278603936609075e+18
14490.0	1.2784052910161917e+18
14491.0	1.2782063820210173e+18
14492.0	1.2780075166466045e+18
14493.0	1.2778084482678781e+18
14494.0	1.2776065126629373e+18
14495.0	1.2774076690989053e+18
14496.0	1.2772017983979517e+18
14497.0	1.2770112184516608e+18
14498.0	1.2768138236002301e+18
14499.0	1.2766152098840573e+18
14500.0	1.2764160827850747e+18
14501.0	1.2762130457559037e+18
14502.0	1.2759943304183808e+18
14503.0	1.2758180161388541e+18
14504.0	1.2756209912250365e+18
14505.0	1.2754227340247037e+18
14506.0	1.2752201290088445e+18
14507.0	1.27500705333248e+18
14508.0	1.2748255045615616e+18
14509.0	1.2746294946693117e+18
14510.0	1.2744306494275581e+18
14511.0	1.2742312220164093e+18
14512.0	1.2740319070126077e+18
14513.0	1.2738326104637437e+18
14514.0	1.2736301027557373e+18
14515.0	1.27341636354048e+18
14516.0	1.2729171767721981e+18
14517.0	1.2729898967760893e+18
14518.0	1.2728375286169597e+18
14519.0	1.2726409692708861e+18
14520.0	1.2724487569014781e+18
14521.0	1.2722515776372733e+18
14522.0	1.2720540326297597e+18
14523.0	1.271856144528179e+18
14524.0	1.2716583898054656e+18
14525.0	1.2714605889454077e+18
14526.0	1.2712627914407933e+18
14527.0	1.271058249495347e+18
14528.0	1.2708545011122176e+18
14529.0	1.270668829340467e+18
14530.0	1.2704719143174144e+18
14531.0	1.2702756015964155e+18
14532.0	1.270078209261568e+18
14533.0	1.269881067746099e+18
14534.0	1.2696838574440445e+18
14535.0	1.2694853150310397e+18
14536.0	1.269289008182067e+18
14537.0	1.2690912752697341e+18
14538.0	1.2688946278432765e+18
14539.0	1.2686975911854077e+18
14540.0	1.268500369978163e+18
14541.0	1.2683017545842685e+18
14542.0	1.2681059057532925e+18
14543.0	1.2679072047955965e+18
14544.0	1.2677110053208061e+18
14545.0	1.2675115032510464e+18
14546.0	1.2672534109487101e+18
14547.0	1.2670485846294525e+18
14548.0	1.2669162996367357e+18
14549.0	1.2667164259516413e+18
14550.0	1.2665279834226685e+18
14551.0	1.2663334222430205e+18
14552.0	1.2661366196273152e+18
14553.0	1.2659391073353725e+18
14554.0	1.2657438255742973e+18
14555.0	1.2655468828688381e+18
14556.0	1.2653493479276541e+18
14557.0	1.2651498022371325e+18
14558.0	1.2649339667087357e+18
14559.0	1.2645194436444157e+18
14560.0	1.264538686272307e+18
14561.0	1.2643622260310013e+18
14562.0	1.2641665692991488e+18
14563.0	1.2639744466878461e+18
14564.0	1.263773028660019e+18
14565.0	1.263582762447667e+18
14566.0	1.2633866644750336e+18
14567.0	1.2631903341379581e+18
14568.0	1.2629933436174333e+18
14569.0	1.262790299038515e+18
14570.0	1.2625377029521405e+18
14571.0	1.2624005022351357e+18
14572.0	1.2622057699278845e+18
14573.0	1.262009223164723e+18
14574.0	1.2618184628633597e+18
14575.0	1.2616231785857021e+18
14576.0	1.261427541147648e+18
14577.0	1.2612320161169405e+18
14578.0	1.2610362444611581e+18
14579.0	1.260840773956403e+18
14580.0	1.2606452136935421e+18
14581.0	1.260449462170419e+18
14582.0	1.2602540436750336e+18
14583.0	1.2600583970095101e+18
14584.0	1.2598623594348541e+18
14585.0	1.259667459355443e+18
14586.0	1.2594720744144893e+18
14587.0	1.259276789297971e+18
14588.0	1.259081586389811e+18
14589.0	1.2588863440551936e+18
14590.0	1.2586910639718397e+18
14591.0	1.2584955699789821e+18
14592.0	1.2582985425485821e+18
14593.0	1.258096646370099e+18
14594.0	1.2579087465840637e+18
14595.0	1.2577146803322877e+18
14596.0	1.2575164281651195e+18
14597.0	1.2573209232670717e+18
14598.0	1.257129938989875e+18
14599.0	1.256936103424819e+18
14600.0	1.2567414726197245e+18
14601.0	1.2565467151466493e+18
14602.0	1.2563518905647101e+18
14603.0	1.256156772381491e+18
14604.0	1.2559585386692605e+18
14605.0	1.2557607352926205e+18
14606.0	1.2555591897579517e+18
14607.0	1.2553782852321277e+18
14608.0	1.255179642155827e+18
14609.0	1.254982505673523e+18
14610.0	1.2547879017119744e+18
14611.0	1.2545909128691712e+18
14612.0	1.2544067032317952e+18
14613.0	1.254212448236339e+18
14614.0	1.2540127607783421e+18
14615.0	1.2538202036371453e+18
14616.0	1.2536291899998203e+18
14617.0	1.2534226826035195e+18
14618.0	1.2532310289154045e+18
14619.0	1.2530396528902141e+18
14620.0	1.2528441849020413e+18
14621.0	1.252656382423859e+18
14622.0	1.2524632112365565e+18
14623.0	1.2522688337674237e+18
14624.0	1.2520718575075325e+18
14625.0	1.2518807432069117e+18
14626.0	1.2516832678248445e+18
14627.0	1.2514895044018173e+18
14628.0	1.2513004058836992e+18
14629.0	1.2511066894368768e+18
14630.0	1.2509088248233981e+18
14631.0	1.2507148399411197e+18
14632.0	1.2505147892563965e+18
14633.0	1.2503287290920957e+18
14634.0	1.2501380837146621e+18
14635.0	1.2499439696478205e+18
14636.0	1.249748337242931e+18
14637.0	1.2495575576477693e+18
14638.0	1.2493637900304381e+18
14639.0	1.2491694368882685e+18
14640.0	1.2489754520059901e+18
14641.0	1.2487756336857088e+18
14642.0	1.2485888059637757e+18
14643.0	1.2483966313431037e+18
14644.0	1.2482033511038973e+18
14645.0	1.2480040931426301e+18
14646.0	1.2478114479210493e+18
