# Flux units: erg / (cm m2 s)
# Wavelength units: Angstrom
wave	flux
14000.0	1.7402582599204856e+18
14001.0	1.7405659590950912e+18
14002.0	1.740484992250675e+18
14003.0	1.7401970180489213e+18
14004.0	1.7398950063505405e+18
14005.0	1.73958707061719e+18
14006.0	1.7392690584879096e+18
14007.0	1.738953098212147e+18
14008.0	1.73856101802967e+18
14009.0	1.7383193137119232e+18
14010.0	1.7379900457484288e+18
14011.0	1.7371879673167872e+18
14012.0	1.73735867884503e+18
14013.0	1.7370964526366715e+18
14014.0	1.7367859952877568e+18
14015.0	1.7364813847986176e+18
14016.0	1.7361721001771e+18
14017.0	1.73586215117783e+18
14018.0	1.7355153761894395e+18
14019.0	1.735240533514649e+18
14020.0	1.7349289369927677e+18
14021.0	1.73461708210176e+18
14022.0	1.7343047876476928e+18
14023.0	1.7339825845698557e+18
14024.0	1.7336740968660987e+18
14025.0	1.733371588562124e+18
14026.0	1.7330593746386941e+18
14027.0	1.732744791772365e+18
14028.0	1.73241502049239e+18
14029.0	1.732044775856537e+18
14030.0	1.7306960051306493e+18
14031.0	1.7311114123542523e+18
14032.0	1.731153655706419e+18
14033.0	1.7308371099058176e+18
14034.0	1.730576467466649e+18
14035.0	1.7302698906877947e+18
14036.0	1.729940988467609e+18
14037.0	1.7296503131340797e+18
14038.0	1.72934877455319e+18
14039.0	1.729035954972262e+18
14040.0	1.7287294604017661e+18
14041.0	1.7284205616562176e+18
14042.0	1.7281024522190843e+18
14043.0	1.727771954485657e+18
14044.0	1.7274648945229821e+18
14045.0	1.727160087740416e+18
14046.0	1.7268722745999357e+18
14047.0	1.7265594264977405e+18
14048.0	1.7262566766018557e+18
14049.0	1.7259514822655997e+18
14050.0	1.725642828467404e+18
14051.0	1.7253277624172541e+18
14052.0	1.7250209054588925e+18
14053.0	1.7247179257151485e+18
14054.0	1.7244098893185021e+18
14055.0	1.7241017019269115e+18
14056.0	1.72379350279127e+18
14057.0	1.723485367409049e+18
14058.0	1.7231771263303677e+18
14059.0	1.722833423250227e+18
14060.0	1.7225603790929915e+18
14061.0	1.7222463783960576e+18
14062.0	1.7219397512855547e+18
14063.0	1.7216009052094461e+18
14064.0	1.7210308187652093e+18
14065.0	1.7210046765072384e+18
14066.0	1.7207101088595965e+18
14067.0	1.7204021244723195e+18
14068.0	1.7200994265858048e+18
14069.0	1.7197914187104253e+18
14070.0	1.7194845365862397e+18
14071.0	1.7191755271110653e+18
14072.0	1.718870567655833e+18
14073.0	1.7185631151063035e+18
14074.0	1.7182548035633147e+18
14075.0	1.7179274247143421e+18
14076.0	1.7176180125859835e+18
14077.0	1.7170697918873597e+18
14078.0	1.716961439593267e+18
14079.0	1.7167043925114877e+18
14080.0	1.7163954316902397e+18
14081.0	1.7161039107850237e+18
14082.0	1.715799251641958e+18
14083.0	1.715486972287385e+18
14084.0	1.7151528875851776e+18
14085.0	1.7146353373151227e+18
14086.0	1.7145008326967293e+18
14087.0	1.7142347913494523e+18
14088.0	1.7139490334179325e+18
14089.0	1.7136558364688381e+18
14090.0	1.7133529137676285e+18
14091.0	1.713048415685836e+18
14092.0	1.7127430753878013e+18
14093.0	1.712436884484915e+18
14094.0	1.712129400058675e+18
14095.0	1.7118185367011325e+18
14096.0	1.7114956960890877e+18
14097.0	1.7111799958601725e+18
14098.0	1.710894949282611e+18
14099.0	1.7105984572882941e+18
14100.0	1.710288687805235e+18
14101.0	1.7099946469621757e+18
14102.0	1.7096880919937021e+18
14103.0	1.7093723867316221e+18
14104.0	1.7090780640313341e+18
14105.0	1.7087765959147515e+18
14106.0	1.7084716582699005e+18
14107.0	1.7081388536692733e+18
14108.0	1.7078450644844544e+18
14109.0	1.7075528171257853e+18
14110.0	1.7072481714044925e+18
14111.0	1.7069382677037053e+18
14112.0	1.7066248307212285e+18
14113.0	1.7063240387264512e+18
14114.0	1.7059916921438205e+18
14115.0	1.7056533980381181e+18
14116.0	1.7050211536863227e+18
14117.0	1.7029289492873216e+18
14118.0	1.7045843286687741e+18
14119.0	1.704428763611136e+18
14120.0	1.704160512704512e+18
14121.0	1.7038670791966715e+18
14122.0	1.7035751573159933e+18
14123.0	1.7032698488946688e+18
14124.0	1.702925753227673e+18
14125.0	1.7023645335420923e+18
14126.0	1.7023426996731896e+18
14127.0	1.7020736887586813e+18
14128.0	1.7017764082352123e+18
14129.0	1.7014647446044672e+18
14130.0	1.7011446688776187e+18
14131.0	1.7008542737235965e+18
14132.0	1.7005096797732861e+18
14133.0	1.6998921205186557e+18
14134.0	1.699880841196339e+18
14135.0	1.699640452212326e+18
14136.0	1.699348909496729e+18
14137.0	1.699045642862592e+18
14138.0	1.6987408763453437e+18
14139.0	1.6984423039762424e+18
14140.0	1.6981327072985088e+18
14141.0	1.6978009160417275e+18
14142.0	1.6974780435529725e+18
14143.0	1.6972216121950205e+18
14144.0	1.6969348459528187e+18
14145.0	1.6966363977351165e+18
14146.0	1.696332090913587e+18
14147.0	1.6960376440619003e+18
14148.0	1.695736583631667e+18
14149.0	1.6954358704898048e+18
14150.0	1.6951358133370877e+18
14151.0	1.6948318152163325e+18
14152.0	1.694531820139315e+18
14153.0	1.6942324105871357e+18
14154.0	1.6939059729399805e+18
14155.0	1.6935986613190653e+18
14156.0	1.6933257346023421e+18
14157.0	1.6930255717531643e+18
14158.0	1.6927224678580221e+18
14159.0	1.6924208823009283e+18
14160.0	1.6921004945178621e+18
14161.0	1.6917742917517307e+18
14162.0	1.6914443409555453e+18
14163.0	1.6911727446720507e+18
14164.0	1.6908779320770557e+18
14165.0	1.6905983196397563e+18
14166.0	1.6903125130543104e+18
14167.0	1.690002461714022e+18
14168.0	1.6897151116247035e+18
14169.0	1.689415343040102e+18
14170.0	1.6891158512795648e+18
14171.0	1.6888132725112832e+18
14172.0	1.688517149615718e+18
14173.0	1.6882083012018176e+18
14174.0	1.6879104619970557e+18
14175.0	1.68761695970263e+18
14176.0	1.687318731266457e+18
14177.0	1.687018991203123e+18
14178.0	1.6867186421268477e+18
14179.0	1.6864165196988413e+18
14180.0	1.6861188029677563e+18
14181.0	1.6858183700054013e+18
14182.0	1.685516724050329e+18
14183.0	1.6852137979936765e+18
14184.0	1.684902050476851e+18
14185.0	1.684564833468416e+18
14186.0	1.6840114621644797e+18
14187.0	1.6839048379236347e+18
14188.0	1.6836897825357821e+18
14189.0	1.6834079605391357e+18
14190.0	1.6831166174724093e+18
14191.0	1.6828163975806976e+18
14192.0	1.6825014758146043e+18
14193.0	1.682180853150515e+18
14194.0	1.681919623508787e+18
14195.0	1.681629230032486e+18
14196.0	1.6813322665983997e+18
14197.0	1.681033372106752e+18
14198.0	1.680728969655091e+18
14199.0	1.6804166466797565e+18
14200.0	1.679927496880947e+18
14201.0	1.679747131742617e+18
14202.0	1.6795288349966333e+18
14203.0	1.679238515340083e+18
14204.0	1.678941567005491e+18
14205.0	1.6786360169922557e+18
14206.0	1.6782655307644925e+18
14207.0	1.6780344145477632e+18
14208.0	1.6777440143605757e+18
14209.0	1.6773572206788605e+18
14210.0	1.6770729022324733e+18
14211.0	1.6768478677565437e+18
14212.0	1.6765637858689021e+18
14213.0	1.676268570620723e+18
14214.0	1.6759702515875837e+18
14215.0	1.6756619165564928e+18
14216.0	1.6753761116487683e+18
14217.0	1.6750808863342587e+18
14218.0	1.6747714523955195e+18
14219.0	1.674484187870003e+18
14220.0	1.6741829881888763e+18
14221.0	1.6738881302953981e+18
14222.0	1.6735766025601021e+18
14223.0	1.6732806726025213e+18
14224.0	1.6729469955866621e+18
14225.0	1.67189676032e+18
14226.0	1.6722172454109181e+18
14227.0	1.672004179800883e+18
14228.0	1.6695088675553283e+18
14229.0	1.67054117301125e+18
14230.0	1.6711650891530237e+18
14231.0	1.6709015174119421e+18
14232.0	1.6706204956884984e+18
14233.0	1.6703280000270333e+18
14234.0	1.67003410179031e+18
14235.0	1.6697368850202621e+18
14236.0	1.6694414315356157e+18
14237.0	1.669139574187622e+18
14238.0	1.6688326467649533e+18
14239.0	1.66846569381888e+18
14240.0	1.666822972846899e+18
14241.0	1.6678006399434747e+18
14242.0	1.6676156157722621e+18
14243.0	1.667267602625331e+18
14244.0	1.667064749306675e+18
14245.0	1.666773938077696e+18
14246.0	1.6664832811991037e+18
14247.0	1.666184406840115e+18
14248.0	1.6658683291238397e+18
14249.0	1.665583165105766e+18
14250.0	1.665289857427046e+18
14251.0	1.6649937429200893e+18
14252.0	1.664693397199257e+18
14253.0	1.6643837602562043e+18
14254.0	1.6640676993171456e+18
14255.0	1.6636666752008187e+18
14256.0	1.662805641632153e+18
14257.0	1.662818690950758e+18
14258.0	1.662843022947123e+18
14259.0	1.6625696969326587e+18
14260.0	1.6622669403258877e+18
14261.0	1.6619520487587837e+18
14262.0	1.6615798780985341e+18
14263.0	1.6603893953724416e+18
14264.0	1.660426441143091e+18
14265.0	1.660733737664512e+18
14266.0	1.660526641387929e+18
14267.0	1.660259277996032e+18
14268.0	1.659970560563609e+18
14269.0	1.6596722549522432e+18
14270.0	1.659379000960614e+18
14271.0	1.659063577555763e+18
14272.0	1.6587130495041533e+18
14273.0	1.658168107073536e+18
14274.0	1.6564535309631485e+18
14275.0	1.657213602601369e+18
14276.0	1.6574728709865467e+18
14277.0	1.6572876823986176e+18
14278.0	1.6570302997725181e+18
14279.0	1.65675019576279e+18
14280.0	1.656463181217792e+18
14281.0	1.656178515483033e+18
14282.0	1.6558886873989115e+18
14283.0	1.6555972906450941e+18
14284.0	1.6553049325567997e+18
14285.0	1.655009094873907e+18
14286.0	1.6547003521564667e+18
14287.0	1.6543992984371197e+18
14288.0	1.654045831017267e+18
14289.0	1.652902935186636e+18
14290.0	1.6534656061014008e+18
14291.0	1.6532272421273597e+18
14292.0	1.6529385699934203e+18
14293.0	1.652639714089369e+18
14294.0	1.6522658707406843e+18
14295.0	1.6519943398883323e+18
14296.0	1.651070980639949e+18
14297.0	1.6513220718100475e+18
14298.0	1.6509151035260923e+18
14299.0	1.650831012764057e+18
14300.0	1.6505907999408123e+18
14301.0	1.6503104526614523e+18
14302.0	1.6500211815809021e+18
14303.0	1.6496950023028733e+18
14304.0	1.6494248421490688e+18
14305.0	1.649142706418483e+18
14306.0	1.6488448588251133e+18
14307.0	1.6485487074082816e+18
14308.0	1.6482528730808315e+18
14309.0	1.6479411037536253e+18
14310.0	1.6476325371969533e+18
14311.0	1.6473126174982141e+18
14312.0	1.6470232004558843e+18
14313.0	1.6466516924956672e+18
14314.0	1.6464900020764672e+18
14315.0	1.64619925627863e+18
14316.0	1.64588783927296e+18
14317.0	1.6456198198919165e+18
14318.0	1.6453444420239357e+18
14319.0	1.645059917217792e+18
14320.0	1.644771570561843e+18
14321.0	1.6444776807137275e+18
14322.0	1.6441679917613053e+18
14323.0	1.6438843846688765e+18
14324.0	1.6436106677452797e+18
14325.0	1.643313343601049e+18
14326.0	1.6430350716633085e+18
14327.0	1.6427379220021243e+18
14328.0	1.642450360519884e+18
14329.0	1.6421673624403965e+18
14330.0	1.6418778648674304e+18
14331.0	1.6415879025655805e+18
14332.0	1.641298108035891e+18
14333.0	1.641007867232256e+18
14334.0	1.6407008861224957e+18
14335.0	1.6403883601428477e+18
14336.0	1.6400461233913853e+18
14337.0	1.639822857234022e+18
14338.0	1.639540006794035e+18
14339.0	1.63924266755031e+18
14340.0	1.6389632161742843e+18
14341.0	1.6386721499316221e+18
14342.0	1.638376191452774e+18
14343.0	1.6380957334437885e+18
14344.0	1.6377869269729277e+18
14345.0	1.637507044422451e+18
14346.0	1.6372225330380797e+18
14347.0	1.6369245378052093e+18
14348.0	1.636641405507993e+18
14349.0	1.636349777228595e+18
14350.0	1.6359956152319997e+18
14351.0	1.6357018881228797e+18
14352.0	1.6354725150588928e+18
14353.0	1.6351970767929341e+18
14354.0	1.6349055659540475e+18
14355.0	1.6346044652584957e+18
14356.0	1.6343120450945021e+18
14357.0	1.6340385848623104e+18
14358.0	1.6337634771075067e+18
14359.0	1.6334606299037693e+18
14360.0	1.63318077587456e+18
14361.0	1.632892387275571e+18
14362.0	1.6325879781130237e+18
14363.0	1.6322817251344381e+18
14364.0	1.6318349629718528e+18
14365.0	1.6316018066456576e+18
14366.0	1.6313840954245115e+18
14367.0	1.6311489493204987e+18
14368.0	1.6308643473391608e+18
14369.0	1.6305811009568763e+18
14370.0	1.6302944655769597e+18
14371.0	1.6300088519294976e+18
14372.0	1.629713683657523e+18
14373.0	1.6294293954101248e+18
14374.0	1.629143103963136e+18
14375.0	1.6288501217624056e+18
14376.0	1.6285724974252024e+18
14377.0	1.6282846406639616e+18
14378.0	1.6279961027477501e+18
14379.0	1.6277105109106685e+18
14380.0	1.6274226273058808e+18
14381.0	1.6271254440902653e+18
14382.0	1.6268481536196603e+18
14383.0	1.6265620114898941e+18
14384.0	1.6262576375595003e+18
14385.0	1.6259890813075453e+18
14386.0	1.6256840128004093e+18
14387.0	1.6254150723502077e+18
14388.0	1.625125955620044e+18
14389.0	1.624840808379187e+18
14390.0	1.624553686460006e+18
14391.0	1.6242684301672443e+18
14392.0	1.6239816572141563e+18
14393.0	1.623695385899827e+18
14394.0	1.6233520988946432e+18
14395.0	1.623094823642726e+18
14396.0	1.6228143991881728e+18
14397.0	1.6225308273278976e+18
14398.0	1.6222427826618365e+18
14399.0	1.6219497316745213e+18
14400.0	1.6216482367143933e+18
14401.0	1.6213587542409216e+18
14402.0	1.6210485636497405e+18
14403.0	1.6205488324607995e+18
14404.0	1.6182235841429496e+18
14405.0	1.618274362064895e+18
14406.0	1.619819094029107e+18
14407.0	1.6194791976992765e+18
14408.0	1.619333729170227e+18
14409.0	1.6190688051855363e+18
14410.0	1.6187930884177912e+18
14411.0	1.6185204871790584e+18
14412.0	1.6182390258925565e+18
14413.0	1.6179582222729208e+18
14414.0	1.6176722546262008e+18
14415.0	1.6173872701243387e+18
14416.0	1.6170992137142272e+18
14417.0	1.616809957733171e+18
14418.0	1.616523486769971e+18
14419.0	1.6162413141295101e+18
14420.0	1.6159531268571133e+18
14421.0	1.6156676507828221e+18
14422.0	1.6153658102120448e+18
14423.0	1.6150200687001597e+18
14424.0	1.6142014076682235e+18
14425.0	1.6144455547486203e+18
14426.0	1.6142338816475133e+18
14427.0	1.6139594969907197e+18
14428.0	1.613653423528345e+18
14429.0	1.6133833640378365e+18
14430.0	1.6130457728974848e+18
14431.0	1.6124670377983995e+18
14432.0	1.6124797901602816e+18
14433.0	1.6121051415052285e+18
14434.0	1.611925892051763e+18
14435.0	1.6116501987721216e+18
14436.0	1.6113852211003387e+18
14437.0	1.6111050264936448e+18
14438.0	1.610790027552358e+18
14439.0	1.6105214964662267e+18
14440.0	1.6102578609717243e+18
14441.0	1.609963905692467e+18
14442.0	1.6096738930589693e+18
14443.0	1.6093581257211901e+18
14444.0	1.609102689252147e+18
14445.0	1.6087992095473661e+18
14446.0	1.607796106513613e+18
14447.0	1.608147033862963e+18
14448.0	1.6079756244025341e+18
14449.0	1.6077036271435776e+18
14450.0	1.607417006863155e+18
14451.0	1.6071371645779965e+18
14452.0	1.6068571981414397e+18
14453.0	1.6065728880836603e+18
14454.0	1.6062867224657915e+18
14455.0	1.605997270191308e+18
14456.0	1.6057134869381115e+18
14457.0	1.6054298026704893e+18
14458.0	1.6051446185197563e+18
14459.0	1.6048544314032128e+18
14460.0	1.6045622779969533e+18
14461.0	1.6042556055879677e+18
14462.0	1.603959071650611e+18
14463.0	1.6037032224620541e+18
14464.0	1.6034327653515261e+18
14465.0	1.6031379208798203e+18
14466.0	1.602880883864371e+18
14467.0	1.6025879385735165e+18
14468.0	1.6023167566872576e+18
14469.0	1.6019985298096125e+18
14470.0	1.6017333290008576e+18
14471.0	1.6014696045871101e+18
14472.0	1.6011801724452861e+18
14473.0	1.6009053113155581e+18
14474.0	1.600628228882432e+18
14475.0	1.600345574735872e+18
14476.0	1.600059201080524e+18
14477.0	1.5997825246560256e+18
14478.0	1.5995003117502461e+18
14479.0	1.599218862207795e+18
14480.0	1.5989218887073792e+18
14481.0	1.598657592190566e+18
14482.0	1.5983708410478592e+18
14483.0	1.5980845496008701e+18
14484.0	1.5977890290073597e+18
14485.0	1.5974617105563643e+18
14486.0	1.597028079920742e+18
14487.0	1.5969428197867515e+18
14488.0	1.5966734313848832e+18
14489.0	1.5963765786804221e+18
14490.0	1.5961129633185787e+18
14491.0	1.5958454774530043e+18
14492.0	1.5955664656400381e+18
14493.0	1.595271320856166e+18
14494.0	1.5949785903136765e+18
14495.0	1.5947006287544315e+18
14496.0	1.5943500939919357e+18
14497.0	1.594148116443955e+18
14498.0	1.5938772214480893e+18
14499.0	1.5935998319919104e+18
14500.0	1.593317157712691e+18
14501.0	1.5930011085176832e+18
14502.0	1.5925662816665597e+18
14503.0	1.5924540269920253e+18
14504.0	1.5921857223983101e+18
14505.0	1.591907066262323e+18
14506.0	1.591594749997875e+18
14507.0	1.5911748162813955e+18
14508.0	1.5910527150587901e+18
14509.0	1.590790923380326e+18
14510.0	1.5905099821875197e+18
14511.0	1.590230790858342e+18
14512.0	1.5899420935585792e+18
14513.0	1.5896577382023168e+18
14514.0	1.589347936842547e+18
14515.0	1.5889868945096701e+18
14516.0	1.5864696628314117e+18
14517.0	1.5882445530333181e+18
14518.0	1.588234080695091e+18
14519.0	1.5879651050127352e+18
14520.0	1.5877115677245435e+18
14521.0	1.5874257527504893e+18
14522.0	1.587137097393766e+18
14523.0	1.586845891900211e+18
14524.0	1.586570530809446e+18
14525.0	1.5862980470112253e+18
14526.0	1.5860176728883195e+18
14527.0	1.585691320804966e+18
14528.0	1.5853602593570816e+18
14529.0	1.5851746916040701e+18
14530.0	1.5848951311761405e+18
14531.0	1.584628883469107e+18
14532.0	1.5843471319367677e+18
14533.0	1.5840713614819325e+18
14534.0	1.5837950357012477e+18
14535.0	1.583506648779981e+18
14536.0	1.5832338562809853e+18
14537.0	1.5829489439211515e+18
14538.0	1.5826807618011133e+18
14539.0	1.5824029864689664e+18
14540.0	1.5821232867901437e+18
14541.0	1.581818132719206e+18
14542.0	1.5815608725667837e+18
14543.0	1.5812662898196475e+18
14544.0	1.580993852997632e+18
14545.0	1.5806768860889088e+18
14546.0	1.5793551854010363e+18
14547.0	1.5790363495104504e+18
14548.0	1.579812857787187e+18
14549.0	1.5795068380119037e+18
14550.0	1.5793064677212157e+18
14551.0	1.5790550544285693e+18
14552.0	1.578775421858611e+18
14553.0	1.5784951802757115e+18
14554.0	1.5782250905862141e+18
14555.0	1.577945166092697e+18
14556.0	1.577660560755916e+18
14557.0	1.5773667967369216e+18
14558.0	1.5769769009479677e+18
14559.0	1.5750599765131254e+18
14560.0	1.5764108074811392e+18
14561.0	1.5762472329805821e+18
14562.0	1.5759618894462968e+18
14563.0	1.5757116136488957e+18
14564.0	1.5754095314862077e+18
14565.0	1.5751673540509696e+18
14566.0	1.5748925684187128e+18
14567.0	1.5746123385798653e+18
14568.0	1.5743265538047995e+18
14569.0	1.5740133366038525e+18
14570.0	1.5733021990715392e+18
14571.0	1.5734700920274941e+18
14572.0	1.5731883371397115e+18
14573.0	1.5728972658638843e+18
14574.0	1.572654769661542e+18
14575.0	1.572386713370624e+18
14576.0	1.5720978180997115e+18
14577.0	1.571832739764633e+18
14578.0	1.571549122605875e+18
14579.0	1.5712777880469504e+18
14580.0	1.5710000731127805e+18
14581.0	1.5707214152990715e+18
14582.0	1.5704381454286843e+18
14583.0	1.5701692284665853e+18
14584.0	1.5698792158330875e+18
14585.0	1.5696130151022587e+18
14586.0	1.5693408400048125e+18
14587.0	1.5690664788361213e+18
14588.0	1.5687907721347072e+18
14589.0	1.5685145067519995e+18
14590.0	1.568237617256857e+18
14591.0	1.5679548775464957e+18
14592.0	1.567659689141862e+18
14593.0	1.5673225744744448e+18
14594.0	1.5671119046508544e+18
14595.0	1.5668306732122107e+18
14596.0	1.5663322137362432e+18
14597.0	1.5660192364494843e+18
14598.0	1.565975018418995e+18
14599.0	1.5657434542505981e+18
14600.0	1.5654727370932221e+18
14601.0	1.5651978642194432e+18
14602.0	1.5649169297375232e+18
14603.0	1.5646409126576123e+18
14604.0	1.5643313394679803e+18
14605.0	1.564046329800294e+18
14606.0	1.5637204592230397e+18
14607.0	1.56353779728384e+18
14608.0	1.563243972866867e+18
14609.0	1.5629508128276475e+18
14610.0	1.562669693796352e+18
14611.0	1.5623834694582272e+18
14612.0	1.5621699558965243e+18
14613.0	1.5618977506000893e+18
14614.0	1.5615933850583035e+18
14615.0	1.5613266608783357e+18
14616.0	1.5610698553884672e+18
14617.0	1.5607234662760448e+18
14618.0	1.560423753056256e+18
14619.0	1.559905176020582e+18
14620.0	1.5595063899848701e+18
14621.0	1.5596362053713915e+18
14622.0	1.5594060840435712e+18
14623.0	1.559143176680243e+18
14624.0	1.558842153159884e+18
14625.0	1.558595484463923e+18
14626.0	1.558307610925465e+18
14627.0	1.5580363183095803e+18
14628.0	1.5577881044320253e+18
14629.0	1.5575139143909373e+18
14630.0	1.5572169694117885e+18
14631.0	1.5569408046923773e+18
14632.0	1.5565955799187456e+18
14633.0	1.5563847540670464e+18
14634.0	1.5561379779969021e+18
14635.0	1.555838655686246e+18
14636.0	1.555488332316672e+18
14637.0	1.5553186978856957e+18
14638.0	1.5550299267661821e+18
14639.0	1.5547496533065725e+18
14640.0	1.5544707203465213e+18
14641.0	1.554029739612569e+18
14642.0	1.5539183472869373e+18
14643.0	1.5536487995015163e+18
14644.0	1.5533631053234173e+18
14645.0	1.5530653349052413e+18
14646.0	1.5527907573104635e+18
14647.0	1.5525362368774144e+18
14648.0	1.5522689506607101e+18
