# Flux units: erg / (cm m2 s)
# Wavelength units: Angstrom
wave	flux
14000.0	2.321371457231257e+18
14001.0	2.320883825770496e+18
14002.0	2.320401222441369e+18
14003.0	2.3199148408831995e+18
14004.0	2.3194284727468027e+18
14005.0	2.318942205273702e+18
14006.0	2.318455615678054e+18
14007.0	2.317969682071552e+18
14008.0	2.3174778663731195e+18
14009.0	2.316997774593229e+18
14010.0	2.3165124516773883e+18
14011.0	2.3159891015237627e+18
14012.0	2.3155413109178363e+18
14013.0	2.3150564812521467e+18
14014.0	2.314571363018342e+18
14015.0	2.314086191097446e+18
14016.0	2.313601411763404e+18
14017.0	2.313116630751641e+18
14018.0	2.3126319369814006e+18
14019.0	2.3121473623293947e+18
14020.0	2.3116628732411904e+18
14021.0	2.3111784999157755e+18
14022.0	2.31069432456151e+18
14023.0	2.3102100938424315e+18
14024.0	2.309725737294233e+18
14025.0	2.309242491397734e+18
14026.0	2.3087586817867776e+18
14027.0	2.3082751808765947e+18
14028.0	2.307791690032742e+18
14029.0	2.307308174023065e+18
14030.0	2.306803344238182e+18
14031.0	2.3063403870289915e+18
14032.0	2.305858890996121e+18
14033.0	2.3053757709287424e+18
14034.0	2.3048933303386112e+18
14035.0	2.3044107421089787e+18
14036.0	2.3039282427985917e+18
14037.0	2.3034458642841595e+18
14038.0	2.302963581399859e+18
14039.0	2.3024814310555643e+18
14040.0	2.3019993998295037e+18
14041.0	2.3015174659112955e+18
14042.0	2.3010352585244672e+18
14043.0	2.3005524052148221e+18
14044.0	2.3000717782417403e+18
14045.0	2.2995910136954877e+18
14046.0	2.2991096887902205e+18
14047.0	2.2986284041502717e+18
14048.0	2.2981474147893243e+18
14049.0	2.2976664656936955e+18
14050.0	2.2971856222945275e+18
14051.0	2.296704332621414e+18
14052.0	2.2962242609741824e+18
14053.0	2.295743816872755e+18
14054.0	2.2952634583351288e+18
14055.0	2.2947832189157373e+18
14056.0	2.294303091903692e+18
14057.0	2.293823089043046e+18
14058.0	2.293343196912025e+18
14059.0	2.2928634356432893e+18
14060.0	2.2923837817487357e+18
14061.0	2.29190384264151e+18
14062.0	2.291424809503948e+18
14063.0	2.290944461032652e+18
14064.0	2.290462894535475e+18
14065.0	2.2899867839889403e+18
14066.0	2.289508379996979e+18
14067.0	2.2890295683186683e+18
14068.0	2.2885508640145405e+18
14069.0	2.2880722133975037e+18
14070.0	2.2875938077278203e+18
14071.0	2.2871153081057277e+18
14072.0	2.2866372329471995e+18
14073.0	2.2861591443668987e+18
14074.0	2.2856811648385024e+18
14075.0	2.285203277584793e+18
14076.0	2.2847254926721014e+18
14077.0	2.2842431661670395e+18
14078.0	2.2837699161358333e+18
14079.0	2.2832925405872123e+18
14080.0	2.282815695198617e+18
14081.0	2.282338544464691e+18
14082.0	2.281861341721395e+18
14083.0	2.281384422513049e+18
14084.0	2.2809074982715387e+18
14085.0	2.280414071960371e+18
14086.0	2.2799535424143357e+18
14087.0	2.279477977127321e+18
14088.0	2.279001655187865e+18
14089.0	2.2785255026982904e+18
14090.0	2.2780493770522621e+18
14091.0	2.2775734443442173e+18
14092.0	2.2770975837782008e+18
14093.0	2.276621837297254e+18
14094.0	2.2761461931573245e+18
14095.0	2.2756706245148667e+18
14096.0	2.2751945139683323e+18
14097.0	2.2747196935897085e+18
14098.0	2.2742444453920765e+18
14099.0	2.273769764264345e+18
14100.0	2.2732941520011261e+18
14101.0	2.272820100018995e+18
14102.0	2.2723453937254395e+18
14103.0	2.2718699744002043e+18
14104.0	2.2713963888246781e+18
14105.0	2.270922029819494e+18
14106.0	2.270447820131532e+18
14107.0	2.2699736658083837e+18
14108.0	2.269499721200435e+18
14109.0	2.269025529967411e+18
14110.0	2.268551808496435e+18
14111.0	2.2680778739548157e+18
14112.0	2.267604754785894e+18
14113.0	2.2671314862997501e+18
14114.0	2.2666581775482875e+18
14115.0	2.26618478994391e+18
14116.0	2.2657103151759355e+18
14117.0	2.2651993650626555e+18
14118.0	2.2647656304082944e+18
14119.0	2.264292806518374e+18
14120.0	2.263820368504422e+18
14121.0	2.263348168726937e+18
14122.0	2.2628757290352637e+18
14123.0	2.2624032574668795e+18
14124.0	2.2619305308848123e+18
14125.0	2.261428429075251e+18
14126.0	2.260987275535974e+18
14127.0	2.2605159582400512e+18
14128.0	2.2600442886225915e+18
14129.0	2.259572852208435e+18
14130.0	2.2591014258606075e+18
14131.0	2.2586300364226557e+18
14132.0	2.2581581990330365e+18
14133.0	2.2576512771293176e+18
14134.0	2.2572161231224827e+18
14135.0	2.256744935011123e+18
14136.0	2.2562747619213304e+18
14137.0	2.2558044915236861e+18
14138.0	2.2553338570604536e+18
14139.0	2.254863729269145e+18
14140.0	2.254393103194521e+18
14141.0	2.253922557650534e+18
14142.0	2.2534510138621947e+18
14143.0	2.2529829815451643e+18
14144.0	2.252513628861235e+18
14145.0	2.2520439557324795e+18
14146.0	2.2515743245467643e+18
14147.0	2.2511049081094136e+18
14148.0	2.2506356107902973e+18
14149.0	2.2501664309116923e+18
14150.0	2.2496973097533432e+18
14151.0	2.249228166784614e+18
14152.0	2.2487594432462843e+18
14153.0	2.2482906676985853e+18
14154.0	2.2478220179800061e+18
14155.0	2.2473529286983677e+18
14156.0	2.2468849450352632e+18
14157.0	2.246416719780249e+18
14158.0	2.2459482529333245e+18
14159.0	2.2454804269760504e+18
14160.0	2.2450116279402493e+18
14161.0	2.2445407250415608e+18
14162.0	2.2440696191385595e+18
14163.0	2.2436088194793467e+18
14164.0	2.2431406042906621e+18
14165.0	2.2426703456370683e+18
14166.0	2.2422065847992317e+18
14167.0	2.2417398694936576e+18
14168.0	2.2412727733452795e+18
14169.0	2.2408059405991933e+18
14170.0	2.240338950147276e+18
14171.0	2.2398722381971453e+18
14172.0	2.2394057913270272e+18
14173.0	2.2389368060641275e+18
14174.0	2.238472417758412e+18
14175.0	2.2380067443179515e+18
14176.0	2.2375406279589883e+18
14177.0	2.237074613941043e+18
14178.0	2.2366086217334781e+18
14179.0	2.2361424281993208e+18
14180.0	2.2356772362649595e+18
14181.0	2.2352116735541245e+18
14182.0	2.2347461796298752e+18
14183.0	2.2342808803213304e+18
14184.0	2.2338152840560632e+18
14185.0	2.2333503370690555e+18
14186.0	2.2328769310097403e+18
14187.0	2.2324184382177277e+18
14188.0	2.2319557779652605e+18
14189.0	2.2314911463899136e+18
14190.0	2.231026635610521e+18
14191.0	2.2305621701296123e+18
14192.0	2.2300973389053947e+18
14193.0	2.2296325664014333e+18
14194.0	2.2291695722823677e+18
14195.0	2.2287057225252861e+18
14196.0	2.2282418526355446e+18
14197.0	2.2276672766083067e+18
14198.0	2.227119383065395e+18
14199.0	2.2266555467300864e+18
14200.0	2.2261875949436923e+18
14201.0	2.2257276005908477e+18
14202.0	2.2252644454105083e+18
14203.0	2.2248004111040504e+18
14204.0	2.2243373213548544e+18
14205.0	2.2238739447152632e+18
14206.0	2.2234029478641664e+18
14207.0	2.2229477098520573e+18
14208.0	2.2224849002823677e+18
14209.0	2.222013425280614e+18
14210.0	2.2215526625312768e+18
14211.0	2.2210966896771067e+18
14212.0	2.2206342458507261e+18
14213.0	2.2201718825549824e+18
14214.0	2.2197095477805056e+18
14215.0	2.2191301432705021e+18
14216.0	2.2185730776236027e+18
14217.0	2.218110622053171e+18
14218.0	2.2176482436579323e+18
14219.0	2.2171859877363704e+18
14220.0	2.216723859321651e+18
14221.0	2.2162617879494653e+18
14222.0	2.21579987428311e+18
14223.0	2.2153380361142264e+18
14224.0	2.2148762767982587e+18
14225.0	2.214402110731059e+18
14226.0	2.2139528286306301e+18
14227.0	2.2134917588582395e+18
14228.0	2.2130025218179067e+18
14229.0	2.212563490596454e+18
14230.0	2.212108395190681e+18
14231.0	2.2116475116453883e+18
14232.0	2.2111866935312384e+18
14233.0	2.2107259811135483e+18
14234.0	2.2102653609705472e+18
14235.0	2.2096529808424955e+18
14236.0	2.2091302749339643e+18
14237.0	2.2086693242798075e+18
14238.0	2.2082085682413563e+18
14239.0	2.207747107559833e+18
14240.0	2.2071912163180536e+18
14241.0	2.2068258119090173e+18
14242.0	2.2063661799440376e+18
14243.0	2.2058961595269117e+18
14244.0	2.205446365721395e+18
14245.0	2.2049858898624512e+18
14246.0	2.2045255364771837e+18
14247.0	2.204066835647692e+18
14248.0	2.203606227248742e+18
14249.0	2.2031474224005115e+18
14250.0	2.202687956529971e+18
14251.0	2.2022282255794173e+18
14252.0	2.2017618760171515e+18
14253.0	2.2013026450276352e+18
14254.0	2.2008434677252096e+18
14255.0	2.2003824164077565e+18
14256.0	2.1999125117534203e+18
14257.0	2.1994646909485053e+18
14258.0	2.1988153422249981e+18
14259.0	2.1983275312480256e+18
14260.0	2.1978681308086267e+18
14261.0	2.1974106563936253e+18
14262.0	2.1969754285670392e+18
14263.0	2.1964973668302845e+18
14264.0	2.1960513294434301e+18
14265.0	2.1955997891297277e+18
14266.0	2.195141643626086e+18
14267.0	2.194683427658137e+18
14268.0	2.1942252653772792e+18
14269.0	2.1937670242435064e+18
14270.0	2.1933091958292477e+18
14271.0	2.1928512499744763e+18
14272.0	2.1923933812948984e+18
14273.0	2.1919348817919995e+18
14274.0	2.19144640308183e+18
14275.0	2.19101598360535e+18
14276.0	2.190562851133849e+18
14277.0	2.1901057609170936e+18
14278.0	2.189648945846681e+18
14279.0	2.1891918287863803e+18
14280.0	2.1887345288544253e+18
14281.0	2.1882781332144123e+18
14282.0	2.1878213902860285e+18
14283.0	2.1872063039930365e+18
14284.0	2.1866780347596795e+18
14285.0	2.186220954609254e+18
14286.0	2.1857639382122493e+18
14287.0	2.1853070023458816e+18
14288.0	2.184849697380761e+18
14289.0	2.1843316337278973e+18
14290.0	2.1839364195614712e+18
14291.0	2.183480399731097e+18
14292.0	2.1830241299202045e+18
14293.0	2.1825676017401853e+18
14294.0	2.1821024165167101e+18
14295.0	2.1816549027348475e+18
14296.0	2.181149861557043e+18
14297.0	2.1807423178145787e+18
14298.0	2.1802771544014843e+18
14299.0	2.1798318283685885e+18
14300.0	2.179376697730662e+18
14301.0	2.1789212130934776e+18
14302.0	2.17846562947072e+18
14303.0	2.1780077289144315e+18
14304.0	2.1775543833722875e+18
14305.0	2.1770999187898368e+18
14306.0	2.1766440600207355e+18
14307.0	2.1761894209552381e+18
14308.0	2.1757349899272187e+18
14309.0	2.1752799263981565e+18
14310.0	2.174821445350195e+18
14311.0	2.1741454393081848e+18
14312.0	2.1736780814352384e+18
14313.0	2.1732203050303483e+18
14314.0	2.1727694643265533e+18
14315.0	2.1723146306453501e+18
14316.0	2.1718565992267768e+18
14317.0	2.1714048290652157e+18
14318.0	2.1709508627660795e+18
14319.0	2.170496482069708e+18
14320.0	2.1700420812406781e+18
14321.0	2.1695877978521592e+18
14322.0	2.169130984459468e+18
14323.0	2.1686779543289853e+18
14324.0	2.1682255181119483e+18
14325.0	2.1677716289880061e+18
14326.0	2.1673178271055867e+18
14327.0	2.1668640856211456e+18
14328.0	2.1664100471799803e+18
14329.0	2.1659569415520256e+18
14330.0	2.1655035087683584e+18
14331.0	2.16505014812672e+18
14332.0	2.164596878082048e+18
14333.0	2.1641437103783936e+18
14334.0	2.16369060642816e+18
14335.0	2.1632368917872637e+18
14336.0	2.1627832660656125e+18
14337.0	2.1623317995716605e+18
14338.0	2.161878953990553e+18
14339.0	2.1614263097360381e+18
14340.0	2.1609738366091261e+18
14341.0	2.160521316506009e+18
14342.0	2.1600689809522685e+18
14343.0	2.1593870693302267e+18
14344.0	2.1589221005328381e+18
14345.0	2.158469364003635e+18
14346.0	2.1580164546691075e+18
14347.0	2.1575632903208952e+18
14348.0	2.1571113372876795e+18
14349.0	2.1566589178478592e+18
14350.0	2.1562054263439355e+18
14351.0	2.1557531277000696e+18
14352.0	2.1553020638593021e+18
14353.0	2.1548499547979773e+18
14354.0	2.154397753461964e+18
14355.0	2.1539455907135485e+18
14356.0	2.1534938205519872e+18
14357.0	2.1530424060674045e+18
14358.0	2.1525907499909115e+18
14359.0	2.15213913753518e+18
14360.0	2.1516875720556536e+18
14361.0	2.1512362364239867e+18
14362.0	2.1507849679011832e+18
14363.0	2.1503336691793915e+18
14364.0	2.1498791156776957e+18
14365.0	2.1494303553486845e+18
14366.0	2.1489799491747837e+18
14367.0	2.1485296856072187e+18
14368.0	2.1480788482588667e+18
14369.0	2.147628133384192e+18
14370.0	2.147177470518886e+18
14371.0	2.146726876440166e+18
14372.0	2.1462763427594237e+18
14373.0	2.1458258946424827e+18
14374.0	2.1453755673214973e+18
14375.0	2.144925293687603e+18
14376.0	2.14447510561751e+18
14377.0	2.1440249662013437e+18
14378.0	2.1435747949084664e+18
14379.0	2.1430585482280952e+18
14380.0	2.1424284513599488e+18
14381.0	2.141977833793126e+18
14382.0	2.1415275047944187e+18
14383.0	2.1410770415779835e+18
14384.0	2.140626991081062e+18
14385.0	2.1401769070297083e+18
14386.0	2.139726829689241e+18
14387.0	2.1392768144244733e+18
14388.0	2.138826815936921e+18
14389.0	2.1383770506526715e+18
14390.0	2.1379272249704445e+18
14391.0	2.1374777046335488e+18
14392.0	2.137028063500697e+18
14393.0	2.1365786572488701e+18
14394.0	2.1361292358975483e+18
14395.0	2.1356798531338237e+18
14396.0	2.135221947544371e+18
14397.0	2.1347566448803835e+18
14398.0	2.1343074886090747e+18
14399.0	2.1338584430673917e+18
14400.0	2.1334082298314747e+18
14401.0	2.1329598486675453e+18
14402.0	2.1325105984438267e+18
14403.0	2.1319909090787328e+18
14404.0	2.131341327151923e+18
14405.0	2.1310599698841592e+18
14406.0	2.1307152148725752e+18
14407.0	2.1301766293291005e+18
14408.0	2.1298171674099704e+18
14409.0	2.1293705293987837e+18
14410.0	2.128923468601753e+18
14411.0	2.1284756310196221e+18
14412.0	2.1280274243387387e+18
14413.0	2.1275796521877501e+18
14414.0	2.1271315293929467e+18
14415.0	2.1266837169766395e+18
14416.0	2.1262359934795773e+18
14417.0	2.1257880736890877e+18
14418.0	2.125339917339852e+18
14419.0	2.1248928162775037e+18
14420.0	2.1243483251539968e+18
14421.0	2.123749276201779e+18
14422.0	2.123300564526694e+18
14423.0	2.12284801590231e+18
14424.0	2.1220246874488827e+18
14425.0	2.1219509834612733e+18
14426.0	2.1215087058485245e+18
14427.0	2.121061547743641e+18
14428.0	2.1206139802746877e+18
14429.0	2.12016638763991e+18
14430.0	2.119718637299302e+18
14431.0	2.1192651575394301e+18
14432.0	2.1188224151977984e+18
14433.0	2.1183065560711163e+18
14434.0	2.117927068866969e+18
14435.0	2.1174805013200893e+18
14436.0	2.1170344236679165e+18
14437.0	2.1165872672407547e+18
14438.0	2.1161382602866683e+18
14439.0	2.115692326918553e+18
14440.0	2.1152460882051067e+18
14441.0	2.114798832792371e+18
14442.0	2.1143516881092603e+18
14443.0	2.1139022181040125e+18
14444.0	2.113458355044352e+18
14445.0	2.1130114452422656e+18
14446.0	2.112453804136857e+18
14447.0	2.1121158002769915e+18
14448.0	2.1116726066282496e+18
14449.0	2.1112264786444288e+18
14450.0	2.1107802348978173e+18
14451.0	2.1103340146393083e+18
14452.0	2.10988762660864e+18
14453.0	2.1094408191475704e+18
14454.0	2.1089956843749373e+18
14455.0	2.1085494137847803e+18
14456.0	2.108103586113126e+18
14457.0	2.107657656100454e+18
14458.0	2.1072120800870397e+18
14459.0	2.1067661702070272e+18
14460.0	2.1063204297768955e+18
14461.0	2.1058735803727867e+18
14462.0	2.1054284271452157e+18
14463.0	2.104983346059673e+18
14464.0	2.1045383572488184e+18
14465.0	2.1040917376925693e+18
14466.0	2.1036478360453115e+18
14467.0	2.1032013691617275e+18
14468.0	2.1027571336478715e+18
14469.0	2.102310673475174e+18
14470.0	2.1016210174902267e+18
14471.0	2.1011741378871293e+18
14472.0	2.1007290987446267e+18
14473.0	2.1002834153570301e+18
14474.0	2.0998377403580408e+18
14475.0	2.0993918640324605e+18
14476.0	2.0989422178664445e+18
14477.0	2.098500997218304e+18
14478.0	2.0980555923324925e+18
14479.0	2.0976101740249083e+18
14480.0	2.097164290988441e+18
14481.0	2.0967194800160765e+18
14482.0	2.0962738486378493e+18
14483.0	2.0958281837051901e+18
14484.0	2.095382552326963e+18
14485.0	2.0949353774448635e+18
14486.0	2.094472222264524e+18
14487.0	2.0940414454333435e+18
14488.0	2.0935765370339328e+18
14489.0	2.093131103626854e+18
14490.0	2.092686582900326e+18
14491.0	2.0922418776244221e+18
14492.0	2.0917972042252288e+18
14493.0	2.0913524519731192e+18
14494.0	2.0909077802516475e+18
14495.0	2.090462813251174e+18
14496.0	2.0900090717667325e+18
14497.0	2.0895738825277437e+18
14498.0	2.0891296168148987e+18
14499.0	2.0886851246096381e+18
14500.0	2.0882405971722235e+18
14501.0	2.0877939960709115e+18
14502.0	2.0873369326977021e+18
14503.0	2.0869061709660157e+18
14504.0	2.0864625511759867e+18
14505.0	2.0860162990407675e+18
14506.0	2.08557000664023e+18
14507.0	2.085112899646259e+18
14508.0	2.0846860470059003e+18
14509.0	2.0842421856239608e+18
14510.0	2.0837981480812544e+18
14511.0	2.083354070273228e+18
14512.0	2.0829090546188288e+18
14513.0	2.0824660539080696e+18
14514.0	2.0820198890143736e+18
14515.0	2.0815775191269373e+18
14516.0	2.0809794734522365e+18
14517.0	2.0806883552002045e+18
14518.0	2.08024705737687e+18
14519.0	2.0798036540129275e+18
14520.0	2.07936008790999e+18
14521.0	2.07891649831895e+18
14522.0	2.0784728265195515e+18
14523.0	2.0780243950239744e+18
14524.0	2.0775808708640763e+18
14525.0	2.077142035936051e+18
14526.0	2.0764926570135547e+18
14527.0	2.0760102499778555e+18
14528.0	2.075559528392294e+18
14529.0	2.0751229768433661e+18
14530.0	2.0746786725429245e+18
14531.0	2.0742354184962043e+18
14532.0	2.0737855424823293e+18
14533.0	2.0733472813350907e+18
14534.0	2.0729036430901245e+18
14535.0	2.07245961896919e+18
14536.0	2.072015655246233e+18
14537.0	2.071570832529817e+18
14538.0	2.0711277227671552e+18
14539.0	2.0706838076981243e+18
14540.0	2.0702398792073208e+18
14541.0	2.069795618527641e+18
14542.0	2.0693518812971003e+18
14543.0	2.0689052030205947e+18
14544.0	2.0684636501835773e+18
14545.0	2.0680186227851261e+18
14546.0	2.0671540693565435e+18
14547.0	2.0667401922150392e+18
14548.0	2.066686474924851e+18
14549.0	2.0662368438583293e+18
14550.0	2.0658014885249021e+18
14551.0	2.0653582177009661e+18
14552.0	2.0649146197213181e+18
14553.0	2.0644707449176056e+18
14554.0	2.0640276502544381e+18
14555.0	2.06358409421783e+18
14556.0	2.063140474427801e+18
14557.0	2.062696983822336e+18
14558.0	2.0622526124130301e+18
14559.0	2.061695286719283e+18
14560.0	2.0613656664342525e+18
14561.0	2.0609229358366715e+18
14562.0	2.0604800240451584e+18
14563.0	2.0600367280553981e+18
14564.0	2.0595931820851192e+18
14565.0	2.0591502400946173e+18
14566.0	2.058706979337011e+18
14567.0	2.0582636598591488e+18
14568.0	2.0578202162298877e+18
14569.0	2.0573766820036603e+18
14570.0	2.056901834781491e+18
14571.0	2.056489935673753e+18
14572.0	2.0560444200583163e+18
14573.0	2.0556013421723645e+18
14574.0	2.055159728937369e+18
14575.0	2.0547168406339581e+18
14576.0	2.0542736805396477e+18
14577.0	2.0538305221230587e+18
14578.0	2.053387090237849e+18
14579.0	2.0529439334989821e+18
14580.0	2.0525006542864381e+18
14581.0	2.0520571083161597e+18
14582.0	2.051614082439577e+18
14583.0	2.0511708502032376e+18
14584.0	2.05072683279319e+18
14585.0	2.0502843286880253e+18
14586.0	2.0498409018359805e+18
14587.0	2.0493978424049661e+18
14588.0	2.0489552326033405e+18
14589.0	2.048516649333555e+18
14590.0	2.0480764403515387e+18
14591.0	2.0474047024332797e+18
14592.0	2.0469657383206907e+18
14593.0	2.0465189275041787e+18
14594.0	2.046088405686681e+18
14595.0	2.0456494096973821e+18
14596.0	2.045207749486182e+18
14597.0	2.0447684749950973e+18
14598.0	2.0443329183350781e+18
14599.0	2.04389452129239e+18
14600.0	2.0434554749714427e+18
14601.0	2.043016425295052e+18
14602.0	2.0425772598558715e+18
14603.0	2.042138168236441e+18
14604.0	2.0416961489928187e+18
14605.0	2.0412594531598333e+18
14606.0	2.040816175625011e+18
14607.0	2.040381107181977e+18
14608.0	2.0399423041306621e+18
14609.0	2.039502819924377e+18
14610.0	2.0390636460965883e+18
14611.0	2.038624356506009e+18
14612.0	2.0381853806493696e+18
14613.0	2.0377461665562621e+18
14614.0	2.0373066353737725e+18
14615.0	2.0368674716123128e+18
14616.0	2.0364281300123645e+18
14617.0	2.0359886978154493e+18
14618.0	2.0355491968319483e+18
14619.0	2.0351063773151227e+18
14620.0	2.0346619438301181e+18
14621.0	2.0342306116730877e+18
14622.0	2.033791097267814e+18
14623.0	2.0333513916022781e+18
14624.0	2.0329076157841405e+18
14625.0	2.0324719282618365e+18
14626.0	2.0320322074968061e+18
14627.0	2.0315922132631547e+18
14628.0	2.031152692146995e+18
14629.0	2.0307127700553725e+18
14630.0	2.030272710390579e+18
14631.0	2.029832593683251e+18
14632.0	2.0293632309329917e+18
14633.0	2.0289474881650688e+18
14634.0	2.0285123878453243e+18
14635.0	2.0280718399635453e+18
14636.0	2.0276304565764096e+18
14637.0	2.0271921065099261e+18
14638.0	2.0267516173484027e+18
14639.0	2.0263105158184952e+18
14640.0	2.0258692247060475e+18
14641.0	2.025312897256652e+18
14642.0	2.024987837018931e+18
14643.0	2.024548835996467e+18
14644.0	2.0241082310721533e+18
14645.0	2.023665871251046e+18
14646.0	2.023226031367782e+18
14647.0	2.0227851160649725e+18
14648.0	2.022344276259635e+18
