# Flux units: erg / (cm m2 s)
# Wavelength units: Angstrom
wave	flux
14000.0	1.800227515898265e+18
14001.0	1.7998577309581312e+18
14002.0	1.799714243818291e+18
14003.0	1.7993945439010813e+18
14004.0	1.799073109219737e+18
14005.0	1.7987512349753341e+18
14006.0	1.7984192088375293e+18
14007.0	1.7980952391188477e+18
14008.0	1.79765449326592e+18
14009.0	1.79745969972183e+18
14010.0	1.7971234893463547e+18
14011.0	1.7959886516125696e+18
14012.0	1.7964752294641661e+18
14013.0	1.7961540984504315e+18
14014.0	1.7958258018877437e+18
14015.0	1.7955086336524285e+18
14016.0	1.7951902037704704e+18
14017.0	1.7948690358468605e+18
14018.0	1.7945396739309563e+18
14019.0	1.7942265792036861e+18
14020.0	1.7939044835000317e+18
14021.0	1.793582397862707e+18
14022.0	1.7932531215106048e+18
14023.0	1.7929184462503933e+18
14024.0	1.7925957163679741e+18
14025.0	1.7922979258171387e+18
14026.0	1.7919771957788672e+18
14027.0	1.7916587021434875e+18
14028.0	1.791329519743795e+18
14029.0	1.791007581745971e+18
14030.0	1.7881011320782866e+18
14031.0	1.7902812708995064e+18
14032.0	1.7900504164073464e+18
14033.0	1.7896669966237693e+18
14034.0	1.7894098002247677e+18
14035.0	1.7890958985134075e+18
14036.0	1.788769457510809e+18
14037.0	1.7884573559947261e+18
14038.0	1.7881377349304315e+18
14039.0	1.7878129548722176e+18
14040.0	1.7874925100466168e+18
14041.0	1.7871764742733821e+18
14042.0	1.7868456779055096e+18
14043.0	1.7864877561348093e+18
14044.0	1.7861997517340664e+18
14045.0	1.7858916952047613e+18
14046.0	1.7855763590414333e+18
14047.0	1.7852445258416123e+18
14048.0	1.7849392895623163e+18
14049.0	1.7846244701372413e+18
14050.0	1.7843057416208384e+18
14051.0	1.7839759082651643e+18
14052.0	1.7836632329682941e+18
14053.0	1.7833492138164221e+18
14054.0	1.7830307638018043e+18
14055.0	1.7827121644699643e+18
14056.0	1.7823935936593912e+18
14057.0	1.7820751721660413e+18
14058.0	1.7817567238291453e+18
14059.0	1.7814311736967165e+18
14060.0	1.7811201224343547e+18
14061.0	1.7807928794808317e+18
14062.0	1.7804834639970304e+18
14063.0	1.7801443226419197e+18
14064.0	1.7793371875573765e+18
14065.0	1.779517901661798e+18
14066.0	1.77921176109056e+18
14067.0	1.7788782854012925e+18
14068.0	1.77857649180672e+18
14069.0	1.7782532753850368e+18
14070.0	1.7779394441379835e+18
14071.0	1.7776199874904061e+18
14072.0	1.7773063928020987e+18
14073.0	1.7769890081406976e+18
14074.0	1.7766715798585341e+18
14075.0	1.7763309369425915e+18
14076.0	1.7760199762771963e+18
14077.0	1.7751427409510403e+18
14078.0	1.775358703986278e+18
14079.0	1.7750725736005627e+18
14080.0	1.7747692566347768e+18
14081.0	1.7744527058010112e+18
14082.0	1.774134069559296e+18
14083.0	1.7738170707738621e+18
14084.0	1.77349927674839e+18
14085.0	1.772640184303616e+18
14086.0	1.772816447412633e+18
14087.0	1.7725471126978555e+18
14088.0	1.772216361628467e+18
14089.0	1.7719086960082944e+18
14090.0	1.771595247281766e+18
14091.0	1.7712884758872061e+18
14092.0	1.770972874643865e+18
14093.0	1.7706568539701243e+18
14094.0	1.7703405900267523e+18
14095.0	1.7700229402853376e+18
14096.0	1.7696021794521088e+18
14097.0	1.7693541383798784e+18
14098.0	1.769027606780313e+18
14099.0	1.7687609698418688e+18
14100.0	1.7684308495958008e+18
14101.0	1.7681319702036477e+18
14102.0	1.7678164713013243e+18
14103.0	1.7674810511327232e+18
14104.0	1.7671827824312315e+18
14105.0	1.7668711188004867e+18
14106.0	1.766556089660211e+18
14107.0	1.7662344033206272e+18
14108.0	1.7659091769884672e+18
14109.0	1.765604438992486e+18
14110.0	1.7652920170315768e+18
14111.0	1.764969325736755e+18
14112.0	1.7646563551608824e+18
14113.0	1.7643443475972093e+18
14114.0	1.7640190524784637e+18
14115.0	1.7637147439792123e+18
14116.0	1.763332510344806e+18
14117.0	1.758557236520551e+18
14118.0	1.762757543408435e+18
14119.0	1.7623860992016381e+18
14120.0	1.7620894276911104e+18
14121.0	1.761807998281318e+18
14122.0	1.761448954114867e+18
14123.0	1.7611654359416824e+18
14124.0	1.760843070124851e+18
14125.0	1.7599848802942968e+18
14126.0	1.7602577164140544e+18
14127.0	1.7599540370604027e+18
14128.0	1.7596396974637053e+18
14129.0	1.7593135785836541e+18
14130.0	1.7589888186580987e+18
14131.0	1.75870156252119e+18
14132.0	1.758378018943795e+18
14133.0	1.757381058048818e+18
14134.0	1.757751851299635e+18
14135.0	1.7574225531371515e+18
14136.0	1.757087404759449e+18
14137.0	1.756809822365286e+18
14138.0	1.7564626682118141e+18
14139.0	1.7561954491039741e+18
14140.0	1.7558778882818048e+18
14141.0	1.7555247043969021e+18
14142.0	1.7549484288376827e+18
14143.0	1.7549386946969597e+18
14144.0	1.7546341278285821e+18
14145.0	1.754320700912435e+18
14146.0	1.7540015630319608e+18
14147.0	1.7536936960851965e+18
14148.0	1.7533777072881661e+18
14149.0	1.7530688035094523e+18
14150.0	1.7527632971169787e+18
14151.0	1.752439218346393e+18
14152.0	1.752137230136115e+18
14153.0	1.7518276988895232e+18
14154.0	1.7514844253061115e+18
14155.0	1.7510571297472512e+18
14156.0	1.7508745902817277e+18
14157.0	1.7505810326224893e+18
14158.0	1.750264547219865e+18
14159.0	1.7499581919002621e+18
14160.0	1.749637805794918e+18
14161.0	1.7492587229216765e+18
14162.0	1.748888152807833e+18
14163.0	1.7487007445942272e+18
14164.0	1.74826374341591e+18
14165.0	1.7480391938015224e+18
14166.0	1.747777418900275e+18
14167.0	1.74745092924375e+18
14168.0	1.747150182547456e+18
14169.0	1.7468478453710843e+18
14170.0	1.7465310948884475e+18
14171.0	1.7462229645393912e+18
14172.0	1.7459163407843325e+18
14173.0	1.745567745468006e+18
14174.0	1.7452876850790395e+18
14175.0	1.744984336236544e+18
14176.0	1.7446745583648768e+18
14177.0	1.7443648912228347e+18
14178.0	1.7440542543577085e+18
14179.0	1.74373741831127e+18
14180.0	1.7434349267845117e+18
14181.0	1.7431249459085312e+18
14182.0	1.742813908067942e+18
14183.0	1.7425048063180797e+18
14184.0	1.7421877404237824e+18
14185.0	1.7418792191655933e+18
14186.0	1.740769156346675e+18
14187.0	1.7412195625205757e+18
14188.0	1.7409501690855421e+18
14189.0	1.7406398258216957e+18
14190.0	1.7403314740133885e+18
14191.0	1.740018852403609e+18
14192.0	1.7397067106222075e+18
14193.0	1.7392758096396285e+18
14194.0	1.7390935201546237e+18
14195.0	1.7387927298375675e+18
14196.0	1.7384838042484733e+18
14197.0	1.7381750011330557e+18
14198.0	1.737859289160089e+18
14199.0	1.737554096501555e+18
14200.0	1.736732865200128e+18
14201.0	1.7369097608101888e+18
14202.0	1.7366273549664253e+18
14203.0	1.7363146545037307e+18
14204.0	1.7360112905617403e+18
14205.0	1.7357026652848128e+18
14206.0	1.7352368710483968e+18
14207.0	1.7350885671698427e+18
14208.0	1.734781768931737e+18
14209.0	1.7343005027467261e+18
14210.0	1.7340457709207547e+18
14211.0	1.7338489506889725e+18
14212.0	1.733549462283878e+18
14213.0	1.7332403840221181e+18
14214.0	1.7329339615936512e+18
14215.0	1.7326075742781437e+18
14216.0	1.7323202174779387e+18
14217.0	1.732012915923353e+18
14218.0	1.7316904863531e+18
14219.0	1.7313978178863104e+18
14220.0	1.73108513252311e+18
14221.0	1.7307791664349181e+18
14222.0	1.730444355279257e+18
14223.0	1.7301674120970237e+18
14224.0	1.7298574698086397e+18
14225.0	1.7279459694477322e+18
14226.0	1.7292086244016125e+18
14227.0	1.728875016172339e+18
14228.0	1.724273970380801e+18
14229.0	1.7275268846583772e+18
14230.0	1.7279600019111933e+18
14231.0	1.727634181665587e+18
14232.0	1.7273498330202112e+18
14233.0	1.7270398504665085e+18
14234.0	1.7267369948741627e+18
14235.0	1.7264271599599616e+18
14236.0	1.726123908425318e+18
14237.0	1.7258138285637627e+18
14238.0	1.725507899385446e+18
14239.0	1.7251871508922365e+18
14240.0	1.7227240660008963e+18
14241.0	1.724568598426419e+18
14242.0	1.724276882905497e+18
14243.0	1.7237800189427712e+18
14244.0	1.7236581844779005e+18
14245.0	1.7232975364095997e+18
14246.0	1.7229894463258624e+18
14247.0	1.7226936707186685e+18
14248.0	1.7223709509025787e+18
14249.0	1.7220819113476093e+18
14250.0	1.7217790255562752e+18
14251.0	1.721476322636595e+18
14252.0	1.72117021729751e+18
14253.0	1.7208629727854587e+18
14254.0	1.720553609311027e+18
14255.0	1.7201991772012541e+18
14256.0	1.7182774628712463e+18
14257.0	1.7195116401786872e+18
14258.0	1.7193314109358077e+18
14259.0	1.7190046310334461e+18
14260.0	1.7186666489839613e+18
14261.0	1.7183916821577725e+18
14262.0	1.7181276490432512e+18
14263.0	1.7153998901477391e+18
14264.0	1.7169644393594872e+18
14265.0	1.7171534682521595e+18
14266.0	1.7168620111003648e+18
14267.0	1.7165601537523707e+18
14268.0	1.7162538940628987e+18
14269.0	1.7159393330069496e+18
14270.0	1.715645678039859e+18
14271.0	1.7153390257635325e+18
14272.0	1.7150306018131968e+18
14273.0	1.7147005973299197e+18
14274.0	1.710698483050088e+18
14275.0	1.7137201217273853e+18
14276.0	1.713791636288307e+18
14277.0	1.7134975149146112e+18
14278.0	1.7132089199558653e+18
14279.0	1.7129044000636925e+18
14280.0	1.712592717978009e+18
14281.0	1.712298274481766e+18
14282.0	1.711994761222553e+18
14283.0	1.7116907647795197e+18
14284.0	1.7113866307633147e+18
14285.0	1.7110816226541565e+18
14286.0	1.7107741348724733e+18
14287.0	1.7104466721374203e+18
14288.0	1.710110721808793e+18
14289.0	1.708413755064317e+18
14290.0	1.7095026735579133e+18
14291.0	1.709201834586931e+18
14292.0	1.7088967845347325e+18
14293.0	1.7085923736944635e+18
14294.0	1.7081128926052352e+18
14295.0	1.7079675733934077e+18
14296.0	1.706558825798042e+18
14297.0	1.7073686217490432e+18
14298.0	1.706502739564953e+18
14299.0	1.7067472121233403e+18
14300.0	1.7064601539575805e+18
14301.0	1.7061628247801853e+18
14302.0	1.705860920455987e+18
14303.0	1.705515041370931e+18
14304.0	1.7052322714615805e+18
14305.0	1.7049483221139453e+18
14306.0	1.704613480759296e+18
14307.0	1.7043140812734461e+18
14308.0	1.7040238455029757e+18
14309.0	1.7036986091044861e+18
14310.0	1.7032712749580285e+18
14311.0	1.7027115736104957e+18
14312.0	1.702671278093107e+18
14313.0	1.7022662911983619e+18
14314.0	1.7021367794794496e+18
14315.0	1.7018589722705915e+18
14316.0	1.7014945526841344e+18
14317.0	1.7012097896415232e+18
14318.0	1.7009616596500475e+18
14319.0	1.7006630721814525e+18
14320.0	1.7003613373071357e+18
14321.0	1.700056750306099e+18
14322.0	1.6997069671628797e+18
14323.0	1.6994326630367227e+18
14324.0	1.6991558960152576e+18
14325.0	1.6988423130710013e+18
14326.0	1.6985527802658816e+18
14327.0	1.698242668527616e+18
14328.0	1.6979406366965757e+18
14329.0	1.6976478843437053e+18
14330.0	1.6973463273078781e+18
14331.0	1.6970443961401344e+18
14332.0	1.696743169615462e+18
14333.0	1.6964417367310333e+18
14334.0	1.6961401880838141e+18
14335.0	1.6958208220332032e+18
14336.0	1.6953723385282557e+18
14337.0	1.6952318645764093e+18
14338.0	1.694930924942131e+18
14339.0	1.6946190968946688e+18
14340.0	1.6942906661142525e+18
14341.0	1.6939358833606653e+18
14342.0	1.693641738498867e+18
14343.0	1.693340887783833e+18
14344.0	1.69303222559703e+18
14345.0	1.6927378643091456e+18
14346.0	1.6924291668901885e+18
14347.0	1.692073050347929e+18
14348.0	1.6918306732638203e+18
14349.0	1.6915356425650176e+18
14350.0	1.6911020169625597e+18
14351.0	1.6907877847400443e+18
14352.0	1.69062226240471e+18
14353.0	1.6903323370127357e+18
14354.0	1.6900165377982461e+18
14355.0	1.689684055320166e+18
14356.0	1.68939375076311e+18
14357.0	1.689131759435776e+18
14358.0	1.6888334169145341e+18
14359.0	1.6885142136029181e+18
14360.0	1.688220714663936e+18
14361.0	1.6879271318388733e+18
14362.0	1.68763205919703e+18
14363.0	1.687330074342195e+18
14364.0	1.6866154337271805e+18
14365.0	1.6866416699375608e+18
14366.0	1.6863518267539453e+18
14367.0	1.6861324059344893e+18
14368.0	1.6858322397298685e+18
14369.0	1.685533184176947e+18
14370.0	1.6852337544921088e+18
14371.0	1.6849345798209533e+18
14372.0	1.6846067278544896e+18
14373.0	1.6842776209522688e+18
14374.0	1.6839812514316285e+18
14375.0	1.6836786407866363e+18
14376.0	1.6833823652184061e+18
14377.0	1.6830817577730043e+18
14378.0	1.6827793266442237e+18
14379.0	1.68248325743575e+18
14380.0	1.6821825979809787e+18
14381.0	1.681868640904806e+18
14382.0	1.681582547428966e+18
14383.0	1.6812812739280893e+18
14384.0	1.6809622954311675e+18
14385.0	1.680686486388736e+18
14386.0	1.6803642464010237e+18
14387.0	1.6800874391142397e+18
14388.0	1.6797859911303165e+18
14389.0	1.6794888750235648e+18
14390.0	1.6791872592674813e+18
14391.0	1.6788911967698944e+18
14392.0	1.6785907654852605e+18
14393.0	1.678293317189632e+18
14394.0	1.677944453437849e+18
14395.0	1.677679039558451e+18
14396.0	1.67739631159214e+18
14397.0	1.677033249282457e+18
14398.0	1.6766926030110715e+18
14399.0	1.676393735362969e+18
14400.0	1.676067873174323e+18
14401.0	1.6757867054891003e+18
14402.0	1.6754887605878781e+18
14403.0	1.6744006390120435e+18
14404.0	1.6700747898945503e+18
14405.0	1.6723052821741507e+18
14406.0	1.6742920820359165e+18
14407.0	1.6728623679537152e+18
14408.0	1.6736782691336187e+18
14409.0	1.6733477177131003e+18
14410.0	1.673026860167987e+18
14411.0	1.6727586495266816e+18
14412.0	1.672457651172147e+18
14413.0	1.672164878686617e+18
14414.0	1.6718632427978747e+18
14415.0	1.671566393448857e+18
14416.0	1.67126483641303e+18
14417.0	1.6709497602965504e+18
14418.0	1.6706232572182523e+18
14419.0	1.6703710654627835e+18
14420.0	1.670068441396019e+18
14421.0	1.6697757326639096e+18
14422.0	1.6694685217062912e+18
14423.0	1.6691258168705021e+18
14424.0	1.6641619654606822e+18
14425.0	1.668550868389068e+18
14426.0	1.6682844797534203e+18
14427.0	1.667989017880166e+18
14428.0	1.6676638922113021e+18
14429.0	1.667390923551539e+18
14430.0	1.6670932336639997e+18
14431.0	1.6660727410458624e+18
14432.0	1.6664943675834365e+18
14433.0	1.665327881309388e+18
14434.0	1.6658816703660032e+18
14435.0	1.6655174604947453e+18
14436.0	1.6653108222361597e+18
14437.0	1.665016751194112e+18
14438.0	1.6646261172076541e+18
14439.0	1.664409041842995e+18
14440.0	1.664124824059904e+18
14441.0	1.6638155276943357e+18
14442.0	1.6635087445557243e+18
14443.0	1.6631555841589243e+18
14444.0	1.662928970946969e+18
14445.0	1.6626359417700347e+18
14446.0	1.6604820861353994e+18
14447.0	1.6620207514583037e+18
14448.0	1.661748071366656e+18
14449.0	1.6614521598640123e+18
14450.0	1.6611137315405821e+18
14451.0	1.660802173606297e+18
14452.0	1.6605082854359037e+18
14453.0	1.6601992038187003e+18
14454.0	1.659912289936998e+18
14455.0	1.659604508554035e+18
14456.0	1.6593084175351805e+18
14457.0	1.659014666937958e+18
14458.0	1.6587158160670715e+18
14459.0	1.6584097023393792e+18
14460.0	1.6580942369914877e+18
14461.0	1.6576891695661053e+18
14462.0	1.6571272418820093e+18
14463.0	1.6571633565171707e+18
14464.0	1.6569191356170237e+18
14465.0	1.6566015093637115e+18
14466.0	1.656342484248166e+18
14467.0	1.656018306492006e+18
14468.0	1.6557514095067133e+18
14469.0	1.6553796314333181e+18
14470.0	1.655118834643763e+18
14471.0	1.6548571956379643e+18
14472.0	1.6545674665394176e+18
14473.0	1.654276848248422e+18
14474.0	1.6539856192667643e+18
14475.0	1.6536870838075387e+18
14476.0	1.653337592587878e+18
14477.0	1.653094202159923e+18
14478.0	1.652798594324889e+18
14479.0	1.6524993642889208e+18
14480.0	1.6521844089683965e+18
14481.0	1.651914877960192e+18
14482.0	1.6516136313028605e+18
14483.0	1.6513082272514048e+18
14484.0	1.651011599361638e+18
14485.0	1.650674202836992e+18
14486.0	1.6499926183706621e+18
14487.0	1.6500934376947707e+18
14488.0	1.649770404144742e+18
14489.0	1.6494369754316797e+18
14490.0	1.6491911573405693e+18
14491.0	1.6489120800964605e+18
14492.0	1.6486181734711293e+18
14493.0	1.6483054092550141e+18
14494.0	1.647995656549171e+18
14495.0	1.647728778018816e+18
14496.0	1.6472467786694656e+18
14497.0	1.647138248536883e+18
14498.0	1.646845075075891e+18
14499.0	1.6465347485892605e+18
14500.0	1.6461650693455867e+18
14501.0	1.645836428849971e+18
14502.0	1.6452396733431805e+18
14503.0	1.645247387507097e+18
14504.0	1.6449719307862013e+18
14505.0	1.6446626662973437e+18
14506.0	1.6443410286116867e+18
14507.0	1.6437485345177597e+18
14508.0	1.643799127890329e+18
14509.0	1.64350491927511e+18
14510.0	1.6432044745687037e+18
14511.0	1.6429132204212221e+18
14512.0	1.6425964565168128e+18
14513.0	1.6423212933971965e+18
14514.0	1.6419806202822656e+18
14515.0	1.6417232108126205e+18
14516.0	1.637829346485865e+18
14517.0	1.6411193166004221e+18
14518.0	1.6408428297584637e+18
14519.0	1.6405449788096507e+18
14520.0	1.6402525620011003e+18
14521.0	1.639958076561817e+18
14522.0	1.6396592927997947e+18
14523.0	1.6392588592414715e+18
14524.0	1.6390122777870333e+18
14525.0	1.6387688873590781e+18
14526.0	1.6384783579873275e+18
14527.0	1.6381566330601462e+18
14528.0	1.6376910334394365e+18
14529.0	1.6375802719371261e+18
14530.0	1.6372750339801085e+18
14531.0	1.6370021492064253e+18
14532.0	1.6366363857649661e+18
14533.0	1.6364138443833341e+18
14534.0	1.6361209360023547e+18
14535.0	1.6358108410413053e+18
14536.0	1.6355251552518141e+18
14537.0	1.6352154159677437e+18
14538.0	1.6349402494926848e+18
14539.0	1.634645378177433e+18
14540.0	1.6343501746733053e+18
14541.0	1.634024059148697e+18
14542.0	1.6337564927524861e+18
14543.0	1.6334143734415357e+18
14544.0	1.6331660672892925e+18
14545.0	1.6328533701820419e+18
14546.0	1.6264129090158554e+18
14547.0	1.626553221906427e+18
14548.0	1.6319586915844093e+18
14549.0	1.6315191151034365e+18
14550.0	1.6313842279645181e+18
14551.0	1.6311032213405693e+18
14552.0	1.630806949127782e+18
14553.0	1.6305005417988093e+18
14554.0	1.6302186258497533e+18
14555.0	1.6299231337775104e+18
14556.0	1.6295824875061243e+18
14557.0	1.6292829739352061e+18
14558.0	1.6289797844762621e+18
14559.0	1.6260221055795151e+18
14560.0	1.6283799570612221e+18
14561.0	1.6280901088444416e+18
14562.0	1.6277593208651776e+18
14563.0	1.6274997488123901e+18
14564.0	1.6271527456538621e+18
14565.0	1.6269204667760635e+18
14566.0	1.626625887384371e+18
14567.0	1.626326091956224e+18
14568.0	1.626003779826483e+18
14569.0	1.6257340105818107e+18
14570.0	1.6246871911563256e+18
14571.0	1.625140989683302e+18
14572.0	1.624787966859673e+18
14573.0	1.6244808800534528e+18
14574.0	1.6241402690142203e+18
14575.0	1.623941539535257e+18
14576.0	1.623643384918835e+18
14577.0	1.6233674685022203e+18
14578.0	1.6230747463483387e+18
14579.0	1.6227862403088381e+18
14580.0	1.6224896677838848e+18
14581.0	1.622185109304115e+18
14582.0	1.6218882834432e+18
14583.0	1.6216045958201341e+18
14584.0	1.621267784820326e+18
14585.0	1.621012636919398e+18
14586.0	1.6207139387211776e+18
14587.0	1.6204217232392192e+18
14588.0	1.620127214311833e+18
14589.0	1.6198353192747005e+18
14590.0	1.619543400749465e+18
14591.0	1.6192441153486843e+18
14592.0	1.6189444323278848e+18
14593.0	1.6184990140203005e+18
14594.0	1.618372109480755e+18
14595.0	1.6180682573217787e+18
14596.0	1.6173900366872566e+18
14597.0	1.6170106669236216e+18
14598.0	1.6171551875399675e+18
14599.0	1.6169082923515904e+18
14600.0	1.6166067839696893e+18
14601.0	1.6163171052027901e+18
14602.0	1.6160037890162685e+18
14603.0	1.6157296996384765e+18
14604.0	1.615354094682112e+18
14605.0	1.6150657178271741e+18
14606.0	1.614737619235635e+18
14607.0	1.6145511287357437e+18
14608.0	1.6142594484469757e+18
14609.0	1.613951412050329e+18
14610.0	1.6135689049473021e+18
14611.0	1.6133479976665085e+18
14612.0	1.6130965206204413e+18
14613.0	1.6128099053731837e+18
14614.0	1.6125074507563005e+18
14615.0	1.6122212532617216e+18
14616.0	1.6119349098053632e+18
14617.0	1.6116275931512824e+18
14618.0	1.611320501311897e+18
14619.0	1.6107529884925944e+18
14620.0	1.6097437382868992e+18
14621.0	1.6104214052732925e+18
14622.0	1.6101252236574715e+18
14623.0	1.609836506225049e+18
14624.0	1.609461033808691e+18
14625.0	1.6092448694468603e+18
14626.0	1.6089471141281787e+18
14627.0	1.6086517814394877e+18
14628.0	1.608369331974963e+18
14629.0	1.6080747173511165e+18
14630.0	1.607767336943616e+18
14631.0	1.6074814280171515e+18
14632.0	1.606795392555417e+18
14633.0	1.6068386895167485e+18
14634.0	1.606589776029286e+18
14635.0	1.6061257970876406e+18
14636.0	1.6054907425521656e+18
14637.0	1.6057210517848061e+18
14638.0	1.6054004207321085e+18
14639.0	1.6050941425876995e+18
14640.0	1.6048256819658747e+18
14641.0	1.6030562544254963e+18
14642.0	1.6042322936463357e+18
14643.0	1.6039455794135035e+18
14644.0	1.603631281759846e+18
14645.0	1.6033198395883515e+18
14646.0	1.603030867142246e+18
14647.0	1.602691128518246e+18
14648.0	1.602447088812032e+18
