# Flux units: erg / (cm m2 s)
# Wavelength units: Angstrom
wave	flux
14000.0	1.592673135755264e+18
14001.0	1.5922452261502976e+18
14002.0	1.5922176142082048e+18
14003.0	1.591948623426355e+18
14004.0	1.5916781126287357e+18
14005.0	1.5914063083077632e+18
14006.0	1.591126568363622e+18
14007.0	1.5908513767227387e+18
14008.0	1.590510069429043e+18
14009.0	1.5902952757657597e+18
14010.0	1.5900094238818296e+18
14011.0	1.589083096743936e+18
14012.0	1.5894612887470077e+18
14013.0	1.5892350026907648e+18
14014.0	1.5889636932976637e+18
14015.0	1.5886995997851643e+18
14016.0	1.5884312230494205e+18
14017.0	1.5881620191969275e+18
14018.0	1.587883443591577e+18
14019.0	1.587622143485542e+18
14020.0	1.5873515035033597e+18
14021.0	1.5870811135016957e+18
14022.0	1.5868117569765376e+18
14023.0	1.586530654722457e+18
14024.0	1.5862625699102715e+18
14025.0	1.586002308313907e+18
14026.0	1.5857318428147712e+18
14027.0	1.5854627329146875e+18
14028.0	1.5851860648787965e+18
14029.0	1.5849146112016381e+18
14030.0	1.5845119596953595e+18
14031.0	1.5843298346270715e+18
14032.0	1.5841115529805821e+18
14033.0	1.5838054912622587e+18
14034.0	1.5835777338441728e+18
14035.0	1.583309271544627e+18
14036.0	1.583036415292211e+18
14037.0	1.5827686962233341e+18
14038.0	1.5825028360699901e+18
14039.0	1.582229620785152e+18
14040.0	1.5819635274285053e+18
14041.0	1.581694932588953e+18
14042.0	1.5814157764919293e+18
14043.0	1.5811189002993664e+18
14044.0	1.5808711326957565e+18
14045.0	1.5806118508888064e+18
14046.0	1.5803492690034685e+18
14047.0	1.5800781844250621e+18
14048.0	1.579816684670156e+18
14049.0	1.579548933724569e+18
14050.0	1.579280491557683e+18
14051.0	1.5790039879385088e+18
14052.0	1.578738929736089e+18
14053.0	1.578476477035315e+18
14054.0	1.5782087646773243e+18
14055.0	1.5779409164238843e+18
14056.0	1.5776731017248765e+18
14057.0	1.577405364201062e+18
14058.0	1.5771376031891453e+18
14059.0	1.576862013928243e+18
14060.0	1.5766019972792315e+18
14061.0	1.5763272166801403e+18
14062.0	1.5760650726801403e+18
14063.0	1.5757857068679163e+18
14064.0	1.5754899664928765e+18
14065.0	1.5752553757147133e+18
14066.0	1.5749953506770941e+18
14067.0	1.5747308243124221e+18
14068.0	1.5744637041901565e+18
14069.0	1.5741962820780032e+18
14070.0	1.5739296518504443e+18
14071.0	1.573659728255385e+18
14072.0	1.573395896467456e+18
14073.0	1.5731291991310333e+18
14074.0	1.5728624212639741e+18
14075.0	1.5725770643079165e+18
14076.0	1.5723272918269947e+18
14077.0	1.5720283788804096e+18
14078.0	1.571788271753625e+18
14079.0	1.5715200929890301e+18
14080.0	1.571260546102067e+18
14081.0	1.5709953587150843e+18
14082.0	1.5707288861933563e+18
14083.0	1.570459283043123e+18
14084.0	1.570181467445657e+18
14085.0	1.569722897478451e+18
14086.0	1.569629131295948e+18
14087.0	1.5693891801972733e+18
14088.0	1.5691205098602493e+18
14089.0	1.5688677241913341e+18
14090.0	1.5686023589658621e+18
14091.0	1.5683370239393792e+18
14092.0	1.5680715563728893e+18
14093.0	1.5678059998871547e+18
14094.0	1.5675403410604032e+18
14095.0	1.5672742913245181e+18
14096.0	1.5670050304294907e+18
14097.0	1.5667244935675901e+18
14098.0	1.5664769725890557e+18
14099.0	1.5662119663960064e+18
14100.0	1.565935357080371e+18
14101.0	1.5656829975527424e+18
14102.0	1.565415498265395e+18
14103.0	1.56513503019008e+18
14104.0	1.5648848969990141e+18
14105.0	1.5646236606463997e+18
14106.0	1.5643588524244992e+18
14107.0	1.564087309828096e+18
14108.0	1.5638169517031421e+18
14109.0	1.5635609548750848e+18
14110.0	1.563298312591769e+18
14111.0	1.5630294996484093e+18
14112.0	1.562761233642291e+18
14113.0	1.5625034315857915e+18
14114.0	1.5622255941779453e+18
14115.0	1.5619702197846013e+18
14116.0	1.5616722346180603e+18
14117.0	1.561169768742912e+18
14118.0	1.5611649184497664e+18
14119.0	1.5609075324682235e+18
14120.0	1.5606512118398973e+18
14121.0	1.5603786777100285e+18
14122.0	1.560121573585715e+18
14123.0	1.5598528831160315e+18
14124.0	1.5595485846831101e+18
14125.0	1.5589212493447165e+18
14126.0	1.559036206828748e+18
14127.0	1.5588014264680443e+18
14128.0	1.558541327610675e+18
14129.0	1.558267447948083e+18
14130.0	1.5579906993815547e+18
14131.0	1.5577461395816448e+18
14132.0	1.5574368532824064e+18
14133.0	1.556743867020083e+18
14134.0	1.556908471641702e+18
14135.0	1.5566836217151485e+18
14136.0	1.556435501790003e+18
14137.0	1.5561751026204667e+18
14138.0	1.5559120761389053e+18
14139.0	1.5556508364308475e+18
14140.0	1.5553877394849787e+18
14141.0	1.5551212032098301e+18
14142.0	1.554855203805593e+18
14143.0	1.554599616341606e+18
14144.0	1.5543389940350968e+18
14145.0	1.5540740482400253e+18
14146.0	1.5538136390041597e+18
14147.0	1.553552127505203e+18
14148.0	1.553290355959398e+18
14149.0	1.5530283143004152e+18
14150.0	1.5527657542254592e+18
14151.0	1.552501919082086e+18
14152.0	1.552239833802342e+18
14153.0	1.5519798473523195e+18
14154.0	1.5516905360064507e+18
14155.0	1.551449613506969e+18
14156.0	1.5511933650206715e+18
14157.0	1.5509309978836992e+18
14158.0	1.5506664849407997e+18
14159.0	1.550405527089971e+18
14160.0	1.550122485389721e+18
14161.0	1.5498298873872381e+18
14162.0	1.5495301271912443e+18
14163.0	1.549341432165171e+18
14164.0	1.5490816587857915e+18
14165.0	1.5488277540765696e+18
14166.0	1.5485760689930237e+18
14167.0	1.5483012447731707e+18
14168.0	1.548052953720422e+18
14169.0	1.5477950157684733e+18
14170.0	1.5475308417253376e+18
14171.0	1.5472671407996925e+18
14172.0	1.547010992976691e+18
14173.0	1.546738304496435e+18
14174.0	1.5464818496503805e+18
14175.0	1.5462291378012152e+18
14176.0	1.5459691396071421e+18
14177.0	1.5457086582292477e+18
14178.0	1.5454477020561403e+18
14179.0	1.5451842628550653e+18
14180.0	1.544927002702643e+18
14181.0	1.5446665699786747e+18
14182.0	1.5444054594551803e+18
14183.0	1.5441452431572987e+18
14184.0	1.5438804097695741e+18
14185.0	1.5436201079078907e+18
14186.0	1.5432999097073664e+18
14187.0	1.5430676308295677e+18
14188.0	1.5428393516400635e+18
14189.0	1.5425842775588864e+18
14190.0	1.542324361573171e+18
14191.0	1.542063459087155e+18
14192.0	1.5417956913643515e+18
14193.0	1.541539347247923e+18
14194.0	1.5412846959525885e+18
14195.0	1.5410264929206267e+18
14196.0	1.5407669594554363e+18
14197.0	1.5405072749953021e+18
14198.0	1.5402430975967232e+18
14199.0	1.5399821397458941e+18
14200.0	1.5397019132624893e+18
14201.0	1.5394603716837373e+18
14202.0	1.5392067974856701e+18
14203.0	1.5389460292173821e+18
14204.0	1.538687420176793e+18
14205.0	1.538421565056614e+18
14206.0	1.5380627775815683e+18
14207.0	1.537896324110745e+18
14208.0	1.537645179253555e+18
14209.0	1.5372714399236093e+18
14210.0	1.5370309452431357e+18
14211.0	1.536864047176089e+18
14212.0	1.5366183918239741e+18
14213.0	1.5363621148164093e+18
14214.0	1.5361022508400635e+18
14215.0	1.5358319849897981e+18
14216.0	1.5355860595245053e+18
14217.0	1.5353299133792253e+18
14218.0	1.5350588724215803e+18
14219.0	1.5348133613535232e+18
14220.0	1.5345551667101693e+18
14221.0	1.5342966096789496e+18
14222.0	1.5340302982184957e+18
14223.0	1.5337796147347453e+18
14224.0	1.533518467301376e+18
14225.0	1.5331610740129792e+18
14226.0	1.5329894883917821e+18
14227.0	1.5327381824733181e+18
14228.0	1.5321750300524541e+18
14229.0	1.5321220492820475e+18
14230.0	1.5319711902334976e+18
14231.0	1.5317168644161533e+18
14232.0	1.5314600253718525e+18
14233.0	1.5312003006463997e+18
14234.0	1.5309443122069504e+18
14235.0	1.5306842284490747e+18
14236.0	1.5304275420774397e+18
14237.0	1.5301655138402304e+18
14238.0	1.5298988232146944e+18
14239.0	1.5295786787012603e+18
14240.0	1.527515264004915e+18
14241.0	1.5290048459046907e+18
14242.0	1.5288399560703997e+18
14243.0	1.5284933555650557e+18
14244.0	1.5283606393978877e+18
14245.0	1.5281068437405688e+18
14246.0	1.527854994240307e+18
14247.0	1.5275969103265787e+18
14248.0	1.527326939755315e+18
14249.0	1.5270860709429243e+18
14250.0	1.5268330671702016e+18
14251.0	1.5265785316376573e+18
14252.0	1.5263218570100736e+18
14253.0	1.526063543248486e+18
14254.0	1.525803642362265e+18
14255.0	1.5255066738950141e+18
14256.0	1.5252013872840696e+18
14257.0	1.5249900782485501e+18
14258.0	1.524778460512256e+18
14259.0	1.5245045858828288e+18
14260.0	1.5242558217125888e+18
14261.0	1.523984401589862e+18
14262.0	1.5237577313353725e+18
14263.0	1.5233747813138432e+18
14264.0	1.523169064124416e+18
14265.0	1.5229893952405501e+18
14266.0	1.5227477932638205e+18
14267.0	1.5224945931976701e+18
14268.0	1.5222378883710976e+18
14269.0	1.5219750514720763e+18
14270.0	1.5217279029477373e+18
14271.0	1.5214694985891835e+18
14272.0	1.5212111294627837e+18
14273.0	1.520930934856089e+18
14274.0	1.5204694523641856e+18
14275.0	1.5203766877814781e+18
14276.0	1.520174451864371e+18
14277.0	1.5199341819985912e+18
14278.0	1.519682795549491e+18
14279.0	1.5194228711751677e+18
14280.0	1.519166015353651e+18
14281.0	1.5189166589476864e+18
14282.0	1.5186624119832576e+18
14283.0	1.5184075023187965e+18
14284.0	1.5181522755649536e+18
14285.0	1.517896458253107e+18
14286.0	1.5176391813234688e+18
14287.0	1.5173768712290304e+18
14288.0	1.5170672409968637e+18
14289.0	1.5156674692120566e+18
14290.0	1.516562877618585e+18
14291.0	1.5163570496995323e+18
14292.0	1.5161060675813368e+18
14293.0	1.5158463562776576e+18
14294.0	1.5154839247912957e+18
14295.0	1.515281779471155e+18
14296.0	1.5141705892233216e+18
14297.0	1.5147132667297792e+18
14298.0	1.5144112365764603e+18
14299.0	1.5142948194746365e+18
14300.0	1.5140648743075837e+18
14301.0	1.5138185076015101e+18
14302.0	1.513565767231078e+18
14303.0	1.5132755633373181e+18
14304.0	1.513045292692275e+18
14305.0	1.5128078984413181e+18
14306.0	1.5125547101192187e+18
14307.0	1.5122997803220992e+18
14308.0	1.512047857002086e+18
14309.0	1.511792702390272e+18
14310.0	1.5115334306496512e+18
14311.0	1.5112709745934328e+18
14312.0	1.5109939978567677e+18
14313.0	1.510579667730432e+18
14314.0	1.5105259873501181e+18
14315.0	1.5102666770219003e+18
14316.0	1.5099813804638205e+18
14317.0	1.5097660868395003e+18
14318.0	1.5095184752639997e+18
14319.0	1.5092669730521088e+18
14320.0	1.5090140699426813e+18
14321.0	1.5087530030399488e+18
14322.0	1.5084695972741115e+18
14323.0	1.5082254602600443e+18
14324.0	1.5079960939069435e+18
14325.0	1.5077355286429693e+18
14326.0	1.5074935793778688e+18
14327.0	1.507233295971123e+18
14328.0	1.5069807300837373e+18
14329.0	1.5067369202253821e+18
14330.0	1.5064849969053693e+18
14331.0	1.5062326507995136e+18
14332.0	1.5059807610339325e+18
14333.0	1.5057286749749248e+18
14334.0	1.5054763087364096e+18
14335.0	1.5052112622780413e+18
14336.0	1.5049611576082432e+18
14337.0	1.50471704576e+18
14338.0	1.5044663169777664e+18
14339.0	1.5042055268990973e+18
14340.0	1.503965233545216e+18
14341.0	1.5037120334790653e+18
14342.0	1.5034587579154432e+18
14343.0	1.5032100860198912e+18
14344.0	1.502951446780313e+18
14345.0	1.5027053065666557e+18
14346.0	1.5024525041205243e+18
14347.0	1.5021902376468477e+18
14348.0	1.5019452701605885e+18
14349.0	1.5016947947143165e+18
14350.0	1.5014354776752125e+18
14351.0	1.5011783399964672e+18
14352.0	1.5009281430519803e+18
14353.0	1.5006878748639232e+18
14354.0	1.5004381627809787e+18
14355.0	1.5001864256880637e+18
14356.0	1.4999342976860157e+18
14357.0	1.4996858254393341e+18
14358.0	1.4994372021977088e+18
14359.0	1.499170702832435e+18
14360.0	1.4989349124833275e+18
14361.0	1.4986846501076992e+18
14362.0	1.4984340857421821e+18
14363.0	1.4981819090862075e+18
14364.0	1.4979104017219581e+18
14365.0	1.4976687276031997e+18
14366.0	1.4974244496605184e+18
14367.0	1.4971821044531197e+18
14368.0	1.4969305334546432e+18
14369.0	1.496682369908736e+18
14370.0	1.4964323491250176e+18
14371.0	1.4961823266635776e+18
14372.0	1.4959260614000635e+18
14373.0	1.4956816895049725e+18
14374.0	1.4954283652874237e+18
14375.0	1.4951672715411453e+18
14376.0	1.4949255051476987e+18
14377.0	1.4946748887728123e+18
14378.0	1.4944232741535741e+18
14379.0	1.494175706198835e+18
14380.0	1.4939250629804032e+18
14381.0	1.4936640816414715e+18
14382.0	1.4934251640193021e+18
14383.0	1.4931765994979323e+18
14384.0	1.4929082529611773e+18
14385.0	1.4926786936700923e+18
14386.0	1.4924095065948157e+18
14387.0	1.492179376878387e+18
14388.0	1.4919273126297597e+18
14389.0	1.491679791651225e+18
14390.0	1.4914297691897853e+18
14391.0	1.4911824176611323e+18
14392.0	1.490932937103769e+18
14393.0	1.4906842215874557e+18
14394.0	1.490390363616051e+18
14395.0	1.4901742177091576e+18
14396.0	1.489935234655846e+18
14397.0	1.489686383244083e+18
14398.0	1.4894360957026304e+18
14399.0	1.4891838032838653e+18
14400.0	1.4889130576052221e+18
14401.0	1.4886665885581307e+18
14402.0	1.4884007468597245e+18
14403.0	1.4879516543418365e+18
14404.0	1.4850215370555382e+18
14405.0	1.4852637849550828e+18
14406.0	1.4873300249346048e+18
14407.0	1.4869966666858493e+18
14408.0	1.4869059757670397e+18
14409.0	1.4866642982928381e+18
14410.0	1.4864402620612603e+18
14411.0	1.4861968598892541e+18
14412.0	1.4859478977478656e+18
14413.0	1.4857051045887997e+18
14414.0	1.4854560065519613e+18
14415.0	1.485209126463078e+18
14416.0	1.4849607414579197e+18
14417.0	1.4847142841548797e+18
14418.0	1.484465159274496e+18
14419.0	1.4842164823457787e+18
14420.0	1.4839643946090493e+18
14421.0	1.4837197962215421e+18
14422.0	1.4834614673604605e+18
14423.0	1.4831760802054141e+18
14424.0	1.4823548640034813e+18
14425.0	1.4826748709437435e+18
14426.0	1.482477007169126e+18
14427.0	1.4822340042948603e+18
14428.0	1.4819626244374525e+18
14429.0	1.4817406484479995e+18
14430.0	1.4814915252453373e+18
14431.0	1.4812047422259197e+18
14432.0	1.4809892657299453e+18
14433.0	1.480617610130227e+18
14434.0	1.4804818858082304e+18
14435.0	1.4802470383386621e+18
14436.0	1.4800135162691584e+18
14437.0	1.4797684598636544e+18
14438.0	1.479516798268211e+18
14439.0	1.4792706916089853e+18
14440.0	1.4790277155782653e+18
14441.0	1.4787649659207677e+18
14442.0	1.4785089573486587e+18
14443.0	1.4782185403842557e+18
14444.0	1.4780118048178173e+18
14445.0	1.477751523088793e+18
14446.0	1.4765575574126592e+18
14447.0	1.4771762222858235e+18
14448.0	1.4770358036987896e+18
14449.0	1.4767993993035773e+18
14450.0	1.4765491050512384e+18
14451.0	1.4763070500896765e+18
14452.0	1.4760649682845693e+18
14453.0	1.4758183801192448e+18
14454.0	1.4755724110331901e+18
14455.0	1.4753182831869947e+18
14456.0	1.4750810466418685e+18
14457.0	1.4748328377974781e+18
14458.0	1.4745878803775488e+18
14459.0	1.4743403979866107e+18
14460.0	1.4740925850845184e+18
14461.0	1.4738335582912507e+18
14462.0	1.473596159007129e+18
14463.0	1.473353117545267e+18
14464.0	1.473106512602726e+18
14465.0	1.4728376610717699e+18
14466.0	1.4726187335024635e+18
14467.0	1.4723565039386627e+18
14468.0	1.4721252853809147e+18
14469.0	1.4718559959646205e+18
14470.0	1.4716089632030712e+18
14471.0	1.4713842206507005e+18
14472.0	1.4711447963566075e+18
14473.0	1.4709048888786941e+18
14474.0	1.4706634630627325e+18
14475.0	1.4704170107928573e+18
14476.0	1.470166562190131e+18
14477.0	1.469928199893811e+18
14478.0	1.4696803702145021e+18
14479.0	1.469435687940915e+18
14480.0	1.4691718796410875e+18
14481.0	1.4689474407563256e+18
14482.0	1.4686961113497597e+18
14483.0	1.4684460972769277e+18
14484.0	1.4681843676741632e+18
14485.0	1.467886572090163e+18
14486.0	1.4674246970114048e+18
14487.0	1.4674492504670203e+18
14488.0	1.4672235214143485e+18
14489.0	1.4669790975098877e+18
14490.0	1.4667372723961853e+18
14491.0	1.4664940178636795e+18
14492.0	1.466251615613747e+18
14493.0	1.4659994389577728e+18
14494.0	1.4657347179773947e+18
14495.0	1.4654960553689085e+18
14496.0	1.465151162784153e+18
14497.0	1.4650167084974075e+18
14498.0	1.4647833911099387e+18
14499.0	1.4645410710683645e+18
14500.0	1.4642951439253501e+18
14501.0	1.4640158989090813e+18
14502.0	1.4635586274983936e+18
14503.0	1.463541650633523e+18
14504.0	1.4633087761645565e+18
14505.0	1.4630687562792957e+18
14506.0	1.462793770998169e+18
14507.0	1.4623510605332477e+18
14508.0	1.4623271328677885e+18
14509.0	1.462098388949401e+18
14510.0	1.4618525574365181e+18
14511.0	1.4616107340005376e+18
14512.0	1.4613560726388736e+18
14513.0	1.4611118701936637e+18
14514.0	1.460834557912678e+18
14515.0	1.4605268000178173e+18
14516.0	1.4572577494138888e+18
14517.0	1.459864536193433e+18
14518.0	1.459875032019763e+18
14519.0	1.4596533613756413e+18
14520.0	1.4594208828489725e+18
14521.0	1.4591829567602685e+18
14522.0	1.4589410058174464e+18
14523.0	1.4586920990408701e+18
14524.0	1.458449086100275e+18
14525.0	1.4582084437803003e+18
14526.0	1.4579649627553787e+18
14527.0	1.4576675329146875e+18
14528.0	1.4573436152053757e+18
14529.0	1.4572270169096187e+18
14530.0	1.456982463820595e+18
14531.0	1.4567559730823165e+18
14532.0	1.4565096768405501e+18
14533.0	1.4562737002643453e+18
14534.0	1.4560284005892093e+18
14535.0	1.4557709860863997e+18
14536.0	1.4555353886752765e+18
14537.0	1.4552866748366848e+18
14538.0	1.4550555737194493e+18
14539.0	1.4548127033851904e+18
14540.0	1.4545715309051901e+18
14541.0	1.4543041624801277e+18
14542.0	1.454082176424345e+18
14543.0	1.4538231563419648e+18
14544.0	1.4535920585801725e+18
14545.0	1.4533214890622976e+18
14546.0	1.4519381589491707e+18
14547.0	1.4516316056584187e+18
14548.0	1.4525622495739904e+18
14549.0	1.4522579410747392e+18
14550.0	1.4521199417622525e+18
14551.0	1.4519042790391803e+18
14552.0	1.4516621502578685e+18
14553.0	1.4514121445736445e+18
14554.0	1.4511823856336893e+18
14555.0	1.4509390522482685e+18
14556.0	1.450692727485235e+18
14557.0	1.450436410212352e+18
14558.0	1.4500932876238845e+18
14559.0	1.4476290383937518e+18
14560.0	1.4496015943991293e+18
14561.0	1.4494629206425595e+18
14562.0	1.449213334388736e+18
14563.0	1.449005446227558e+18
14564.0	1.4487614719524864e+18
14565.0	1.4485289665822715e+18
14566.0	1.448288255475712e+18
14567.0	1.448044204025446e+18
14568.0	1.447794924794675e+18
14569.0	1.4475213269893115e+18
14570.0	1.4466862595178493e+18
14571.0	1.4470506052845563e+18
14572.0	1.4467962710786045e+18
14573.0	1.4465440340246525e+18
14574.0	1.4463569546444797e+18
14575.0	1.4461198808383485e+18
14576.0	1.4458796663373821e+18
14577.0	1.4456306706415613e+18
14578.0	1.4453990611746816e+18
14579.0	1.4451606183477248e+18
14580.0	1.4449205565194237e+18
14581.0	1.4446780217294845e+18
14582.0	1.4444393691873277e+18
14583.0	1.4441979601485821e+18
14584.0	1.443950105303449e+18
14585.0	1.4437171066830845e+18
14586.0	1.443475670800793e+18
14587.0	1.4432371977748475e+18
14588.0	1.4429978892435453e+18
14589.0	1.4427579045904384e+18
14590.0	1.4425155056959485e+18
14591.0	1.4422647785914363e+18
14592.0	1.4420062500814845e+18
14593.0	1.441678325972992e+18
14594.0	1.4415353505382397e+18
14595.0	1.441300372206387e+18
14596.0	1.4410390100246525e+18
14597.0	1.4407967856132093e+18
14598.0	1.4405856711933947e+18
14599.0	1.440352811823923e+18
14600.0	1.4401140770734077e+18
14601.0	1.439874538694246e+18
14602.0	1.4396305694523392e+18
14603.0	1.4393920964263936e+18
14604.0	1.4391174684999677e+18
14605.0	1.4389008041771003e+18
14606.0	1.4385596696887293e+18
14607.0	1.438431958165094e+18
14608.0	1.4381890475655165e+18
14609.0	1.437950280938291e+18
14610.0	1.4377095262109693e+18
14611.0	1.4374664209956864e+18
14612.0	1.4372430441086976e+18
14613.0	1.4370048562954237e+18
14614.0	1.4367561223241725e+18
14615.0	1.4365196055216128e+18
14616.0	1.4362880480641021e+18
14617.0	1.436034195364249e+18
14618.0	1.4357939036880893e+18
14619.0	1.4355314006556667e+18
14620.0	1.4352730701168637e+18
14621.0	1.4350885056413693e+18
14622.0	1.434849364882227e+18
14623.0	1.4346107542831104e+18
14624.0	1.4343268988878845e+18
14625.0	1.4341265621516285e+18
14626.0	1.4338917868240893e+18
14627.0	1.4336551844577275e+18
14628.0	1.4334240464306173e+18
14629.0	1.4331861455077373e+18
14630.0	1.4329422500855803e+18
14631.0	1.4327016950071293e+18
14632.0	1.4324041007497213e+18
14633.0	1.4322115385753597e+18
14634.0	1.4319922939166715e+18
14635.0	1.4317510761381885e+18
14636.0	1.4315007466536957e+18
14637.0	1.4312792018386941e+18
14638.0	1.431036885152563e+18
14639.0	1.4307900302295035e+18
14640.0	1.430543895049011e+18
14641.0	1.430122216502067e+18
14642.0	1.4300673566834685e+18
14643.0	1.4298459091763197e+18
14644.0	1.4295960309989373e+18
14645.0	1.429347587273523e+18
14646.0	1.4291193533825021e+18
