# Flux units: erg / (cm m2 s)
# Wavelength units: Angstrom
wave	flux
14000.0	1.671813555394969e+18
14001.0	1.6713778510954493e+18
14002.0	1.671174855170457e+18
14003.0	1.6708510146363387e+18
14004.0	1.670525023263129e+18
14005.0	1.670198890961305e+18
14006.0	1.6698654387601405e+18
14007.0	1.6695390967431165e+18
14008.0	1.6691311788687357e+18
14009.0	1.66889429967831e+18
14010.0	1.66855787455447e+18
14011.0	1.667641088619315e+18
14012.0	1.6679180032802813e+18
14013.0	1.6675926645407736e+18
14014.0	1.6672622037172221e+18
14015.0	1.666939702004941e+18
14016.0	1.6666165912797181e+18
14017.0	1.666291427023257e+18
14018.0	1.665966093316915e+18
14019.0	1.6656412377612285e+18
14020.0	1.665315598709555e+18
14021.0	1.6649900754206715e+18
14022.0	1.6646633156509696e+18
14023.0	1.6643245970817021e+18
14024.0	1.6638479546974203e+18
14025.0	1.6632798831968256e+18
14026.0	1.6629541619367933e+18
14027.0	1.6626314555424763e+18
14028.0	1.6623017010397181e+18
14029.0	1.6619797110325248e+18
14030.0	1.6609273282822147e+18
14031.0	1.6613061678858237e+18
14032.0	1.6610080367575037e+18
14033.0	1.6606431927074816e+18
14034.0	1.660361142540697e+18
14035.0	1.6600381744218112e+18
14036.0	1.6597144060297213e+18
14037.0	1.65939067790295e+18
14038.0	1.6590670135295997e+18
14039.0	1.658739834329497e+18
14040.0	1.6584114471698432e+18
14041.0	1.6580926129569787e+18
14042.0	1.657761769612902e+18
14043.0	1.6574109244719104e+18
14044.0	1.6571145666953213e+18
14045.0	1.656799567754035e+18
14046.0	1.6564767992840192e+18
14047.0	1.656148388636262e+18
14048.0	1.655831527424e+18
14049.0	1.6555114969956347e+18
14050.0	1.655188735236505e+18
14051.0	1.6548473541230584e+18
14052.0	1.6545294846001147e+18
14053.0	1.654209697441382e+18
14054.0	1.653887494363545e+18
14055.0	1.653565046338355e+18
14056.0	1.6532426369007613e+18
14057.0	1.6529203801358339e+18
14058.0	1.6525981502144507e+18
14059.0	1.6522759991459835e+18
14060.0	1.651953921897267e+18
14061.0	1.6516253870981123e+18
14062.0	1.6513099787927547e+18
14063.0	1.6509740888621053e+18
14064.0	1.6505127087112187e+18
14065.0	1.650336447279923e+18
14066.0	1.6500229448663035e+18
14067.0	1.6496920528683005e+18
14068.0	1.6493783407394813e+18
14069.0	1.6490455646601216e+18
14070.0	1.648726069424947e+18
14071.0	1.6484023966629885e+18
14072.0	1.648083904705331e+18
14073.0	1.6477627518812157e+18
14074.0	1.647441738307993e+18
14075.0	1.6471051839995904e+18
14076.0	1.6467882053468152e+18
14077.0	1.6462955725979643e+18
14078.0	1.6461453024296957e+18
14079.0	1.6458284663832576e+18
14080.0	1.6455167859752957e+18
14081.0	1.645196216998297e+18
14082.0	1.6448709134909435e+18
14083.0	1.6445539381936125e+18
14084.0	1.6442348305121277e+18
14085.0	1.6436144661069821e+18
14086.0	1.64358037480407e+18
14087.0	1.6432742879199232e+18
14088.0	1.6429371799633915e+18
14089.0	1.642615201700249e+18
14090.0	1.6422992129032187e+18
14091.0	1.6419839153274875e+18
14092.0	1.6416641348796416e+18
14093.0	1.641344401408e+18
14094.0	1.6410247367229437e+18
14095.0	1.6407051274027003e+18
14096.0	1.640348123345715e+18
14097.0	1.6400498915540987e+18
14098.0	1.6397306513326075e+18
14099.0	1.6394275071721467e+18
14100.0	1.6390966537617403e+18
14101.0	1.6387892012122107e+18
14102.0	1.6384698922041341e+18
14103.0	1.6381362319654904e+18
14104.0	1.6378283817959421e+18
14105.0	1.6373825927118843e+18
14106.0	1.6370642316165115e+18
14107.0	1.6367440636149757e+18
14108.0	1.6364171864047613e+18
14109.0	1.6361040195354621e+18
14110.0	1.6357837861027835e+18
14111.0	1.6354489783025661e+18
14112.0	1.6351363499819005e+18
14113.0	1.6348221513138176e+18
14114.0	1.6344951465967616e+18
14115.0	1.6341870061813757e+18
14116.0	1.6338325572943872e+18
14117.0	1.6321914469351421e+18
14118.0	1.633234120710553e+18
14119.0	1.632892492972032e+18
14120.0	1.6325811346866168e+18
14121.0	1.6322694375014397e+18
14122.0	1.631929495873126e+18
14123.0	1.6316254155440125e+18
14124.0	1.6313028198793213e+18
14125.0	1.6305868370870267e+18
14126.0	1.6306893358104576e+18
14127.0	1.6303767192338432e+18
14128.0	1.6300583027736576e+18
14129.0	1.6297318634487803e+18
14130.0	1.6294075011432443e+18
14131.0	1.629108494244249e+18
14132.0	1.628786913601126e+18
14133.0	1.6279781377048563e+18
14134.0	1.6281577445130237e+18
14135.0	1.627826043853209e+18
14136.0	1.627471214123417e+18
14137.0	1.6271956651278333e+18
14138.0	1.6268653083230203e+18
14139.0	1.6265644576079872e+18
14140.0	1.6262390198829053e+18
14141.0	1.6259279132557304e+18
14142.0	1.6255090130157565e+18
14143.0	1.6252924057354235e+18
14144.0	1.624983728449126e+18
14145.0	1.6246663555317757e+18
14146.0	1.6243483652128768e+18
14147.0	1.6240342940516347e+18
14148.0	1.623715912823603e+18
14149.0	1.6234002897698808e+18
14150.0	1.623088971749785e+18
14151.0	1.6227646379655165e+18
14152.0	1.622457940390707e+18
14153.0	1.6221423626354688e+18
14154.0	1.6218051976364032e+18
14155.0	1.6213197757349888e+18
14156.0	1.6211694384578557e+18
14157.0	1.6208814021804032e+18
14158.0	1.6205625612566528e+18
14159.0	1.6202508087066624e+18
14160.0	1.6199301910757368e+18
14161.0	1.619567566651392e+18
14162.0	1.6192101045764093e+18
14163.0	1.618985014735667e+18
14164.0	1.618617946026803e+18
14165.0	1.6182507263229947e+18
14166.0	1.6180361121759235e+18
14167.0	1.6177110653599741e+18
14168.0	1.617403911444889e+18
14169.0	1.6170946956099581e+18
14170.0	1.616775296004915e+18
14171.0	1.6164633907822587e+18
14172.0	1.6161520358522877e+18
14173.0	1.615781824770867e+18
14174.0	1.6155190700802043e+18
14175.0	1.6152100522164221e+18
14176.0	1.614895367009075e+18
14177.0	1.6145820508225533e+18
14178.0	1.6142672599187453e+18
14179.0	1.6139435217256443e+18
14180.0	1.6136414781505533e+18
14181.0	1.6133279556042747e+18
14182.0	1.613013751903027e+18
14183.0	1.6127011202269184e+18
14184.0	1.6123831416520704e+18
14185.0	1.6120744475885565e+18
14186.0	1.611510464695501e+18
14187.0	1.6114262648815613e+18
14188.0	1.6111316334804992e+18
14189.0	1.6108191746097147e+18
14190.0	1.6105072324771837e+18
14191.0	1.610193582424064e+18
14192.0	1.6098761323315197e+18
14193.0	1.6095310417756157e+18
14194.0	1.6092554877468672e+18
14195.0	1.6089374554849275e+18
14196.0	1.6086231813193723e+18
14197.0	1.6083107409035261e+18
14198.0	1.6079936800423933e+18
14199.0	1.6076834978398205e+18
14200.0	1.6072222166745085e+18
14201.0	1.6070541156810747e+18
14202.0	1.6067478157262843e+18
14203.0	1.6064242000068605e+18
14204.0	1.606122949994086e+18
14205.0	1.6058112326762496e+18
14206.0	1.6053870308360192e+18
14207.0	1.6051899472019453e+18
14208.0	1.6048785150967803e+18
14209.0	1.6044455119290363e+18
14210.0	1.6041695418253304e+18
14211.0	1.603939423852953e+18
14212.0	1.6036315753611267e+18
14213.0	1.6033188967088125e+18
14214.0	1.603008942676377e+18
14215.0	1.6026857732308992e+18
14216.0	1.6023876370694141e+18
14217.0	1.6020765086318592e+18
14218.0	1.60175533064192e+18
14219.0	1.6014544648273915e+18
14220.0	1.6011422274158587e+18
14221.0	1.6008297870000125e+18
14222.0	1.6004999720992765e+18
14223.0	1.6002109845536763e+18
14224.0	1.5999008392609792e+18
14225.0	1.5991132865429507e+18
14226.0	1.5992784683008e+18
14227.0	1.5989694638587901e+18
14228.0	1.5974026161684477e+18
14229.0	1.5980919785521142e+18
14230.0	1.5980386756591608e+18
14231.0	1.597707246790246e+18
14232.0	1.5974085452365821e+18
14233.0	1.5970936100487165e+18
14234.0	1.5967887479013376e+18
14235.0	1.5964764836462587e+18
14236.0	1.5961689052676093e+18
14237.0	1.5958580016447488e+18
14238.0	1.5955491783966715e+18
14239.0	1.595233994906009e+18
14240.0	1.5933788961898496e+18
14241.0	1.594616903735705e+18
14242.0	1.594309815251763e+18
14243.0	1.5938598066978813e+18
14244.0	1.5936926720720893e+18
14245.0	1.593366309922406e+18
14246.0	1.5930514233884672e+18
14247.0	1.5927611691630592e+18
14248.0	1.592439944196915e+18
14249.0	1.592145420170035e+18
14250.0	1.5918363133870075e+18
14251.0	1.591529771840307e+18
14252.0	1.5912209418813437e+18
14253.0	1.590911539819315e+18
14254.0	1.5906013676830715e+18
14255.0	1.5902630215679997e+18
14256.0	1.5895204133339139e+18
14257.0	1.589655978272358e+18
14258.0	1.5893697824555005e+18
14259.0	1.5890445208911867e+18
14260.0	1.588734633967616e+18
14261.0	1.5884281444302848e+18
14262.0	1.5881529829883904e+18
14263.0	1.587164249640141e+18
14264.0	1.5874074806845432e+18
14265.0	1.587224494945075e+18
14266.0	1.5869200975265792e+18
14267.0	1.5861240186273792e+18
14268.0	1.5858113869512701e+18
14269.0	1.5854956481347581e+18
14270.0	1.5851960724881405e+18
14271.0	1.5848859053850621e+18
14272.0	1.584570859467571e+18
14273.0	1.5842622023139325e+18
14274.0	1.582967856876749e+18
14275.0	1.5835566213955584e+18
14276.0	1.5833245740433403e+18
14277.0	1.5830171600814083e+18
14278.0	1.582726892434227e+18
14279.0	1.5824188006727677e+18
14280.0	1.5821062914703357e+18
14281.0	1.581805939038617e+18
14282.0	1.5814993622597632e+18
14283.0	1.581192552277606e+18
14284.0	1.580885807726592e+18
14285.0	1.580578970900889e+18
14286.0	1.5802703338799101e+18
14287.0	1.579965939816857e+18
14288.0	1.5796593328390144e+18
14289.0	1.5783622862700526e+18
14290.0	1.5790445401473021e+18
14291.0	1.5787394632515584e+18
14292.0	1.578434148119347e+18
14293.0	1.5781258768416763e+18
14294.0	1.5776951083991037e+18
14295.0	1.577504604789145e+18
14296.0	1.576410523946189e+18
14297.0	1.5769030593871872e+18
14298.0	1.576355105446297e+18
14299.0	1.576278641606656e+18
14300.0	1.5759786381410304e+18
14301.0	1.575677000574566e+18
14302.0	1.5753727323406328e+18
14303.0	1.5750388825194493e+18
14304.0	1.5747475981729787e+18
14305.0	1.5744568221761533e+18
14306.0	1.574125046018867e+18
14307.0	1.573835890701107e+18
14308.0	1.573541817981337e+18
14309.0	1.573233296723148e+18
14310.0	1.572812478847385e+18
14311.0	1.5724097988198397e+18
14312.0	1.5722685766041597e+18
14313.0	1.571894733255475e+18
14314.0	1.571706222778777e+18
14315.0	1.5714079607881725e+18
14316.0	1.5710558992990203e+18
14317.0	1.5707773220159485e+18
14318.0	1.5704948507410432e+18
14319.0	1.5701908844969984e+18
14320.0	1.5698836416626685e+18
14321.0	1.5695697433067515e+18
14322.0	1.5692316203286525e+18
14323.0	1.568946395912601e+18
14324.0	1.5686596011491325e+18
14325.0	1.5683473771593725e+18
14326.0	1.568051417002803e+18
14327.0	1.5677416877850621e+18
14328.0	1.5674372081582077e+18
14329.0	1.5671395954458621e+18
14330.0	1.5668357617418237e+18
14331.0	1.5665316898013181e+18
14332.0	1.566228245328691e+18
14333.0	1.565924638117068e+18
14334.0	1.5656210694930432e+18
14335.0	1.5653019114799101e+18
14336.0	1.564961682961203e+18
14337.0	1.5647082295590907e+18
14338.0	1.564404493162905e+18
14339.0	1.5640943092826107e+18
14340.0	1.5638005804957693e+18
14341.0	1.5634941916217341e+18
14342.0	1.5631926614294525e+18
14343.0	1.562886210479718e+18
14344.0	1.5625832307359741e+18
14345.0	1.562285914980352e+18
14346.0	1.5619799925129213e+18
14347.0	1.5616504343035901e+18
14348.0	1.5613770126589947e+18
14349.0	1.561074960695296e+18
14350.0	1.5607353512558587e+18
14351.0	1.560425093555814e+18
14352.0	1.5601586965315584e+18
14353.0	1.5598628219387904e+18
14354.0	1.5595570521440256e+18
14355.0	1.559246682036633e+18
14356.0	1.5589480710799357e+18
14357.0	1.55865604685824e+18
14358.0	1.5583537432363005e+18
14359.0	1.5580392878768125e+18
14360.0	1.5577462838657021e+18
14361.0	1.557446696475033e+18
14362.0	1.5571462014369792e+18
14363.0	1.5568443239563264e+18
14364.0	1.5564271484141565e+18
14365.0	1.5562187384815613e+18
14366.0	1.555917199900672e+18
14367.0	1.5556381763436541e+18
14368.0	1.5553361965219835e+18
14369.0	1.555035240110489e+18
14370.0	1.554733934732902e+18
14371.0	1.5544327652507648e+18
14372.0	1.5541262455144448e+18
14373.0	1.5538289566023677e+18
14374.0	1.553528469952921e+18
14375.0	1.5532256881803264e+18
14376.0	1.5529206851043325e+18
14377.0	1.5526156736397307e+18
14378.0	1.5523127744266235e+18
14379.0	1.552014431905382e+18
14380.0	1.5517124923490301e+18
14381.0	1.5514026356244475e+18
14382.0	1.5511106399240192e+18
14383.0	1.550804279571251e+18
14384.0	1.5504943674818557e+18
14385.0	1.550210345992192e+18
14386.0	1.5498945098678272e+18
14387.0	1.5496091814330365e+18
14388.0	1.549307055649587e+18
14389.0	1.5490084010721277e+18
14390.0	1.5487064279613437e+18
14391.0	1.548407910957056e+18
14392.0	1.5481054815059965e+18
14393.0	1.5478081942716413e+18
14394.0	1.5474746447626237e+18
14395.0	1.547195523897753e+18
14396.0	1.546908130187673e+18
14397.0	1.546608531052953e+18
14398.0	1.5463076853710848e+18
14399.0	1.5460088361779197e+18
14400.0	1.5456896748093437e+18
14401.0	1.5454036098547712e+18
14402.0	1.545108959998771e+18
14403.0	1.542874281803773e+18
14404.0	1.5382458975387628e+18
14405.0	1.5425479431421916e+18
14406.0	1.5439116221022203e+18
14407.0	1.5408643948150792e+18
14408.0	1.5432908231671805e+18
14409.0	1.5429950794366976e+18
14410.0	1.5427058922422267e+18
14411.0	1.5424153981026304e+18
14412.0	1.542113866232627e+18
14413.0	1.5418187147378685e+18
14414.0	1.5415174227820544e+18
14415.0	1.5412196691410941e+18
14416.0	1.5409183469862907e+18
14417.0	1.5406098609602557e+18
14418.0	1.5402979775479803e+18
14419.0	1.5400241633165312e+18
14420.0	1.5397220123672576e+18
14421.0	1.539427976557363e+18
14422.0	1.5391261091430397e+18
14423.0	1.5388225421967357e+18
14424.0	1.5274936599838659e+18
14425.0	1.5382290012045307e+18
14426.0	1.537936716935987e+18
14427.0	1.537637646283571e+18
14428.0	1.537320994786508e+18
14429.0	1.537037696394854e+18
14430.0	1.536744628630323e+18
14431.0	1.5362359249862653e+18
14432.0	1.5361409944649725e+18
14433.0	1.5337753399001075e+18
14434.0	1.5355366137135104e+18
14435.0	1.5352195494969341e+18
14436.0	1.5349573031559165e+18
14437.0	1.534659874992947e+18
14438.0	1.5342948682039296e+18
14439.0	1.5340500936556541e+18
14440.0	1.533761810753126e+18
14441.0	1.533450215908966e+18
14442.0	1.5331471304687613e+18
14443.0	1.5328101013651453e+18
14444.0	1.532563078669926e+18
14445.0	1.5322705662312448e+18
14446.0	1.5292241241178122e+18
14447.0	1.5316634658930685e+18
14448.0	1.531379504801382e+18
14449.0	1.5310825313009664e+18
14450.0	1.5307806403985403e+18
14451.0	1.5304870256967677e+18
14452.0	1.5301898139598848e+18
14453.0	1.529861082867302e+18
14454.0	1.5295969105018877e+18
14455.0	1.5292923738324992e+18
14456.0	1.5289949154705403e+18
14457.0	1.528696475641446e+18
14458.0	1.528109378777907e+18
14459.0	1.5275240770764797e+18
14460.0	1.527227965924966e+18
14461.0	1.5269027530145787e+18
14462.0	1.5264466794971136e+18
14463.0	1.5263318881075197e+18
14464.0	1.5260439273275392e+18
14465.0	1.5257239556194301e+18
14466.0	1.5254500474355707e+18
14467.0	1.5251177629286397e+18
14468.0	1.5248544663339005e+18
14469.0	1.5245291426938877e+18
14470.0	1.5242386451988477e+18
14471.0	1.5239593766944765e+18
14472.0	1.523668983218176e+18
14473.0	1.5233775696871421e+18
14474.0	1.5230831547121664e+18
14475.0	1.5227830103179264e+18
14476.0	1.5223587782787067e+18
14477.0	1.522195728905011e+18
14478.0	1.5218980155293693e+18
14479.0	1.521602192945971e+18
14480.0	1.5212925459365883e+18
14481.0	1.5210141884350464e+18
14482.0	1.520715060740096e+18
14483.0	1.520412934956646e+18
14484.0	1.5201176358223872e+18
14485.0	1.5197963672354813e+18
14486.0	1.5192442877771776e+18
14487.0	1.519239608611635e+18
14488.0	1.518926783997542e+18
14489.0	1.5186306074148864e+18
14490.0	1.518348325722521e+18
14491.0	1.5180589724336125e+18
14492.0	1.5177648628039677e+18
14493.0	1.5174639684681725e+18
14494.0	1.5171548851732475e+18
14495.0	1.5168803142893565e+18
14496.0	1.5164539750318077e+18
14497.0	1.5162892747800568e+18
14498.0	1.5159952557473792e+18
14499.0	1.515700948146585e+18
14500.0	1.5154058738270203e+18
14501.0	1.5150521362939901e+18
14502.0	1.5145445282021376e+18
14503.0	1.5144994981543936e+18
14504.0	1.514221516462489e+18
14505.0	1.5138793266872315e+18
14506.0	1.513524866056192e+18
14507.0	1.513103014703923e+18
14508.0	1.5130493863329792e+18
14509.0	1.51275496800256e+18
14510.0	1.512457205972992e+18
14511.0	1.512165864583987e+18
14512.0	1.511856527953101e+18
14513.0	1.5115773634674685e+18
14514.0	1.5112461896122365e+18
14515.0	1.5109872785817597e+18
14516.0	1.5081682935742482e+18
14517.0	1.510399525729075e+18
14518.0	1.5100993712685053e+18
14519.0	1.509802248450867e+18
14520.0	1.5095071271550976e+18
14521.0	1.5092121904087035e+18
14522.0	1.5089182082859003e+18
14523.0	1.508487005313433e+18
14524.0	1.5082027489427453e+18
14525.0	1.5080325944180736e+18
14526.0	1.5077417496346621e+18
14527.0	1.5074242743762944e+18
14528.0	1.5070199015276541e+18
14529.0	1.5068513727152125e+18
14530.0	1.506551263553126e+18
14531.0	1.5062724866211837e+18
14532.0	1.505796215013376e+18
14533.0	1.5056858897186813e+18
14534.0	1.5053942580838397e+18
14535.0	1.505090325394227e+18
14536.0	1.5048035121758203e+18
14537.0	1.5045014400794621e+18
14538.0	1.5042199855038464e+18
14539.0	1.503926615749427e+18
14540.0	1.503633165464371e+18
14541.0	1.5033191446347776e+18
14542.0	1.5030446005944315e+18
14543.0	1.5026649254854653e+18
14544.0	1.5024591881633795e+18
14545.0	1.5021590135701504e+18
14546.0	1.4870567475740598e+18
14547.0	1.488155432085085e+18
14548.0	1.5012728695422973e+18
14549.0	1.500874808282316e+18
14550.0	1.5006919735377915e+18
14551.0	1.5004068732731392e+18
14552.0	1.500111879484211e+18
14553.0	1.4998114146451456e+18
14554.0	1.4995275022073853e+18
14555.0	1.499233897571942e+18
14556.0	1.498938006201958e+18
14557.0	1.4986481076535293e+18
14558.0	1.4983545852264443e+18
14559.0	1.4961986827714532e+18
14560.0	1.4977578431414272e+18
14561.0	1.4974687331221504e+18
14562.0	1.4971571265339387e+18
14563.0	1.4968888907268093e+18
14564.0	1.4965779468386304e+18
14565.0	1.4963040906641403e+18
14566.0	1.4960111638282237e+18
14567.0	1.4957174501408765e+18
14568.0	1.4953974717218816e+18
14569.0	1.4951320712642557e+18
14570.0	1.4943103114805243e+18
14571.0	1.4945433201672192e+18
14572.0	1.494206514200576e+18
14573.0	1.4939119079653376e+18
14574.0	1.4936208870211581e+18
14575.0	1.493370983677952e+18
14576.0	1.4930747500527613e+18
14577.0	1.492569435406336e+18
14578.0	1.4918032535060477e+18
14579.0	1.4915135864831995e+18
14580.0	1.4912206999126013e+18
14581.0	1.490922129221222e+18
14582.0	1.4906314253664253e+18
14583.0	1.490341181207347e+18
14584.0	1.490032067713433e+18
14585.0	1.4897551681519616e+18
14586.0	1.4894588372189181e+18
14587.0	1.4891665563058173e+18
14588.0	1.4888759094935547e+18
14589.0	1.4885911397400573e+18
14590.0	1.4883063750197248e+18
14591.0	1.4880189762764797e+18
14592.0	1.487730918188646e+18
14593.0	1.4873364875182075e+18
14594.0	1.487165903496806e+18
14595.0	1.4868731427553277e+18
14596.0	1.4864756401766395e+18
14597.0	1.4861758279712763e+18
14598.0	1.4860130419998715e+18
14599.0	1.4857409222672381e+18
14600.0	1.4854526158766075e+18
14601.0	1.4851700556824576e+18
14602.0	1.4848735183896576e+18
14603.0	1.484599741068083e+18
14604.0	1.4842655322144765e+18
14605.0	1.484000868276633e+18
14606.0	1.4836711792050176e+18
14607.0	1.4834473744990203e+18
14608.0	1.483169933033472e+18
14609.0	1.482868746774118e+18
14610.0	1.482540535775232e+18
14611.0	1.4823014185041915e+18
14612.0	1.4820230308036603e+18
14613.0	1.4817385059975165e+18
14614.0	1.481449466442547e+18
14615.0	1.4811654415974397e+18
14616.0	1.4808823176888315e+18
14617.0	1.4805964926484475e+18
14618.0	1.4803022169243648e+18
14619.0	1.4799490313617405e+18
14620.0	1.4794638174978045e+18
14621.0	1.4794544054796288e+18
14622.0	1.4791659111841787e+18
14623.0	1.4788830406115328e+18
14624.0	1.4785402384678907e+18
14625.0	1.4783085803470848e+18
14626.0	1.4780205524582397e+18
14627.0	1.4777309995204605e+18
14628.0	1.4774537929359357e+18
14629.0	1.4771678085119995e+18
14630.0	1.476878908207923e+18
14631.0	1.4765949504716797e+18
14632.0	1.4754009596297219e+18
14633.0	1.4759016672526328e+18
14634.0	1.4757313617330173e+18
14635.0	1.4751679039668214e+18
14636.0	1.4745070041300987e+18
14637.0	1.4748779013996541e+18
14638.0	1.4745850752270336e+18
14639.0	1.4742893616955392e+18
14640.0	1.474013893230592e+18
14641.0	1.4701938268438508e+18
14642.0	1.4734385353850877e+18
14643.0	1.4731555020734464e+18
14644.0	1.4728575789826048e+18
14645.0	1.4725576459812864e+18
14646.0	1.4722776896110592e+18
14647.0	1.471979657468313e+18
14648.0	1.4717157384388605e+18
