# Flux units: erg / (cm m2 s)
# Wavelength units: Angstrom
wave	flux
14000.0	2.3855483618066427e+18
14001.0	2.384978480044441e+18
14002.0	2.3844267965284347e+18
14003.0	2.3838639796518907e+18
14004.0	2.383301255050034e+18
14005.0	2.3827385405145083e+18
14006.0	2.382174215366246e+18
14007.0	2.3816121333317627e+18
14008.0	2.3810240432570363e+18
14009.0	2.380489006094745e+18
14010.0	2.379923124020838e+18
14011.0	2.379222519224729e+18
14012.0	2.3788036122738683e+18
14013.0	2.378242288569549e+18
14014.0	2.3776809430548475e+18
14015.0	2.3771191546216443e+18
14016.0	2.3765588409057275e+18
14017.0	2.3759980037406715e+18
14018.0	2.3754370541682683e+18
14019.0	2.3748767958171643e+18
14020.0	2.3743126032089083e+18
14021.0	2.3736835750494203e+18
14022.0	2.373121353764045e+18
14023.0	2.3725511549124603e+18
14024.0	2.371995183140045e+18
14025.0	2.3714434291597307e+18
14026.0	2.3708837865324544e+18
14027.0	2.3703249173348347e+18
14028.0	2.3697656203182075e+18
14029.0	2.369206054866125e+18
14030.0	2.368003766013133e+18
14031.0	2.3680779783503867e+18
14032.0	2.367529173804646e+18
14033.0	2.3669535022252027e+18
14034.0	2.3664111065759744e+18
14035.0	2.3658547371835387e+18
14036.0	2.3652969870262267e+18
14037.0	2.364738441628877e+18
14038.0	2.3641623321640955e+18
14039.0	2.363552758864281e+18
14040.0	2.362992180068352e+18
14041.0	2.3624366629584896e+18
14042.0	2.3618777618841595e+18
14043.0	2.361313577664512e+18
14044.0	2.3607640248549376e+18
14045.0	2.360208875166105e+18
14046.0	2.3596512239943675e+18
14047.0	2.3590920729395195e+18
14048.0	2.358539122743705e+18
14049.0	2.3579840049315835e+18
14050.0	2.3574280633581563e+18
14051.0	2.3568698132398075e+18
14052.0	2.356316512400179e+18
14053.0	2.355760871138918e+18
14054.0	2.355205615753625e+18
14055.0	2.3546503838564347e+18
14056.0	2.354095301276467e+18
14057.0	2.3535403881463803e+18
14058.0	2.352938881332019e+18
14059.0	2.3523611109228544e+18
14060.0	2.3518064662282235e+18
14061.0	2.3512504424464384e+18
14062.0	2.350697639890125e+18
14063.0	2.350139002218086e+18
14064.0	2.349507445732147e+18
14065.0	2.3490335313231867e+18
14066.0	2.348481785731481e+18
14067.0	2.3479112211365883e+18
14068.0	2.3473748703182843e+18
14069.0	2.346819915245158e+18
14070.0	2.3462680337580027e+18
14071.0	2.345714905723699e+18
14072.0	2.345162774256025e+18
14073.0	2.3446101394718715e+18
14074.0	2.3440576238059515e+18
14075.0	2.3434996186349563e+18
14076.0	2.342934278465126e+18
14077.0	2.3422468806934523e+18
14078.0	2.3418374193151995e+18
14079.0	2.3412955487928315e+18
14080.0	2.3407384563023867e+18
14081.0	2.3401262053588987e+18
14082.0	2.3395704349130747e+18
14083.0	2.3390230547529723e+18
14084.0	2.338472174865613e+18
14085.0	2.3377598847385595e+18
14086.0	2.337357941230797e+18
14087.0	2.3368197684068347e+18
14088.0	2.336264242908364e+18
14089.0	2.33570302993367e+18
14090.0	2.335166036547993e+18
14091.0	2.3346185188147195e+18
14092.0	2.334068685825638e+18
14093.0	2.3335188998127616e+18
14094.0	2.332969199363686e+18
14095.0	2.332419485492838e+18
14096.0	2.3318380022857723e+18
14097.0	2.3313056259899387e+18
14098.0	2.3307568180887547e+18
14099.0	2.330223138203238e+18
14100.0	2.3296719210938363e+18
14101.0	2.329126215299891e+18
14102.0	2.3285776691232763e+18
14103.0	2.328026416781721e+18
14104.0	2.327481437441229e+18
14105.0	2.3269173891170304e+18
14106.0	2.32631869416407e+18
14107.0	2.325768899762585e+18
14108.0	2.3252196489428987e+18
14109.0	2.324674094143897e+18
14110.0	2.324122761271705e+18
14111.0	2.323570951926579e+18
14112.0	2.3230333780492283e+18
14113.0	2.3224779498586107e+18
14114.0	2.3219355307212795e+18
14115.0	2.321392462305689e+18
14116.0	2.320802228102758e+18
14117.0	2.31926539485184e+18
14118.0	2.319752964236902e+18
14119.0	2.3191886290223094e+18
14120.0	2.3186443778129915e+18
14121.0	2.3181072686645243e+18
14122.0	2.3175560851095547e+18
14123.0	2.316993808459366e+18
14124.0	2.31644643501015e+18
14125.0	2.3158103620976635e+18
14126.0	2.3153814995468283e+18
14127.0	2.314845162150297e+18
14128.0	2.314300259984998e+18
14129.0	2.31375276909527e+18
14130.0	2.3132052530397184e+18
14131.0	2.3126675365560315e+18
14132.0	2.312123293735321e+18
14133.0	2.3113794926411766e+18
14134.0	2.310969801415065e+18
14135.0	2.3104154251558907e+18
14136.0	2.309819073980006e+18
14137.0	2.3093359673344e+18
14138.0	2.308780802546073e+18
14139.0	2.308251976309145e+18
14140.0	2.3077004773425147e+18
14141.0	2.307157620319846e+18
14142.0	2.3065259950473206e+18
14143.0	2.3060712687403003e+18
14144.0	2.3055382146449405e+18
14145.0	2.3049960152891387e+18
14146.0	2.3044533260386296e+18
14147.0	2.303910272722534e+18
14148.0	2.3033641105883133e+18
14149.0	2.3028197167726587e+18
14150.0	2.302286362365132e+18
14151.0	2.3017326672609277e+18
14152.0	2.3012035776217085e+18
14153.0	2.3006623144345595e+18
14154.0	2.300113701149081e+18
14155.0	2.2994999436115968e+18
14156.0	2.299033018590822e+18
14157.0	2.298498486422732e+18
14158.0	2.2979561008398333e+18
14159.0	2.2974178860728317e+18
14160.0	2.296876824212275e+18
14161.0	2.2963205319950336e+18
14162.0	2.295768751171174e+18
14163.0	2.2952567055056893e+18
14164.0	2.2946636846071803e+18
14165.0	2.294028900184883e+18
14166.0	2.2935736487510013e+18
14167.0	2.2930314594615288e+18
14168.0	2.2924803983802365e+18
14169.0	2.2919374457274365e+18
14170.0	2.29139427664855e+18
14171.0	2.2908584375353341e+18
14172.0	2.2903212260458493e+18
14173.0	2.2897427761594365e+18
14174.0	2.2892419460628477e+18
14175.0	2.288706184124825e+18
14176.0	2.2881665030291448e+18
14177.0	2.2876296723824637e+18
14178.0	2.2870913082982395e+18
14179.0	2.286546503440793e+18
14180.0	2.2860173081051133e+18
14181.0	2.2854799439429624e+18
14182.0	2.2849425160273915e+18
14183.0	2.2844056132386808e+18
14184.0	2.2838672256663547e+18
14185.0	2.2833314553397243e+18
14186.0	2.2825860989976573e+18
14187.0	2.2822511519465467e+18
14188.0	2.2817219616440317e+18
14189.0	2.281183314024857e+18
14190.0	2.280648342293708e+18
14191.0	2.2801114797703165e+18
14192.0	2.2795758201733115e+18
14193.0	2.279007297365606e+18
14194.0	2.278504900277043e+18
14195.0	2.277971686798131e+18
14196.0	2.277436411399372e+18
14197.0	2.2769013289385981e+18
14198.0	2.2763651039494144e+18
14199.0	2.275830028199526e+18
14200.0	2.2751773542318077e+18
14201.0	2.2746971097792504e+18
14202.0	2.2741654985244672e+18
14203.0	2.273621777475174e+18
14204.0	2.2730959560376315e+18
14205.0	2.2725619003424765e+18
14206.0	2.27199654339543e+18
14207.0	2.2714947049881595e+18
14208.0	2.270961083822899e+18
14209.0	2.27039138325463e+18
14210.0	2.2698706654461947e+18
14211.0	2.2693605223170045e+18
14212.0	2.268827231662899e+18
14213.0	2.2682911794790395e+18
14214.0	2.267761328154214e+18
14215.0	2.267225715533414e+18
14216.0	2.2666961913643005e+18
14217.0	2.2661636825284605e+18
14218.0	2.2656277880504317e+18
14219.0	2.2650990708654075e+18
14220.0	2.264567028436172e+18
14221.0	2.2640310433611773e+18
14222.0	2.2634755480616955e+18
14223.0	2.262970683044659e+18
14224.0	2.2624398150205437e+18
14225.0	2.2615873042776064e+18
14226.0	2.2613762871656443e+18
14227.0	2.2608460969410552e+18
14228.0	2.2596233902161917e+18
14229.0	2.2596876536643576e+18
14230.0	2.259253638830489e+18
14231.0	2.2586977559773181e+18
14232.0	2.258192630913433e+18
14233.0	2.25766230982656e+18
14234.0	2.2571321263128573e+18
14235.0	2.256601447871283e+18
14236.0	2.256071856593305e+18
14237.0	2.2555419918467072e+18
14238.0	2.2550125716963323e+18
14239.0	2.2544798481121277e+18
14240.0	2.2536067584360445e+18
14241.0	2.2533817055051773e+18
14242.0	2.2528335468822523e+18
14243.0	2.252264111393996e+18
14244.0	2.251776731591475e+18
14245.0	2.251243690917887e+18
14246.0	2.2507111300726781e+18
14247.0	2.2501904592404475e+18
14248.0	2.2496587322228733e+18
14249.0	2.2491331272114173e+18
14250.0	2.248604863011225e+18
14251.0	2.2480774796148733e+18
14252.0	2.2475495090159613e+18
14253.0	2.2470214931185661e+18
14254.0	2.2464932826054653e+18
14255.0	2.2459585222672381e+18
14256.0	2.245102342347161e+18
14257.0	2.2449034903945213e+18
14258.0	2.2443843815211003e+18
14259.0	2.2438530571567101e+18
14260.0	2.243321415702937e+18
14261.0	2.2427974900908027e+18
14262.0	2.2422865752096765e+18
14263.0	2.2412657705353213e+18
14264.0	2.2411548865593344e+18
14265.0	2.2407053276348413e+18
14266.0	2.2401819170832376e+18
14267.0	2.2396558993522683e+18
14268.0	2.2391302138101757e+18
14269.0	2.2386038940893181e+18
14270.0	2.2380789299675128e+18
14271.0	2.2375520448544765e+18
14272.0	2.2370276209590264e+18
14273.0	2.2365014153232376e+18
14274.0	2.235249096812135e+18
14275.0	2.2353848764989437e+18
14276.0	2.2349173055553533e+18
14277.0	2.2343966179459067e+18
14278.0	2.23387879252951e+18
14279.0	2.2333542847479803e+18
14280.0	2.2328280791121915e+18
14281.0	2.2323059721502715e+18
14282.0	2.2317820163391485e+18
14283.0	2.2312580806606845e+18
14284.0	2.2307342372569085e+18
14285.0	2.2302102965452795e+18
14286.0	2.22968599847895e+18
14287.0	2.229163441887641e+18
14288.0	2.2286401303216128e+18
14289.0	2.2278945340653555e+18
14290.0	2.227540808276377e+18
14291.0	2.2270116699832315e+18
14292.0	2.2264889925959677e+18
14293.0	2.2259655602339832e+18
14294.0	2.2254060501467136e+18
14295.0	2.2249165849362427e+18
14296.0	2.2242173558718461e+18
14297.0	2.2238757012897784e+18
14298.0	2.2232151873290237e+18
14299.0	2.2228238872870912e+18
14300.0	2.222307224531763e+18
14301.0	2.2217870066843643e+18
14302.0	2.2212650993713152e+18
14303.0	2.220733669310464e+18
14304.0	2.2202186926653432e+18
14305.0	2.2196985989693432e+18
14306.0	2.2191524167024637e+18
14307.0	2.2186453303820283e+18
14308.0	2.2181305332531195e+18
14309.0	2.217601990551142e+18
14310.0	2.2169741787398136e+18
14311.0	2.2164815325691896e+18
14312.0	2.2160062122295293e+18
14313.0	2.2155077309431803e+18
14314.0	2.2150025270263803e+18
14315.0	2.2144906021568504e+18
14316.0	2.213958157074432e+18
14317.0	2.2134278041108477e+18
14318.0	2.2129339919237117e+18
14319.0	2.2124151581966333e+18
14320.0	2.2118958479966203e+18
14321.0	2.2113768196538365e+18
14322.0	2.2108458023124987e+18
14323.0	2.2103343270723581e+18
14324.0	2.2098189628735483e+18
14325.0	2.2092978172461053e+18
14326.0	2.2087822399766523e+18
14327.0	2.2082615305568253e+18
14328.0	2.2077434283163643e+18
14329.0	2.2072266565091328e+18
14330.0	2.2067083479089152e+18
14331.0	2.2061866419224573e+18
14332.0	2.2056720461201408e+18
14333.0	2.2051406613577723e+18
14334.0	2.2046034783895547e+18
14335.0	2.2040815744319485e+18
14336.0	2.2035291829174267e+18
14337.0	2.203050465191526e+18
14338.0	2.2025327119171581e+18
14339.0	2.202012391728742e+18
14340.0	2.2014984619819005e+18
14341.0	2.2009786920861693e+18
14342.0	2.2004647287848955e+18
14343.0	2.1999441401610237e+18
14344.0	2.1994287491186683e+18
14345.0	2.1988908698959864e+18
14346.0	2.1983385622675456e+18
14347.0	2.1978092645908477e+18
14348.0	2.1973064178728957e+18
14349.0	2.196791459682713e+18
14350.0	2.196247688301772e+18
14351.0	2.19572853580759e+18
14352.0	2.1952418723921915e+18
14353.0	2.1947278705033208e+18
14354.0	2.194208469706342e+18
14355.0	2.1936860792094715e+18
14356.0	2.1931736107581437e+18
14357.0	2.1926655530369021e+18
14358.0	2.1921502559469565e+18
14359.0	2.1916301807058936e+18
14360.0	2.1911173532221437e+18
14361.0	2.1906041063079933e+18
14362.0	2.1900901111300093e+18
14363.0	2.1895751697170427e+18
14364.0	2.1889606689488896e+18
14365.0	2.1885310648451064e+18
14366.0	2.1880046595604477e+18
14367.0	2.187493316860313e+18
14368.0	2.186978977749401e+18
14369.0	2.1864650295476221e+18
14370.0	2.1859511266443261e+18
14371.0	2.1854373915131896e+18
14372.0	2.1849233141268477e+18
14373.0	2.1844098440757243e+18
14374.0	2.1838963522142203e+18
14375.0	2.1833828737744893e+18
14376.0	2.1828695077421053e+18
14377.0	2.1823560762785787e+18
14378.0	2.1818423663132672e+18
14379.0	2.181330006913843e+18
14380.0	2.1808169059614717e+18
14381.0	2.1803005670064123e+18
14382.0	2.1797909137719296e+18
14383.0	2.1792728450859005e+18
14384.0	2.17875984982999e+18
14385.0	2.178253743298969e+18
14386.0	2.1777369043828733e+18
14387.0	2.1772290496659453e+18
14388.0	2.1767162976796667e+18
14389.0	2.176204822439526e+18
14390.0	2.1756923690876925e+18
14391.0	2.175180987799961e+18
14392.0	2.174667747596697e+18
14393.0	2.1741575759462395e+18
14394.0	2.1736349589569528e+18
14395.0	2.173115762842009e+18
14396.0	2.172622210701721e+18
14397.0	2.1721118830231547e+18
14398.0	2.1715992535105533e+18
14399.0	2.1710881440137216e+18
14400.0	2.1705666913632253e+18
14401.0	2.1700650509271032e+18
14402.0	2.1695558053789693e+18
14403.0	2.1677758451023846e+18
14404.0	2.1651505731862515e+18
14405.0	2.1676893317103598e+18
14406.0	2.167513226307174e+18
14407.0	2.1651373913276419e+18
14408.0	2.1664716615057403e+18
14409.0	2.1659567637135357e+18
14410.0	2.165410708953497e+18
14411.0	2.1649069361332221e+18
14412.0	2.1643968903118845e+18
14413.0	2.1638877018062845e+18
14414.0	2.1633769832185856e+18
14415.0	2.1628674138701821e+18
14416.0	2.1623530277830648e+18
14417.0	2.1618278120030203e+18
14418.0	2.1613176940396544e+18
14419.0	2.160828279160832e+18
14420.0	2.1603179984584701e+18
14421.0	2.159809548150374e+18
14422.0	2.1592995442720765e+18
14423.0	2.15878099575767e+18
14424.0	2.1506805465087946e+18
14425.0	2.1577669959221245e+18
14426.0	2.157263731451494e+18
14427.0	2.1567555797778427e+18
14428.0	2.156239427049881e+18
14429.0	2.1557374678466555e+18
14430.0	2.1552297188261885e+18
14431.0	2.1545700303044605e+18
14432.0	2.15420580701143e+18
14433.0	2.1523137514438646e+18
14434.0	2.1531919363604475e+18
14435.0	2.152663455734169e+18
14436.0	2.1521794464743421e+18
14437.0	2.151671798117171e+18
14438.0	2.151109031572275e+18
14439.0	2.150644150016409e+18
14440.0	2.1501480510947325e+18
14441.0	2.1496394095263744e+18
14442.0	2.149130627029401e+18
14443.0	2.1486133686829056e+18
14444.0	2.1481166909472765e+18
14445.0	2.1476100961992701e+18
14446.0	2.1455742481465347e+18
14447.0	2.1465909323366395e+18
14448.0	2.146088615778713e+18
14449.0	2.1455815428800512e+18
14450.0	2.1450726244876283e+18
14451.0	2.144566991074099e+18
14452.0	2.1440583327285243e+18
14453.0	2.1435240673181693e+18
14454.0	2.1430458529087483e+18
14455.0	2.1425376056049661e+18
14456.0	2.142025108632371e+18
14457.0	2.141514150130483e+18
14458.0	2.141008785152409e+18
14459.0	2.1405033899753467e+18
14460.0	2.139994520236851e+18
14461.0	2.1394599025049592e+18
14462.0	2.1388969279225853e+18
14463.0	2.1384642552659958e+18
14464.0	2.1379726023065595e+18
14465.0	2.137465734089932e+18
14466.0	2.1369662411374587e+18
14467.0	2.1364375575068667e+18
14468.0	2.1359530482860027e+18
14469.0	2.1354343621984253e+18
14470.0	2.1349361745133565e+18
14471.0	2.1344348595552253e+18
14472.0	2.1339305699966973e+18
14473.0	2.1334280621785083e+18
14474.0	2.1329228481953787e+18
14475.0	2.13241586253824e+18
14476.0	2.131821427320422e+18
14477.0	2.1314056174436347e+18
14478.0	2.130900581298995e+18
14479.0	2.13039428182999e+18
14480.0	2.1298852157980667e+18
14481.0	2.1293852430172155e+18
14482.0	2.12887913145303e+18
14483.0	2.1283718807158781e+18
14484.0	2.1278679636115453e+18
14485.0	2.1273533292216315e+18
14486.0	2.1267792061792253e+18
14487.0	2.126313078076211e+18
14488.0	2.125758641419059e+18
14489.0	2.1252772041064443e+18
14490.0	2.1247842341355515e+18
14491.0	2.1242832496885755e+18
14492.0	2.1237784584912893e+18
14493.0	2.123271497999974e+18
14494.0	2.1227625460531195e+18
14495.0	2.1222644137328637e+18
14496.0	2.1217227210489856e+18
14497.0	2.1212548581818365e+18
14498.0	2.1207499931647995e+18
14499.0	2.1202456834736128e+18
14500.0	2.1197408302006267e+18
14501.0	2.1191903647105024e+18
14502.0	2.1186209107673083e+18
14503.0	2.1182127680782333e+18
14504.0	2.1177205614706683e+18
14505.0	2.117173682949324e+18
14506.0	2.116616597169766e+18
14507.0	2.1161420032835584e+18
14508.0	2.1157039266856955e+18
14509.0	2.115199474388172e+18
14510.0	2.1146949935693821e+18
14511.0	2.1141905043619837e+18
14512.0	2.1136814668513277e+18
14513.0	2.113181618221875e+18
14514.0	2.1126644152401915e+18
14515.0	2.112172060993126e+18
14516.0	2.1111241963470853e+18
14517.0	2.111163619449241e+18
14518.0	2.110659443975782e+18
14519.0	2.1101551292514301e+18
14520.0	2.1096507306409976e+18
14521.0	2.1091459595763704e+18
14522.0	2.108635138647654e+18
14523.0	2.107991106623897e+18
14524.0	2.1074987775426555e+18
14525.0	2.107099600597811e+18
14526.0	2.1065969988272125e+18
14527.0	2.106085651093913e+18
14528.0	2.1055493170528253e+18
14529.0	2.10508128976896e+18
14530.0	2.1045756899098621e+18
14531.0	2.1040753597743101e+18
14532.0	2.1034308361781245e+18
14533.0	2.1030669970833403e+18
14534.0	2.1025634490777597e+18
14535.0	2.1020558846066683e+18
14536.0	2.1015547827191803e+18
14537.0	2.1010469246468093e+18
14538.0	2.1005458378588155e+18
14539.0	2.1000415231344637e+18
14540.0	2.099536943330099e+18
14541.0	2.0990259915390973e+18
14542.0	2.0985275874279421e+18
14543.0	2.097956395365171e+18
14544.0	2.0975179513462781e+18
14545.0	2.0970122357243896e+18
14546.0	2.0888292895489997e+18
14547.0	2.089165112370784e+18
14548.0	2.0954950150389757e+18
14549.0	2.0949616186884093e+18
14550.0	2.094487664014131e+18
14551.0	2.0939847283769344e+18
14552.0	2.0934787258646525e+18
14553.0	2.0929722787561464e+18
14554.0	2.0924694001614843e+18
14555.0	2.0919638003023864e+18
14556.0	2.0914561150353403e+18
14557.0	2.0909532465070077e+18
14558.0	2.0904467993985021e+18
14559.0	2.0895169825996785e+18
14560.0	2.0894111217221627e+18
14561.0	2.088928875747737e+18
14562.0	2.0884154241515515e+18
14563.0	2.0879188521123835e+18
14564.0	2.0873987030515712e+18
14565.0	2.0869089392066557e+18
14566.0	2.086403104466534e+18
14567.0	2.085895263171379e+18
14568.0	2.0853575013892093e+18
14569.0	2.0848836272455677e+18
14570.0	2.0842445008797693e+18
14571.0	2.083871128970854e+18
14572.0	2.0833416131903483e+18
14573.0	2.0828413971398656e+18
14574.0	2.082312445073817e+18
14575.0	2.0818394970324987e+18
14576.0	2.0813340213247997e+18
14577.0	2.080815174175948e+18
14578.0	2.08024059814871e+18
14579.0	2.079727430087475e+18
14580.0	2.0792203806769147e+18
14581.0	2.0787085111721981e+18
14582.0	2.078202859303731e+18
14583.0	2.077697687263641e+18
14584.0	2.0771820630179837e+18
14585.0	2.0766820701044733e+18
14586.0	2.07617317184471e+18
14587.0	2.0756640403816445e+18
14588.0	2.0751584254230525e+18
14589.0	2.074665098097459e+18
14590.0	2.074173069328384e+18
14591.0	2.0736788679098365e+18
14592.0	2.0731874112438264e+18
14593.0	2.0726634520772605e+18
14594.0	2.072202982929203e+18
14595.0	2.0717082932936701e+18
14596.0	2.0711372773916664e+18
14597.0	2.0706352762454008e+18
14598.0	2.0702230751477755e+18
14599.0	2.0697134890221563e+18
14600.0	2.069210992948019e+18
14601.0	2.0687179458019325e+18
14602.0	2.068218511569715e+18
14603.0	2.067728678938214e+18
14604.0	2.067217899952537e+18
14605.0	2.06672281773015e+18
14606.0	2.066224428718489e+18
14607.0	2.0657497710788603e+18
14608.0	2.0652540949430272e+18
14609.0	2.064747488450969e+18
14610.0	2.064240724253081e+18
14611.0	2.0637605502648317e+18
14612.0	2.0632721302749181e+18
14613.0	2.0627777392738296e+18
14614.0	2.062281138713395e+18
14615.0	2.0617825886404605e+18
14616.0	2.061289393854873e+18
14617.0	2.06079254331392e+18
14618.0	2.06027684357079e+18
14619.0	2.0597458983714808e+18
14620.0	2.0590717881548797e+18
14621.0	2.0588023175446525e+18
14622.0	2.0583040258408443e+18
14623.0	2.0578053600051197e+18
14624.0	2.0572900209721344e+18
14625.0	2.056806786819686e+18
14626.0	2.0563043410771965e+18
14627.0	2.055800833336934e+18
14628.0	2.0553061319573501e+18
14629.0	2.0548049898045437e+18
14630.0	2.0543017337225208e+18
14631.0	2.0538012056158203e+18
14632.0	2.0526999139254272e+18
14633.0	2.0527200096747512e+18
14634.0	2.0522911840337915e+18
14635.0	2.0517111637999608e+18
14636.0	2.0510266768752637e+18
14637.0	2.0507862006497277e+18
14638.0	2.0502766648557565e+18
14639.0	2.0497713451761661e+18
14640.0	2.0492711928791037e+18
14641.0	2.0464529796235244e+18
14642.0	2.0482604914442235e+18
14643.0	2.047755935127961e+18
14644.0	2.0472455621509117e+18
14645.0	2.046736736033177e+18
14646.0	2.0462150065586173e+18
14647.0	2.04570642874368e+18
14648.0	2.0452165977899005e+18
14649.0	2.0447129625427965e+18
