# Flux units: erg / (cm m2 s)
# Wavelength units: Angstrom
wave	flux
14000.0	1.9942578895978493e+18
14001.0	1.9937876074561533e+18
14002.0	1.99332002309079e+18
14003.0	1.992851314651955e+18
14004.0	1.992382727009075e+18
14005.0	1.9919142517735421e+18
14006.0	1.9914457597607936e+18
14007.0	1.9909775831597053e+18
14008.0	1.9905074050367483e+18
14009.0	1.9900416611319803e+18
14010.0	1.9895738536296445e+18
14011.0	1.989093573944934e+18
14012.0	1.9886386278563837e+18
14013.0	1.988171217974067e+18
14014.0	1.9877039339208701e+18
14015.0	1.98723673039831e+18
14016.0	1.9867697751785472e+18
14017.0	1.986302897133977e+18
14018.0	1.9858361113640955e+18
14019.0	1.9853695285985275e+18
14020.0	1.9849011674480637e+18
14021.0	1.984424236495667e+18
14022.0	1.9839579943075837e+18
14023.0	1.983491723598233e+18
14024.0	1.9830256407937021e+18
14025.0	1.982560044528435e+18
14026.0	1.9820942888796155e+18
14027.0	1.9816287463014397e+18
14028.0	1.9811632959979515e+18
14029.0	1.9806979346137083e+18
14030.0	1.9802250587144187e+18
14031.0	1.979767614498406e+18
14032.0	1.9793027832741888e+18
14033.0	1.9788377943441405e+18
14034.0	1.978373312086016e+18
14035.0	1.9779087895625725e+18
14036.0	1.9774443861573627e+18
14037.0	1.9769801152921597e+18
14038.0	1.97651168535511e+18
14039.0	1.976039678515609e+18
14040.0	1.975575771715993e+18
14041.0	1.9751119974563837e+18
14042.0	1.974648223196774e+18
14043.0	1.9741843096862715e+18
14044.0	1.9737212350365693e+18
14045.0	1.973258217429401e+18
14046.0	1.972795094125772e+18
14047.0	1.9723320748408824e+18
14048.0	1.971869241783091e+18
14049.0	1.9714065261658107e+18
14050.0	1.9709439380553728e+18
14051.0	1.9704812778029053e+18
14052.0	1.9700191409995773e+18
14053.0	1.9695569253433341e+18
14054.0	1.9690948690706432e+18
14055.0	1.9686329302384637e+18
14056.0	1.9681711189131261e+18
14057.0	1.9677094552272893e+18
14058.0	1.9672388190863355e+18
14059.0	1.9667742411980797e+18
14060.0	1.966313013719859e+18
14061.0	1.9658516620902397e+18
14062.0	1.96539073995735e+18
14063.0	1.9649293329629181e+18
14064.0	1.9644677061869565e+18
14065.0	1.9640080524115963e+18
14066.0	1.9635476822491133e+18
14067.0	1.9630872802099192e+18
14068.0	1.9626270123884541e+18
14069.0	1.9621668334862333e+18
14070.0	1.9617068424888317e+18
14071.0	1.9612468967899133e+18
14072.0	1.9607871993937912e+18
14073.0	1.960327577495142e+18
14074.0	1.9598680847810555e+18
14075.0	1.9594087111852032e+18
14076.0	1.958949483551129e+18
14077.0	1.958488766100275e+18
14078.0	1.9580312497422333e+18
14079.0	1.957572386173747e+18
14080.0	1.9571113046573053e+18
14081.0	1.956643206909132e+18
14082.0	1.9561842862981117e+18
14083.0	1.9557263219884032e+18
14084.0	1.9552681295085563e+18
14085.0	1.9548043653152768e+18
14086.0	1.9543519072878587e+18
14087.0	1.9538942080581632e+18
14088.0	1.9534364719185915e+18
14089.0	1.9529788783853565e+18
14090.0	1.952520966085017e+18
14091.0	1.9520493686095864e+18
14092.0	1.9515921760518141e+18
14093.0	1.9511351244226552e+18
14094.0	1.9506781885562875e+18
14095.0	1.950221395296256e+18
14096.0	1.9497643117903872e+18
14097.0	1.9493081627754496e+18
14098.0	1.948851513799475e+18
14099.0	1.9483954587369472e+18
14100.0	1.947939064774656e+18
14101.0	1.9474832781475837e+18
14102.0	1.9470273623359483e+18
14103.0	1.946571305595699e+18
14104.0	1.9461159518207992e+18
14105.0	1.9456564289077243e+18
14106.0	1.9451931546091517e+18
14107.0	1.94473760957399e+18
14108.0	1.9442826953621507e+18
14109.0	1.9438275563356155e+18
14110.0	1.94337223779287e+18
14111.0	1.9429169830035448e+18
14112.0	1.9424632733958144e+18
14113.0	1.9420087870029821e+18
14114.0	1.941554387851673e+18
14115.0	1.941100102785433e+18
14116.0	1.940644609759641e+18
14117.0	1.9401784128700416e+18
14118.0	1.9397380747034621e+18
14119.0	1.939284078205337e+18
14120.0	1.9388304843603968e+18
14121.0	1.9383769223921661e+18
14122.0	1.9379234728312827e+18
14123.0	1.9374700652134397e+18
14124.0	1.9370169159647232e+18
14125.0	1.9365542104137725e+18
14126.0	1.9361115536359424e+18
14127.0	1.9356587986518008e+18
14128.0	1.935206156075008e+18
14129.0	1.9347536913367037e+18
14130.0	1.9343013322948605e+18
14131.0	1.9338490940489728e+18
14132.0	1.9333969833099256e+18
14133.0	1.9329222015188987e+18
14134.0	1.9324814053343224e+18
14135.0	1.9320293080170493e+18
14136.0	1.9315770848706555e+18
14137.0	1.931126484081049e+18
14138.0	1.9306749420896253e+18
14139.0	1.9302238681825275e+18
14140.0	1.9297718966943741e+18
14141.0	1.929321701913395e+18
14142.0	1.9288693613264893e+18
14143.0	1.9284190658822144e+18
14144.0	1.9279695019245568e+18
14145.0	1.9275190001205245e+18
14146.0	1.927068587235737e+18
14147.0	1.9266183471562747e+18
14148.0	1.9261682379390973e+18
14149.0	1.9257182679728128e+18
14150.0	1.9252683886034936e+18
14151.0	1.924818604864307e+18
14152.0	1.9243690375512061e+18
14153.0	1.9239195390246907e+18
14154.0	1.9234701763936253e+18
14155.0	1.9230179163373565e+18
14156.0	1.9225714544869373e+18
14157.0	1.9221228350865408e+18
14158.0	1.921673861686886e+18
14159.0	1.9212252171206653e+18
14160.0	1.9207764836351997e+18
14161.0	1.9203267787489272e+18
14162.0	1.9198773892743163e+18
14163.0	1.9194314810720253e+18
14164.0	1.9189791018975232e+18
14165.0	1.918515154832588e+18
14166.0	1.9180758182658045e+18
14167.0	1.9176281937543165e+18
14168.0	1.9171804367028221e+18
14169.0	1.9167330185510907e+18
14170.0	1.916285518191001e+18
14171.0	1.9158382980104187e+18
14172.0	1.915391213725286e+18
14173.0	1.9149402136379387e+18
14174.0	1.9144971642732541e+18
14175.0	1.9140505178734587e+18
14176.0	1.9136038647627773e+18
14177.0	1.9131573341257725e+18
14178.0	1.9127108219437056e+18
14179.0	1.9122638332887037e+18
14180.0	1.9118185089335293e+18
14181.0	1.9113724849684477e+18
14182.0	1.910926556633497e+18
14183.0	1.910480796070707e+18
14184.0	1.91003502879703e+18
14185.0	1.9095896071340027e+18
14186.0	1.9091416755994621e+18
14187.0	1.908698908092006e+18
14188.0	1.9082537263431675e+18
14189.0	1.9078085932482555e+18
14190.0	1.907363752076902e+18
14191.0	1.9069189696258043e+18
14192.0	1.906474128454451e+18
14193.0	1.9060293510365181e+18
14194.0	1.9055853017497592e+18
14195.0	1.905141064558182e+18
14196.0	1.904696882731417e+18
14197.0	1.9042528200228861e+18
14198.0	1.9038087891910653e+18
14199.0	1.9033649361977341e+18
14200.0	1.902918645474918e+18
14201.0	1.902466410584473e+18
14202.0	1.9020230088982525e+18
14203.0	1.9015787264081917e+18
14204.0	1.901136374975692e+18
14205.0	1.9006932786348032e+18
14206.0	1.9002477210763261e+18
14207.0	1.8998075104165883e+18
14208.0	1.899364783174451e+18
14209.0	1.898919329634713e+18
14210.0	1.8984776576794621e+18
14211.0	1.8980373128019963e+18
14212.0	1.897595062032793e+18
14213.0	1.897152923670937e+18
14214.0	1.8967109463703547e+18
14215.0	1.896268811363942e+18
14216.0	1.8958273457684475e+18
14217.0	1.8953857275002877e+18
14218.0	1.8949442166063104e+18
14219.0	1.8945028265082877e+18
14220.0	1.8940615622393853e+18
14221.0	1.8936204103778304e+18
14222.0	1.8931793910562816e+18
14223.0	1.8927384925306877e+18
14224.0	1.8922977181564925e+18
14225.0	1.891852754511462e+18
14226.0	1.8914165066301435e+18
14227.0	1.8909761013547005e+18
14228.0	1.8905262018527227e+18
14229.0	1.8900937758212093e+18
14230.0	1.8896555935268861e+18
14231.0	1.8892156613689341e+18
14232.0	1.888775855040102e+18
14233.0	1.8883361695072253e+18
14234.0	1.8878966030925821e+18
14235.0	1.8874514347655165e+18
14236.0	1.8870098299191293e+18
14237.0	1.8865706342809592e+18
14238.0	1.8861315778936832e+18
14239.0	1.8856925097623547e+18
14240.0	1.8852229372968955e+18
14241.0	1.8848067214114808e+18
14242.0	1.8843653246025725e+18
14243.0	1.883923419444019e+18
14244.0	1.8834884399202304e+18
14245.0	1.8830501921947643e+18
14246.0	1.8826120384217083e+18
14247.0	1.8821740188663805e+18
14248.0	1.881735836572057e+18
14249.0	1.8812983002005504e+18
14250.0	1.880860646388531e+18
14251.0	1.880423153637785e+18
14252.0	1.8799857347067904e+18
14253.0	1.879548423149977e+18
14254.0	1.8791112055455741e+18
14255.0	1.8786735467003896e+18
14256.0	1.8782332823535608e+18
14257.0	1.8778003194511352e+18
14258.0	1.8773637393809405e+18
14259.0	1.8769271492444155e+18
14260.0	1.8764905943400443e+18
14261.0	1.876054601472409e+18
14262.0	1.8756244655308792e+18
14263.0	1.8751824328654843e+18
14264.0	1.8747511644618747e+18
14265.0	1.8743164449849341e+18
14266.0	1.873880690353766e+18
14267.0	1.8734450397413373e+18
14268.0	1.8730095401238525e+18
14269.0	1.872574090838016e+18
14270.0	1.8721388747554813e+18
14271.0	1.8717035848531965e+18
14272.0	1.8712686724382717e+18
14273.0	1.8708337382129661e+18
14274.0	1.870390148621926e+18
14275.0	1.8699634872418304e+18
14276.0	1.8695290177454075e+18
14277.0	1.8690950129778688e+18
14278.0	1.8686609411014653e+18
14279.0	1.8682267115192315e+18
14280.0	1.8677924785815552e+18
14281.0	1.8673586667519997e+18
14282.0	1.8669248113016832e+18
14283.0	1.8664910783250432e+18
14284.0	1.8660574594334715e+18
14285.0	1.8656239579824125e+18
14286.0	1.8651905488060413e+18
14287.0	1.864757302368665e+18
14288.0	1.8643241482059776e+18
14289.0	1.8638714200653821e+18
14290.0	1.863447369220096e+18
14291.0	1.8630143895404541e+18
14292.0	1.8625816984289275e+18
14293.0	1.862149064359936e+18
14294.0	1.8617136251404283e+18
14295.0	1.8612842877943803e+18
14296.0	1.8608360777580541e+18
14297.0	1.860419898782515e+18
14298.0	1.859984419297689e+18
14299.0	1.859555929201049e+18
14300.0	1.8591242665328635e+18
14301.0	1.85869251158999e+18
14302.0	1.8582610133385213e+18
14303.0	1.857829625816678e+18
14304.0	1.8573980671672317e+18
14305.0	1.856967033644646e+18
14306.0	1.8565340908748797e+18
14307.0	1.8561045673017341e+18
14308.0	1.8556742501662717e+18
14309.0	1.8552434196479997e+18
14310.0	1.854803935441715e+18
14311.0	1.8543801698091003e+18
14312.0	1.8539514465091581e+18
14313.0	1.8535204029202432e+18
14314.0	1.8530915772792832e+18
14315.0	1.852661609109913e+18
14316.0	1.8522305604878333e+18
14317.0	1.8518009647726587e+18
14318.0	1.8513722230177787e+18
14319.0	1.8509426642124797e+18
14320.0	1.85051319935959e+18
14321.0	1.8500838704021504e+18
14322.0	1.8496537411715064e+18
14323.0	1.8492251386675197e+18
14324.0	1.8487965479075835e+18
14325.0	1.8483676736126976e+18
14326.0	1.8479389100474365e+18
14327.0	1.8475102454677504e+18
14328.0	1.8470815892766715e+18
14329.0	1.8466533055397883e+18
14330.0	1.8462249999925245e+18
14331.0	1.8457967967862784e+18
14332.0	1.8453687210868733e+18
14333.0	1.8449407829606392e+18
14334.0	1.84451296395264e+18
14335.0	1.8440846986706941e+18
14336.0	1.8436571044773883e+18
14337.0	1.8432300572213245e+18
14338.0	1.842802629122457e+18
14339.0	1.84237536879575e+18
14340.0	1.8419482342981632e+18
14341.0	1.841521148454502e+18
14342.0	1.8410942404493307e+18
14343.0	1.8406670220656637e+18
14344.0	1.8402404932255741e+18
14345.0	1.8398086426525693e+18
14346.0	1.8393768289894397e+18
14347.0	1.8389501005004797e+18
14348.0	1.8385241890619387e+18
14349.0	1.8380980309983227e+18
14350.0	1.8376716263096315e+18
14351.0	1.8372456628617208e+18
14352.0	1.8368201825976315e+18
14353.0	1.8363944708079613e+18
14354.0	1.8359688026390525e+18
14355.0	1.8355432502329341e+18
14356.0	1.8351178991534077e+18
14357.0	1.8346927124905981e+18
14358.0	1.8342675509936125e+18
14359.0	1.8338424884822013e+18
14360.0	1.833417536700416e+18
14361.0	1.832992739269017e+18
14362.0	1.83256803746775e+18
14363.0	1.8321434245857277e+18
14364.0	1.8317177497059325e+18
14365.0	1.8312943447834621e+18
14366.0	1.8308700926115837e+18
14367.0	1.830446144107315e+18
14368.0	1.8300220915843072e+18
14369.0	1.8295981699235837e+18
14370.0	1.8291743472484347e+18
14371.0	1.8287506436915192e+18
14372.0	1.82832701898752e+18
14373.0	1.8279035335344125e+18
14374.0	1.827480165521817e+18
14375.0	1.827056893139353e+18
14376.0	1.8266337348419581e+18
14377.0	1.826210675530137e+18
14378.0	1.8257876883603453e+18
14379.0	1.8253649260052477e+18
14380.0	1.824942193849139e+18
14381.0	1.8245195254464512e+18
14382.0	1.8240970432708605e+18
14383.0	1.823674103077273e+18
14384.0	1.8232523322556413e+18
14385.0	1.82283024770007e+18
14386.0	1.8224081883103235e+18
14387.0	1.8219862279061504e+18
14388.0	1.8215643429994496e+18
14389.0	1.8211426459975677e+18
14390.0	1.82072097416151e+18
14391.0	1.8202994801639421e+18
14392.0	1.8198778888585213e+18
14393.0	1.8194568176467963e+18
14394.0	1.819035623961395e+18
14395.0	1.8186142708924413e+18
14396.0	1.8181935553576952e+18
14397.0	1.817772702249779e+18
14398.0	1.817351782032998e+18
14399.0	1.816931316478771e+18
14400.0	1.81651027043287e+18
14401.0	1.8160901974654976e+18
14402.0	1.8156699869249528e+18
14403.0	1.8151017442967547e+18
14404.0	1.8144665186336765e+18
14405.0	1.8143778711797755e+18
14406.0	1.8139897839747072e+18
14407.0	1.8133622439542781e+18
14408.0	1.8131495054999547e+18
14409.0	1.8127251946078208e+18
14410.0	1.8123007092326397e+18
14411.0	1.811881423116697e+18
14412.0	1.8114620698918912e+18
14413.0	1.8110429934911488e+18
14414.0	1.8106238516592637e+18
14415.0	1.8102049312866304e+18
14416.0	1.8097860897669115e+18
14417.0	1.8093670569869312e+18
14418.0	1.808947661819084e+18
14419.0	1.8085301222113277e+18
14420.0	1.8081115994587133e+18
14421.0	1.8076933635964925e+18
14422.0	1.8072751378006013e+18
14423.0	1.8068568650285053e+18
14424.0	1.8055744481918968e+18
14425.0	1.8060209150754816e+18
14426.0	1.8056032882262008e+18
14427.0	1.805185600978944e+18
14428.0	1.804767885210419e+18
14429.0	1.804350510019379e+18
14430.0	1.8039331214065661e+18
14431.0	1.8035138688450555e+18
14432.0	1.8030979817930747e+18
14433.0	1.802526247826227e+18
14434.0	1.80226427495383e+18
14435.0	1.8018472168521723e+18
14436.0	1.801430935535616e+18
14437.0	1.801014285120307e+18
14438.0	1.800593291083776e+18
14439.0	1.8001800967749635e+18
14440.0	1.799764845579468e+18
14441.0	1.799348458566451e+18
14442.0	1.798932220870656e+18
14443.0	1.7985153171193853e+18
14444.0	1.7981003343593464e+18
14445.0	1.7976845697810432e+18
14446.0	1.7971016990982136e+18
14447.0	1.7968526228717568e+18
14448.0	1.7964376350785533e+18
14449.0	1.7960221875896315e+18
14450.0	1.7956068256645117e+18
14451.0	1.7951915912462333e+18
14452.0	1.7947762930745341e+18
14453.0	1.7943584145670141e+18
14454.0	1.7939464919711741e+18
14455.0	1.7935316333625341e+18
14456.0	1.7931158050308093e+18
14457.0	1.7926982939443195e+18
14458.0	1.792284468812185e+18
14459.0	1.7918698736058363e+18
14460.0	1.7914558807015421e+18
14461.0	1.7910411177230333e+18
14462.0	1.7906255326609403e+18
14463.0	1.7902133399519224e+18
14464.0	1.7897995517296637e+18
14465.0	1.7893852601909243e+18
14466.0	1.788971935019827e+18
14467.0	1.7885562425835515e+18
14468.0	1.788144464271769e+18
14469.0	1.7877307263811581e+18
14470.0	1.7873172451819515e+18
14471.0	1.7869041985126397e+18
14472.0	1.786491309549158e+18
14473.0	1.786078356832256e+18
14474.0	1.7856653789495293e+18
14475.0	1.7852522735599613e+18
14476.0	1.784829892047667e+18
14477.0	1.7844269737836541e+18
14478.0	1.7840143381561344e+18
14479.0	1.783601853523558e+18
14480.0	1.7831892833271808e+18
14481.0	1.7827774244847616e+18
14482.0	1.7823651378233341e+18
14483.0	1.7819530474553341e+18
14484.0	1.7815412322336765e+18
14485.0	1.7811286133833723e+18
14486.0	1.7807109445910525e+18
14487.0	1.7802972452880381e+18
14488.0	1.7798840207802365e+18
14489.0	1.7794722307244032e+18
14490.0	1.7790607325921277e+18
14491.0	1.7786494341087232e+18
14492.0	1.778238154080256e+18
14493.0	1.7778268874735616e+18
14494.0	1.7774157215301627e+18
14495.0	1.7770046344396797e+18
14496.0	1.7765906834784253e+18
14497.0	1.7761828125802493e+18
14498.0	1.7757720090247165e+18
14499.0	1.7753614755823616e+18
14500.0	1.7749509069078525e+18
14501.0	1.7745358721384448e+18
14502.0	1.774121169557913e+18
14503.0	1.7737191136428027e+18
14504.0	1.773309221090099e+18
14505.0	1.7728941628325888e+18
14506.0	1.7724703703564285e+18
14507.0	1.7720646888849403e+18
14508.0	1.7716602774487037e+18
14509.0	1.7712504771706877e+18
14510.0	1.7708407490347003e+18
14511.0	1.7704311148511227e+18
14512.0	1.7700211870662653e+18
14513.0	1.7696120863981563e+18
14514.0	1.7692013331742715e+18
14515.0	1.76879339348951e+18
14516.0	1.7683358033117184e+18
14517.0	1.76797504283607e+18
14518.0	1.7675659908218875e+18
14519.0	1.767157024371507e+18
14520.0	1.7667481434849277e+18
14521.0	1.7663393347403768e+18
14522.0	1.7659306082041853e+18
14523.0	1.765511660988006e+18
14524.0	1.765102469722931e+18
14525.0	1.7647047943389181e+18
14526.0	1.7642965123989496e+18
14527.0	1.7638873563660288e+18
14528.0	1.7634772540981243e+18
14529.0	1.7630715256504315e+18
14530.0	1.7626633477292035e+18
14531.0	1.762255639570022e+18
14532.0	1.7618320081551352e+18
14533.0	1.7614397836886008e+18
14534.0	1.7610320973398013e+18
14535.0	1.7606243740811261e+18
14536.0	1.7602167531634685e+18
14537.0	1.7598089393078272e+18
14538.0	1.759401726076518e+18
14539.0	1.7589943501062144e+18
14540.0	1.7585870244675581e+18
14541.0	1.7581796837294077e+18
14542.0	1.7577725980049403e+18
14543.0	1.757359016142438e+18
14544.0	1.756958456754995e+18
14545.0	1.7565516696649725e+18
14546.0	1.755136113875353e+18
14547.0	1.754837113687244e+18
14548.0	1.7553310382817275e+18
14549.0	1.7549220114333696e+18
14550.0	1.7545179506409464e+18
14551.0	1.7541114235977728e+18
14552.0	1.7537048311234557e+18
14553.0	1.7532983024025595e+18
14554.0	1.7528921981452285e+18
14555.0	1.7524858690732032e+18
14556.0	1.7520794292715515e+18
14557.0	1.75167354479575e+18
14558.0	1.751267443893862e+18
14559.0	1.7508253390864381e+18
14560.0	1.7504549048680443e+18
14561.0	1.750049364325171e+18
14562.0	1.7496435838681085e+18
14563.0	1.7492378470318077e+18
14564.0	1.748831895447142e+18
14565.0	1.748426415302246e+18
14566.0	1.7480207824846848e+18
14567.0	1.7476152050319357e+18
14568.0	1.74720925344727e+18
14569.0	1.7468041910550525e+18
14570.0	1.746388647936e+18
14571.0	1.7459846072762365e+18
14572.0	1.7455692570951675e+18
14573.0	1.74516432053207e+18
14574.0	1.7447592447180797e+18
14575.0	1.7443546302775293e+18
14576.0	1.7439495678853117e+18
14577.0	1.743540205492633e+18
14578.0	1.743129828078387e+18
14579.0	1.7427248915152893e+18
14580.0	1.7423199801180157e+18
14581.0	1.7419147818303488e+18
14582.0	1.7415102563090427e+18
14583.0	1.7411054707408893e+18
14584.0	1.7407004586803197e+18
14585.0	1.7402959918792704e+18
14586.0	1.7398912314769405e+18
14587.0	1.7394864559751163e+18
14588.0	1.7390836685733888e+18
14589.0	1.7386932359135224e+18
14590.0	1.7383051923292157e+18
14591.0	1.7379171453894653e+18
14592.0	1.7375292645441533e+18
14593.0	1.7371387681308664e+18
14594.0	1.7367534307115003e+18
14595.0	1.736365380416307e+18
14596.0	1.7359758352711675e+18
14597.0	1.7355884745195517e+18
14598.0	1.7352015801745405e+18
14599.0	1.7348137463054328e+18
14600.0	1.7344258755264507e+18
14601.0	1.734038112121651e+18
14602.0	1.733649873921638e+18
14603.0	1.7332621558153216e+18
14604.0	1.732873239815782e+18
14605.0	1.7324859797274624e+18
14606.0	1.732097025140326e+18
14607.0	1.7317102012596221e+18
14608.0	1.731322347257856e+18
14609.0	1.7309335302438907e+18
14610.0	1.7305459664879616e+18
14611.0	1.7301584278978557e+18
14612.0	1.7297705772515325e+18
14613.0	1.7293825856765947e+18
14614.0	1.7289945169264635e+18
14615.0	1.7286065689722875e+18
14616.0	1.7282185723641853e+18
14617.0	1.727830525424435e+18
14618.0	1.727442357688729e+18
14619.0	1.727053668181606e+18
14620.0	1.7266635224121344e+18
14621.0	1.7262781799596027e+18
14622.0	1.725890023967948e+18
14623.0	1.7255018444881915e+18
14624.0	1.725112297665331e+18
14625.0	1.7247253865431037e+18
14626.0	1.7243368245428221e+18
14627.0	1.7239481853673467e+18
14628.0	1.7235604286734328e+18
14629.0	1.7231720260567037e+18
14630.0	1.7227835512979453e+18
14631.0	1.7223950060748797e+18
14632.0	1.721939659010867e+18
14633.0	1.7216095437979643e+18
14634.0	1.7212291539795963e+18
14635.0	1.7208367365750781e+18
14636.0	1.720442275705651e+18
14637.0	1.7200632565858296e+18
14638.0	1.7196742734774272e+18
14639.0	1.7192850890424315e+18
14640.0	1.7188961478770688e+18
14641.0	1.718242745778176e+18
14642.0	1.7181071607070715e+18
14643.0	1.7177180182151165e+18
14644.0	1.7173286844628984e+18
14645.0	1.716938786996224e+18
14646.0	1.7165496981913597e+18
14647.0	1.716160028894822e+18
14648.0	1.7157705743466493e+18
