# Flux units: erg / (cm m2 s)
# Wavelength units: Angstrom
wave	flux
14000.0	2.032738075305574e+18
14001.0	2.0322602350280701e+18
14002.0	2.031866661673369e+18
14003.0	2.0314298148454397e+18
14004.0	2.0309922281422843e+18
14005.0	2.030554607884697e+18
14006.0	2.0301127899676664e+18
14007.0	2.0296741832097787e+18
14008.0	2.0291821091422203e+18
14009.0	2.028804427166515e+18
14010.0	2.028359753767321e+18
14011.0	2.0275757460750333e+18
14012.0	2.0274940712321021e+18
14013.0	2.02705749451735e+18
14014.0	2.026617324122931e+18
14015.0	2.026182889858662e+18
14016.0	2.025747923756646e+18
14017.0	2.0253116255436797e+18
14018.0	2.0248751998238717e+18
14019.0	2.024404719711027e+18
14020.0	2.0239647221219328e+18
14021.0	2.023528351766937e+18
14022.0	2.0230928353722365e+18
14023.0	2.0226500728979453e+18
14024.0	2.0222131388284925e+18
14025.0	2.0217863818182653e+18
14026.0	2.021349831947059e+18
14027.0	2.0209157533597693e+18
14028.0	2.020480599352934e+18
14029.0	2.0200452490526717e+18
14030.0	2.0194749361160187e+18
14031.0	2.0191626433396733e+18
14032.0	2.0187394112225275e+18
14033.0	2.0182806248292347e+18
14034.0	2.017871436919603e+18
14035.0	2.017437324777881e+18
14036.0	2.016998910957977e+18
14037.0	2.01653125948375e+18
14038.0	2.0160970953326587e+18
14039.0	2.0156630167453693e+18
14040.0	2.0152232490041344e+18
14041.0	2.014792527537766e+18
14042.0	2.0143541892153344e+18
14043.0	2.0139046219022333e+18
14044.0	2.013487738283622e+18
14045.0	2.0130591810781181e+18
14046.0	2.0126245924634621e+18
14047.0	2.0121904434118656e+18
14048.0	2.0117603544465403e+18
14049.0	2.011328237115801e+18
14050.0	2.0108953681657853e+18
14051.0	2.010457271435264e+18
14052.0	2.0100298685022205e+18
14053.0	2.0095972965089277e+18
14054.0	2.0091649426194427e+18
14055.0	2.008732550142361e+18
14056.0	2.0082813252403197e+18
14057.0	2.00783093081047e+18
14058.0	2.007398811802009e+18
14059.0	2.0069668219781117e+18
14060.0	2.0065349378506747e+18
14061.0	2.0060993056931835e+18
14062.0	2.0056714699079675e+18
14063.0	2.0052303197241336e+18
14064.0	2.004787023734374e+18
14065.0	2.004372151703961e+18
14066.0	2.0039458074132475e+18
14067.0	2.003514728592179e+18
14068.0	2.003083696747315e+18
14069.0	2.0026520626003965e+18
14070.0	2.0022218796826621e+18
14071.0	2.0017896012906493e+18
14072.0	2.0013606212993021e+18
14073.0	2.0009301330362365e+18
14074.0	2.0004998058344445e+18
14075.0	2.000058868721254e+18
14076.0	1.9996393225584637e+18
14077.0	1.9991777410809853e+18
14078.0	1.9987769451347963e+18
14079.0	1.9983100486352896e+18
14080.0	1.9978830886207483e+18
14081.0	1.9974533553324027e+18
14082.0	1.997018879125094e+18
14083.0	1.996593338463027e+18
14084.0	1.9961647275704317e+18
14085.0	1.9955831789322237e+18
14086.0	1.995303621859737e+18
14087.0	1.9948772238819325e+18
14088.0	1.9944415481036797e+18
14089.0	1.994019211889868e+18
14090.0	1.993590097680793e+18
14091.0	1.9931619632611325e+18
14092.0	1.9927334261882877e+18
14093.0	1.9923049797124093e+18
14094.0	1.9918766271889403e+18
14095.0	1.9914483635847165e+18
14096.0	1.9910120167178235e+18
14097.0	1.9905840601366528e+18
14098.0	1.9901610159243261e+18
14099.0	1.9897364684734461e+18
14100.0	1.9893018731479037e+18
14101.0	1.9888812230443003e+18
14102.0	1.988453560064409e+18
14103.0	1.9880148945862653e+18
14104.0	1.9875633928601597e+18
14105.0	1.987135525198233e+18
14106.0	1.986708860462694e+18
14107.0	1.9862801287741435e+18
14108.0	1.9858476708659197e+18
14109.0	1.9854250544726008e+18
14110.0	1.9849953765490688e+18
14111.0	1.984562307950182e+18
14112.0	1.984143201350451e+18
14113.0	1.9837215764905981e+18
14114.0	1.983287160681267e+18
14115.0	1.982868233597747e+18
14116.0	1.9824252848963581e+18
14117.0	1.9817869722255355e+18
14118.0	1.9815908499259387e+18
14119.0	1.9811582192123901e+18
14120.0	1.9807361128464381e+18
14121.0	1.9803049669165048e+18
14122.0	1.9798831826731003e+18
14123.0	1.9794574960492544e+18
14124.0	1.979032081216307e+18
14125.0	1.9783337379889147e+18
14126.0	1.9781872980590587e+18
14127.0	1.9777624922390525e+18
14128.0	1.977336857624576e+18
14129.0	1.9769054298374144e+18
14130.0	1.976475235175628e+18
14131.0	1.976038973872537e+18
14132.0	1.9756009056632827e+18
14133.0	1.9748537709363192e+18
14134.0	1.9747552735789053e+18
14135.0	1.974323000220057e+18
14136.0	1.9738978622111744e+18
14137.0	1.9734826311483387e+18
14138.0	1.9730563657105405e+18
14139.0	1.9726350831058941e+18
14140.0	1.9722022175113208e+18
14141.0	1.9717865905061883e+18
14142.0	1.9713424808214525e+18
14143.0	1.9709331201064955e+18
14144.0	1.9705179142094843e+18
14145.0	1.970094682092339e+18
14146.0	1.9696705674936317e+18
14147.0	1.9692480584744955e+18
14148.0	1.9688253749723133e+18
14149.0	1.968194491252736e+18
14150.0	1.9677652981907453e+18
14151.0	1.9673412859330552e+18
14152.0	1.9669203439058941e+18
14153.0	1.9664978936070141e+18
14154.0	1.9660600753782781e+18
14155.0	1.9656353718992893e+18
14156.0	1.9652285562880003e+18
14157.0	1.9648095369297912e+18
14158.0	1.9643851287298043e+18
14159.0	1.9639659365662717e+18
14160.0	1.963539999961907e+18
14161.0	1.9630871929683965e+18
14162.0	1.9626340034543616e+18
14163.0	1.9622440741109755e+18
14164.0	1.9618095257616381e+18
14165.0	1.9613039309357053e+18
14166.0	1.9609789881384955e+18
14167.0	1.960551456020889e+18
14168.0	1.9601379966320637e+18
14169.0	1.9597185662320635e+18
14170.0	1.9592958323982333e+18
14171.0	1.9588755832700925e+18
14172.0	1.9584566830301184e+18
14173.0	1.9579858505957373e+18
14174.0	1.9576127353782264e+18
14175.0	1.9571957729067003e+18
14176.0	1.9567756563185664e+18
14177.0	1.9563556202610688e+18
14178.0	1.9559342638366723e+18
14179.0	1.955505741863321e+18
14180.0	1.9550962536415224e+18
14181.0	1.9546766823129088e+18
14182.0	1.9542566730989565e+18
14183.0	1.9538377309159421e+18
14184.0	1.953415347725926e+18
14185.0	1.952999183849881e+18
14186.0	1.952524853365964e+18
14187.0	1.9521465640550397e+18
14188.0	1.9517415436058621e+18
14189.0	1.9513219655663608e+18
14190.0	1.9509041558454272e+18
14191.0	1.9504855492067328e+18
14192.0	1.9500624429187072e+18
14193.0	1.9496419438100477e+18
14194.0	1.9492298853187584e+18
14195.0	1.9488126124687355e+18
14196.0	1.948394307819929e+18
14197.0	1.947976288383795e+18
14198.0	1.9475555678158843e+18
14199.0	1.9471080070578173e+18
14200.0	1.946663243061657e+18
14201.0	1.9462696478965755e+18
14202.0	1.9458532860493821e+18
14203.0	1.9454242523709437e+18
14204.0	1.945016503946444e+18
14205.0	1.9445993065938944e+18
14206.0	1.9441079539466237e+18
14207.0	1.9437665292124155e+18
14208.0	1.9433496405606397e+18
14209.0	1.9428528168632315e+18
14210.0	1.942459213309542e+18
14211.0	1.9420960855687165e+18
14212.0	1.9416819467026427e+18
14213.0	1.941265636864819e+18
14214.0	1.940849082079641e+18
14215.0	1.94042615866327e+18
14216.0	1.940017115037696e+18
14217.0	1.9396009427730432e+18
14218.0	1.9391775831490552e+18
14219.0	1.9387688868118525e+18
14220.0	1.9383531373330424e+18
14221.0	1.9379370858643448e+18
14222.0	1.9375164223389693e+18
14223.0	1.9371060080148475e+18
14224.0	1.9366906628669437e+18
14225.0	1.9362001222369275e+18
14226.0	1.9358597427232763e+18
14227.0	1.9354449059250173e+18
14228.0	1.9348565507702781e+18
14229.0	1.9345780657618936e+18
14230.0	1.9341999962324987e+18
14231.0	1.933781600986726e+18
14232.0	1.9333704149106683e+18
14233.0	1.932952283067187e+18
14234.0	1.9325414610567165e+18
14235.0	1.9321255740047355e+18
14236.0	1.9317125676007416e+18
14237.0	1.9312977408688125e+18
14238.0	1.9308841791389693e+18
14239.0	1.9304497515855864e+18
14240.0	1.9291324146515963e+18
14241.0	1.929608993282457e+18
14242.0	1.9291954248417277e+18
14243.0	1.9286881640382464e+18
14244.0	1.9283681671643133e+18
14245.0	1.9279428731273216e+18
14246.0	1.927525684163379e+18
14247.0	1.927124951970611e+18
14248.0	1.926705838659993e+18
14249.0	1.9263003551596544e+18
14250.0	1.9258871759503355e+18
14251.0	1.9254757566709755e+18
14252.0	1.9250628458971133e+18
14253.0	1.9246496314556416e+18
14254.0	1.9242360277827581e+18
14255.0	1.923805969016422e+18
14256.0	1.92333408632832e+18
14257.0	1.9229966814150656e+18
14258.0	1.9225877552300027e+18
14259.0	1.9221635013804027e+18
14260.0	1.9217593197920253e+18
14261.0	1.9213390119436283e+18
14262.0	1.9209548774506496e+18
14263.0	1.9204272205856768e+18
14264.0	1.9201050024083453e+18
14265.0	1.9197171920273405e+18
14266.0	1.9193085292445696e+18
14267.0	1.918897064666726e+18
14268.0	1.9184857963823104e+18
14269.0	1.918073039958835e+18
14270.0	1.9176633738985472e+18
14271.0	1.917250771825459e+18
14272.0	1.9168412282388477e+18
14273.0	1.916429644542771e+18
14274.0	1.9158437254397947e+18
14275.0	1.9155928691507197e+18
14276.0	1.9151835990327293e+18
14277.0	1.9147754378887163e+18
14278.0	1.9143770930937853e+18
14279.0	1.913966091567104e+18
14280.0	1.9135522798567421e+18
14281.0	1.9131464138358784e+18
14282.0	1.9127365196054528e+18
14283.0	1.9123265398112256e+18
14284.0	1.9119166422253565e+18
14285.0	1.9115068000043003e+18
14286.0	1.9110967497457661e+18
14287.0	1.9106874997604347e+18
14288.0	1.910253540291379e+18
14289.0	1.909264951227186e+18
14290.0	1.9094244807409661e+18
14291.0	1.9090167205724155e+18
14292.0	1.9086080980549632e+18
14293.0	1.9081976115888125e+18
14294.0	1.9077064636235773e+18
14295.0	1.9073726976884733e+18
14296.0	1.9065094830817277e+18
14297.0	1.9065624151982077e+18
14298.0	1.906046376555315e+18
14299.0	1.9056085415493632e+18
14300.0	1.9052033482948603e+18
14301.0	1.9047962541817853e+18
14302.0	1.9043898747781115e+18
14303.0	1.903961302473113e+18
14304.0	1.9035643971633152e+18
14305.0	1.903165069223526e+18
14306.0	1.9027364985962493e+18
14307.0	1.9023433027289083e+18
14308.0	1.9019424111525888e+18
14309.0	1.90153283904471e+18
14310.0	1.9010235045773307e+18
14311.0	1.9006883142565883e+18
14312.0	1.9002888185446392e+18
14313.0	1.8998589694935037e+18
14314.0	1.8994965967273981e+18
14315.0	1.899090492470067e+18
14316.0	1.8986521004605437e+18
14317.0	1.8982686756438008e+18
14318.0	1.897869830887833e+18
14319.0	1.8974633256550397e+18
14320.0	1.897056280195891e+18
14321.0	1.8966499578347515e+18
14322.0	1.896219071951667e+18
14323.0	1.8958251110432763e+18
14324.0	1.8954305763540987e+18
14325.0	1.8950180850106368e+18
14326.0	1.8946180675272704e+18
14327.0	1.894207785743155e+18
14328.0	1.8938019817979896e+18
14329.0	1.8933999225274365e+18
14330.0	1.8929940464402424e+18
14331.0	1.8925880495570936e+18
14332.0	1.8921825157251064e+18
14333.0	1.891776924850585e+18
14334.0	1.8913714010849277e+18
14335.0	1.8909570676031488e+18
14336.0	1.890548673255833e+18
14337.0	1.890154945550745e+18
14338.0	1.8897488245161981e+18
14339.0	1.8893378515107835e+18
14340.0	1.888939852326502e+18
14341.0	1.88853439734743e+18
14342.0	1.8881301167734781e+18
14343.0	1.8877114346373115e+18
14344.0	1.8872842498080765e+18
14345.0	1.8868843682201597e+18
14346.0	1.886478190143078e+18
14347.0	1.8860676063690752e+18
14348.0	1.8856706591162365e+18
14349.0	1.8852665815465981e+18
14350.0	1.8848561521229821e+18
14351.0	1.8844478332731387e+18
14352.0	1.8840487687356413e+18
14353.0	1.8836490364649472e+18
14354.0	1.883244812933529e+18
14355.0	1.8828399602565117e+18
14356.0	1.882436810466918e+18
14357.0	1.8820348887695355e+18
14358.0	1.8816311400333302e+18
14359.0	1.8812181738946555e+18
14360.0	1.8808235267981312e+18
14361.0	1.8804207326855165e+18
14362.0	1.880017683559219e+18
14363.0	1.8796143106326525e+18
14364.0	1.8791911389134845e+18
14365.0	1.878804177459609e+18
14366.0	1.8784018900189181e+18
14367.0	1.8780025738231805e+18
14368.0	1.8775994894647293e+18
14369.0	1.8771970325741563e+18
14370.0	1.8767944498544635e+18
14371.0	1.8763919241773053e+18
14372.0	1.8759862192177147e+18
14373.0	1.8755868828893181e+18
14374.0	1.875184751476736e+18
14375.0	1.874782519400857e+18
14376.0	1.8743803661778936e+18
14377.0	1.8739779260645373e+18
14378.0	1.8735746756116475e+18
14379.0	1.873174372915609e+18
14380.0	1.8727717314756603e+18
14381.0	1.8723636290519037e+18
14382.0	1.8719680793411581e+18
14383.0	1.8715606480060416e+18
14384.0	1.8711536562339837e+18
14385.0	1.8707644952870912e+18
14386.0	1.8703538611814397e+18
14387.0	1.869961688724275e+18
14388.0	1.8695592100233213e+18
14389.0	1.869159249582489e+18
14390.0	1.8687571953451005e+18
14391.0	1.8683571778617341e+18
14392.0	1.8679546270187515e+18
14393.0	1.8675558174949376e+18
14394.0	1.86713199649751e+18
14395.0	1.866746934224486e+18
14396.0	1.8663537266130941e+18
14397.0	1.865953274599833e+18
14398.0	1.8655517018685435e+18
14399.0	1.8651523386966013e+18
14400.0	1.8647410368577533e+18
14401.0	1.8643478242131965e+18
14402.0	1.863950521283379e+18
14403.0	1.861817875405207e+18
14404.0	1.858305301833317e+18
14405.0	1.8618002039635948e+18
14406.0	1.8623508422590461e+18
14407.0	1.8595358519066632e+18
14408.0	1.8615071127109627e+18
14409.0	1.861110598310297e+18
14410.0	1.8607206404456445e+18
14411.0	1.8603226228064253e+18
14412.0	1.8599216624435192e+18
14413.0	1.8595244886982653e+18
14414.0	1.859123548468019e+18
14415.0	1.8587250459672576e+18
14416.0	1.8583258723778555e+18
14417.0	1.8579219944570877e+18
14418.0	1.8575158012805117e+18
14419.0	1.857128368386867e+18
14420.0	1.856727213408256e+18
14421.0	1.856331079850393e+18
14422.0	1.8559319901470715e+18
14423.0	1.8555270300958715e+18
14424.0	1.8453715480477642e+18
14425.0	1.8547291275132925e+18
14426.0	1.8543378811584507e+18
14427.0	1.8539400229027837e+18
14428.0	1.8535278989803512e+18
14429.0	1.8531400785330176e+18
14430.0	1.85274533412864e+18
14431.0	1.852312644694835e+18
14432.0	1.8519408984981504e+18
14433.0	1.849738340283186e+18
14434.0	1.8511416755486715e+18
14435.0	1.8507443323535355e+18
14436.0	1.8503572752695293e+18
14437.0	1.8499594606346237e+18
14438.0	1.8495120793927677e+18
14439.0	1.8491499901616128e+18
14440.0	1.8487659697537021e+18
14441.0	1.8483643433353213e+18
14442.0	1.847964282231193e+18
14443.0	1.8475426439495677e+18
14444.0	1.8471736055955453e+18
14445.0	1.8467789702430717e+18
14446.0	1.8441886972772357e+18
14447.0	1.8459731303596024e+18
14448.0	1.8455881402286077e+18
14449.0	1.845191283572736e+18
14450.0	1.8447909003460605e+18
14451.0	1.8443963841118203e+18
14452.0	1.8439983262072827e+18
14453.0	1.84357078737879e+18
14454.0	1.8432068677533693e+18
14455.0	1.8428071707148283e+18
14456.0	1.8424063898681336e+18
14457.0	1.8420065988771837e+18
14458.0	1.8416190619647997e+18
14459.0	1.8412208278994941e+18
14460.0	1.8408264542715904e+18
14461.0	1.8404176975364093e+18
14462.0	1.8400089911328765e+18
14463.0	1.8396352484474875e+18
14464.0	1.8392428562087933e+18
14465.0	1.8388340474642432e+18
14466.0	1.8384516091478008e+18
14467.0	1.8380227751182333e+18
14468.0	1.8376564949385213e+18
14469.0	1.8372499846725627e+18
14470.0	1.8368503866195965e+18
14471.0	1.8364644183769083e+18
14472.0	1.8360715932860408e+18
14473.0	1.8356817964826621e+18
14474.0	1.835285614270873e+18
14475.0	1.83488601957335e+18
14476.0	1.8343787822579712e+18
14477.0	1.834099693269811e+18
14478.0	1.8337040764502008e+18
14479.0	1.833308211327795e+18
14480.0	1.832825618064998e+18
14481.0	1.8324233222356984e+18
14482.0	1.8320257559035904e+18
14483.0	1.831626370921267e+18
14484.0	1.8312309822717944e+18
14485.0	1.8307993498025981e+18
14486.0	1.8302304075644925e+18
14487.0	1.830023302899302e+18
14488.0	1.8296246779248635e+18
14489.0	1.8292309753855997e+18
14490.0	1.8288367544303608e+18
14491.0	1.8284434478333947e+18
14492.0	1.8280498409242624e+18
14493.0	1.8276520430665725e+18
14494.0	1.8272473346736125e+18
14495.0	1.8268657268293627e+18
14496.0	1.8263858229542912e+18
14497.0	1.826075929319833e+18
14498.0	1.825681934857011e+18
14499.0	1.8252879689154555e+18
14500.0	1.8248933872500733e+18
14501.0	1.8244432830660603e+18
14502.0	1.8239324185165821e+18
14503.0	1.8236996296114176e+18
14504.0	1.8233125859491837e+18
14505.0	1.8228688218750968e+18
14506.0	1.82241790567383e+18
14507.0	1.8219793777688576e+18
14508.0	1.821740223587942e+18
14509.0	1.821346306300313e+18
14510.0	1.8209505384857597e+18
14511.0	1.820558240199475e+18
14512.0	1.8201542213500925e+18
14513.0	1.8197705381642235e+18
14514.0	1.8193517452984315e+18
14515.0	1.8189818177519616e+18
14516.0	1.8171560154103816e+18
14517.0	1.818194523403059e+18
14518.0	1.8178014684643323e+18
14519.0	1.81740785148887e+18
14520.0	1.8170141086842877e+18
14521.0	1.8166195689619453e+18
14522.0	1.81622645194752e+18
14523.0	1.8157137955913723e+18
14524.0	1.8153140196999163e+18
14525.0	1.8150419955974141e+18
14526.0	1.8146519957897208e+18
14527.0	1.8142411049926653e+18
14528.0	1.8137865850454016e+18
14529.0	1.8134637930872827e+18
14530.0	1.8130661663571965e+18
14531.0	1.8126823959298043e+18
14532.0	1.8121209430409213e+18
14533.0	1.8118958196457464e+18
14534.0	1.811503979377459e+18
14535.0	1.8111033612697597e+18
14536.0	1.81071667831767e+18
14537.0	1.8103154193203197e+18
14538.0	1.8099298587639803e+18
14539.0	1.8095365840437243e+18
14540.0	1.8091431247740925e+18
14541.0	1.8087362353430525e+18
14542.0	1.8083560686616568e+18
14543.0	1.8078802450055165e+18
14544.0	1.8075687525023744e+18
14545.0	1.8071706224558075e+18
14546.0	1.7952838189580232e+18
14547.0	1.7959817846980534e+18
14548.0	1.805986221470515e+18
14549.0	1.8055261465870333e+18
14550.0	1.805205174956851e+18
14551.0	1.8048160744079352e+18
14552.0	1.8044215262969853e+18
14553.0	1.8040248458018816e+18
14554.0	1.8036362569580541e+18
14555.0	1.8032424638218237e+18
14556.0	1.8028464930029565e+18
14557.0	1.8024562465701885e+18
14558.0	1.8020625423532032e+18
14559.0	1.8006161366188017e+18
14560.0	1.801273073677107e+18
14561.0	1.8008787990347776e+18
14562.0	1.8004747818631165e+18
14563.0	1.8000960362119163e+18
14564.0	1.799699838900633e+18
14565.0	1.7993099095572475e+18
14566.0	1.7989165559840763e+18
14567.0	1.798522902098739e+18
14568.0	1.798121557537587e+18
14569.0	1.7977360573792253e+18
14570.0	1.7970484381483003e+18
14571.0	1.796947133962649e+18
14572.0	1.7965309314990077e+18
14573.0	1.7961324893962237e+18
14574.0	1.795760315380531e+18
14575.0	1.7953666883387387e+18
14576.0	1.7949532255944704e+18
14577.0	1.794556139090739e+18
14578.0	1.794165624222515e+18
14579.0	1.7937731229319163e+18
14580.0	1.793379517700505e+18
14581.0	1.7929823741542395e+18
14582.0	1.792591711646515e+18
14583.0	1.7921979805859837e+18
14584.0	1.7917974430089208e+18
14585.0	1.7914100101152765e+18
14586.0	1.7910137859604477e+18
14587.0	1.7906195801047037e+18
14588.0	1.7902278706987005e+18
14589.0	1.789844685796147e+18
14590.0	1.7894619220017147e+18
14591.0	1.7890786817343485e+18
14592.0	1.7886926581268475e+18
14593.0	1.7882387438370808e+18
14594.0	1.7879300279631872e+18
14595.0	1.7875433852764155e+18
14596.0	1.787138134979379e+18
14597.0	1.7867598725119995e+18
14598.0	1.7863951006040056e+18
14599.0	1.7860143198765053e+18
14600.0	1.785630312890368e+18
14601.0	1.7852468578746363e+18
14602.0	1.7848606346182653e+18
14603.0	1.7844788640350203e+18
14604.0	1.784068201408102e+18
14605.0	1.783706593683046e+18
14606.0	1.7832879199354877e+18
14607.0	1.7829360396402685e+18
14608.0	1.7825565021044733e+18
14609.0	1.782164371590348e+18
14610.0	1.781782277206835e+18
14611.0	1.7814019444310016e+18
14612.0	1.7810202560561147e+18
14613.0	1.7806358665494525e+18
14614.0	1.7802488094654461e+18
14615.0	1.77986568496087e+18
14616.0	1.7794807736827904e+18
14617.0	1.7790952500363261e+18
14618.0	1.7787091408650232e+18
14619.0	1.778310626620211e+18
14620.0	1.7778908069887995e+18
14621.0	1.7775528920481787e+18
14622.0	1.777164991070208e+18
14623.0	1.7767809320747005e+18
14624.0	1.7763571261767677e+18
14625.0	1.7760063632441344e+18
14626.0	1.7756188347203581e+18
14627.0	1.7752279473979387e+18
14628.0	1.7748490155196413e+18
14629.0	1.7744622721695741e+18
14630.0	1.7740748174655485e+18
14631.0	1.7736873845719037e+18
14632.0	1.7725183431278597e+18
14633.0	1.7728068256792568e+18
14634.0	1.7725232991174656e+18
14635.0	1.7721114352418813e+18
14636.0	1.771687448150016e+18
14637.0	1.7713613158481915e+18
14638.0	1.770971810968371e+18
14639.0	1.7705776470556672e+18
14640.0	1.7701916402253824e+18
14641.0	1.7667245178093548e+18
14642.0	1.7694124442386424e+18
14643.0	1.769026667256217e+18
14644.0	1.7686300236709885e+18
14645.0	1.7682324908933117e+18
14646.0	1.7678520004116477e+18
14647.0	1.7674597340020728e+18
