# Flux units: erg / (cm m2 s)
# Wavelength units: Angstrom
wave	flux
14000.0	1.4929725617078267e+18
14001.0	1.4927025810702336e+18
14002.0	1.4925019876425728e+18
14003.0	1.4922633132900347e+18
14004.0	1.4920245802172416e+18
14005.0	1.4917858286895104e+18
14006.0	1.4915458910126072e+18
14007.0	1.4913076461567997e+18
14008.0	1.4910559593955325e+18
14009.0	1.490829871310438e+18
14010.0	1.490591805970841e+18
14011.0	1.4902527636013056e+18
14012.0	1.490114118366003e+18
14013.0	1.4898777391366141e+18
14014.0	1.489639688896512e+18
14015.0	1.4894012980789245e+18
14016.0	1.4891634458099712e+18
14017.0	1.4889254173802493e+18
14018.0	1.488685337097011e+18
14019.0	1.488449430985113e+18
14020.0	1.488211409266278e+18
14021.0	1.4879734647226365e+18
14022.0	1.487735694662041e+18
14023.0	1.4874978105163768e+18
14024.0	1.4872593307795456e+18
14025.0	1.4870226394939392e+18
14026.0	1.4867848593670141e+18
14027.0	1.486547475182387e+18
14028.0	1.4863099383250941e+18
14029.0	1.4860721363877888e+18
14030.0	1.4857973457223677e+18
14031.0	1.4855921150722048e+18
14032.0	1.4853602120040445e+18
14033.0	1.4851181385875456e+18
14034.0	1.4848860912353277e+18
14035.0	1.4846490744717307e+18
14036.0	1.4844120358977539e+18
14037.0	1.4841750442999805e+18
14038.0	1.4839380778680315e+18
14039.0	1.4837011735117821e+18
14040.0	1.4834643144540157e+18
14041.0	1.4832274738511872e+18
14042.0	1.4829893900566523e+18
14043.0	1.4827482377093115e+18
14044.0	1.4825141183709181e+18
14045.0	1.4822797087866877e+18
14046.0	1.4820442992803837e+18
14047.0	1.481807701947187e+18
14048.0	1.4815713613053947e+18
14049.0	1.4813350139527163e+18
14050.0	1.4810986783440893e+18
14051.0	1.480861339457945e+18
14052.0	1.480626082624307e+18
14053.0	1.480390033906073e+18
14054.0	1.4801539197566973e+18
14055.0	1.4799178660052984e+18
14056.0	1.4796818491637757e+18
14057.0	1.4794459044642813e+18
14058.0	1.4792099916414973e+18
14059.0	1.4789722719125501e+18
14060.0	1.4787383320903672e+18
14061.0	1.4785014931652605e+18
14062.0	1.478266803401523e+18
14063.0	1.4780292011130875e+18
14064.0	1.477785758675763e+18
14065.0	1.4775587679764475e+18
14066.0	1.4773246251499515e+18
14067.0	1.4770892206768125e+18
14068.0	1.4768538396917757e+18
14069.0	1.4766183949533181e+18
14070.0	1.4763832052285435e+18
14071.0	1.4761475641966592e+18
14072.0	1.4759128509448187e+18
14073.0	1.475677733362073e+18
14074.0	1.4754426711441405e+18
14075.0	1.4752054413099003e+18
14076.0	1.4749725785849853e+18
14077.0	1.4747292401663997e+18
14078.0	1.474502046462771e+18
14079.0	1.474267336566374e+18
14080.0	1.474033344734822e+18
14081.0	1.4737986549710845e+18
14082.0	1.4735639115202557e+18
14083.0	1.4733291043160064e+18
14084.0	1.4730941477945344e+18
14085.0	1.4728275561545725e+18
14086.0	1.4726232180523003e+18
14087.0	1.4723900399157245e+18
14088.0	1.4721571016933376e+18
14089.0	1.471922940411904e+18
14090.0	1.4716886465904637e+18
14091.0	1.4714545624842237e+18
14092.0	1.4712204498567163e+18
14093.0	1.4709863774945277e+18
14094.0	1.4707523453976576e+18
14095.0	1.4705183149785085e+18
14096.0	1.470283180618547e+18
14097.0	1.4700483079831547e+18
14098.0	1.4698161985552381e+18
14099.0	1.4695829113667581e+18
14100.0	1.4693473609318395e+18
14101.0	1.4691156407353341e+18
14102.0	1.4688819945144312e+18
14103.0	1.4686457948012541e+18
14104.0	1.4684149772189693e+18
14105.0	1.4681815440687101e+18
14106.0	1.4679481276956672e+18
14107.0	1.4677147683651581e+18
14108.0	1.4674814828543995e+18
14109.0	1.4672476386623483e+18
14110.0	1.467014895055667e+18
14111.0	1.4667814535167995e+18
14112.0	1.4665484381192192e+18
14113.0	1.4663156492140541e+18
14114.0	1.4660826120060925e+18
14115.0	1.465849188922163e+18
14116.0	1.4656141149601792e+18
14117.0	1.465314037674803e+18
14118.0	1.465149872616243e+18
14119.0	1.4649173689237504e+18
14120.0	1.4646849742831613e+18
14121.0	1.4644527541256187e+18
14122.0	1.4642194686148605e+18
14123.0	1.4639871662489597e+18
14124.0	1.4637529999343616e+18
14125.0	1.4634604052873213e+18
14126.0	1.4632892541960187e+18
14127.0	1.4630581883109376e+18
14128.0	1.462825917821747e+18
14129.0	1.462592402463129e+18
14130.0	1.462359685699993e+18
14131.0	1.462129364723302e+18
14132.0	1.4618955322753021e+18
14133.0	1.4615920945135613e+18
14134.0	1.4614314694475773e+18
14135.0	1.461199802938163e+18
14136.0	1.4609695574589435e+18
14137.0	1.4607378020302845e+18
14138.0	1.4605058368864253e+18
14139.0	1.460274510954496e+18
14140.0	1.4600427941134336e+18
14141.0	1.4598102149234685e+18
14142.0	1.4595765703802875e+18
14143.0	1.459348068053811e+18
14144.0	1.4591168528515067e+18
14145.0	1.4588854648438781e+18
14146.0	1.458653939263078e+18
14147.0	1.4584227274162173e+18
14148.0	1.4581915390574592e+18
14149.0	1.4579604110966781e+18
14150.0	1.4577292445483008e+18
14151.0	1.4574978112421885e+18
14152.0	1.4572671144558592e+18
14153.0	1.4570361056133115e+18
14154.0	1.45680190406656e+18
14155.0	1.4565725427466237e+18
14156.0	1.4563432317583357e+18
14157.0	1.4561125483937787e+18
14158.0	1.455881329836032e+18
14159.0	1.4556510373806077e+18
14160.0	1.455418542076723e+18
14161.0	1.4551822484111357e+18
14162.0	1.454945251780198e+18
14163.0	1.4547278811365373e+18
14164.0	1.4544967582089213e+18
14165.0	1.4542661134319613e+18
14166.0	1.454037507086745e+18
14167.0	1.453805520132505e+18
14168.0	1.4535770043842557e+18
14169.0	1.4533469518430203e+18
14170.0	1.4531163691417595e+18
14171.0	1.452886214259507e+18
14172.0	1.4526566230917115e+18
14173.0	1.4524243911901181e+18
14174.0	1.4521957798117373e+18
14175.0	1.4519668161118203e+18
14176.0	1.4517370034847741e+18
14177.0	1.4515072160235515e+18
14178.0	1.4512774453395453e+18
14179.0	1.451047241803366e+18
14180.0	1.4508181254307837e+18
14181.0	1.4505885309075453e+18
14182.0	1.4503588592091136e+18
14183.0	1.4501294509129725e+18
14184.0	1.4498993111302141e+18
14185.0	1.449670255155609e+18
14186.0	1.4494279569244157e+18
14187.0	1.4492076368461821e+18
14188.0	1.448982474863411e+18
14189.0	1.448753418888806e+18
14190.0	1.4485242656063485e+18
14191.0	1.4482950989021181e+18
14192.0	1.4480650698489856e+18
14193.0	1.447835482036633e+18
14194.0	1.4476080819732475e+18
14195.0	1.4473793984528381e+18
14196.0	1.447150533738496e+18
14197.0	1.446921727744409e+18
14198.0	1.4466922204626941e+18
14199.0	1.4464639362400253e+18
14200.0	1.4462282398433275e+18
14201.0	1.4460059719303165e+18
14202.0	1.445778404094771e+18
14203.0	1.4455493833523197e+18
14204.0	1.4453210638974973e+18
14205.0	1.445092378699366e+18
14206.0	1.4448486107840512e+18
14207.0	1.4446355921502203e+18
14208.0	1.4444077760118781e+18
14209.0	1.444162404194713e+18
14210.0	1.4439379367886845e+18
14211.0	1.4437233108975613e+18
14212.0	1.4434954712711165e+18
14213.0	1.4432676450664448e+18
14214.0	1.4430395084832765e+18
14215.0	1.4428097730314235e+18
14216.0	1.4425839634481147e+18
14217.0	1.4423561640869885e+18
14218.0	1.442128393247129e+18
14219.0	1.4419006677057536e+18
14220.0	1.4416730143064064e+18
14221.0	1.4414453256749053e+18
14222.0	1.441217727640371e+18
14223.0	1.4409891011624957e+18
14224.0	1.440761424275046e+18
14225.0	1.440508032948633e+18
14226.0	1.4403055269183483e+18
14227.0	1.440079039535513e+18
14228.0	1.4397684748124157e+18
14229.0	1.4396078581350395e+18
14230.0	1.4393975808983037e+18
14231.0	1.439170689184563e+18
14232.0	1.4389436666085373e+18
14233.0	1.4387166473879547e+18
14234.0	1.4384896399114237e+18
14235.0	1.4382623220563965e+18
14236.0	1.4380357373657085e+18
14237.0	1.4378085503729664e+18
14238.0	1.4375814824984573e+18
14239.0	1.437351649738752e+18
14240.0	1.436852405089075e+18
14241.0	1.4368961332248576e+18
14242.0	1.4366733536067581e+18
14243.0	1.4364281361399808e+18
14244.0	1.4362219542216701e+18
14245.0	1.4359955691798523e+18
14246.0	1.435768932479795e+18
14247.0	1.435543245370163e+18
14248.0	1.4353139410927613e+18
14249.0	1.4350904098553853e+18
14250.0	1.4348642596945915e+18
14251.0	1.434638399779635e+18
14252.0	1.4344122663960573e+18
14253.0	1.434186035704627e+18
14254.0	1.4339596640845821e+18
14255.0	1.4337281536032765e+18
14256.0	1.4334834360975357e+18
14257.0	1.4332770008432637e+18
14258.0	1.4330562177138685e+18
14259.0	1.4328286800773115e+18
14260.0	1.4326028788826107e+18
14261.0	1.432377518928691e+18
14262.0	1.4321730919071741e+18
14263.0	1.4319116894601213e+18
14264.0	1.4317057155792893e+18
14265.0	1.431491883250483e+18
14266.0	1.4312669645373437e+18
14267.0	1.431041708602163e+18
14268.0	1.4308163838803965e+18
14269.0	1.4305907085148157e+18
14270.0	1.4303657394700285e+18
14271.0	1.4301404332031997e+18
14272.0	1.4299149625196541e+18
14273.0	1.4296879785312253e+18
14274.0	1.429405242176307e+18
14275.0	1.4292303162114045e+18
14276.0	1.4290143145885693e+18
14277.0	1.428789560292147e+18
14278.0	1.428565181805363e+18
14279.0	1.4283402060496893e+18
14280.0	1.4281148041527293e+18
14281.0	1.427890977636352e+18
14282.0	1.4276643426140157e+18
14283.0	1.4274368150437885e+18
14284.0	1.4272121614106621e+18
14285.0	1.4269875111329787e+18
14286.0	1.426762830656307e+18
14287.0	1.4265380713267197e+18
14288.0	1.426311280276275e+18
14289.0	1.4259126251028475e+18
14290.0	1.425862716240691e+18
14291.0	1.4256404030291965e+18
14292.0	1.425416484238131e+18
14293.0	1.425191686320947e+18
14294.0	1.4249496632360957e+18
14295.0	1.424741768364032e+18
14296.0	1.4243801203736576e+18
14297.0	1.424290043500953e+18
14298.0	1.4240459618516987e+18
14299.0	1.4238469471600637e+18
14300.0	1.4236243369918464e+18
14301.0	1.4234006245605373e+18
14302.0	1.4231741354999808e+18
14303.0	1.4229434101923837e+18
14304.0	1.422722464323993e+18
14305.0	1.4225006158413821e+18
14306.0	1.422276775903232e+18
14307.0	1.4220529980407803e+18
14308.0	1.4218297973145597e+18
14309.0	1.421605870134886e+18
14310.0	1.4213803424088064e+18
14311.0	1.421155188814643e+18
14312.0	1.4209313908195325e+18
14313.0	1.420677994459955e+18
14314.0	1.4204893950640125e+18
14315.0	1.4202661440061437e+18
14316.0	1.4200366149140477e+18
14317.0	1.4198197391982592e+18
14318.0	1.419597424309043e+18
14319.0	1.4193745574494208e+18
14320.0	1.4191515580497917e+18
14321.0	1.4189286291144701e+18
14322.0	1.4187008817627136e+18
14323.0	1.4184799426052093e+18
14324.0	1.4182601946300416e+18
14325.0	1.418034366591795e+18
14326.0	1.4178088606760957e+18
14327.0	1.417586163266355e+18
14328.0	1.4173626001522685e+18
14329.0	1.4171410066833408e+18
14330.0	1.4169184820789245e+18
14331.0	1.4166959591522301e+18
14332.0	1.4164735503106045e+18
14333.0	1.4162511632793597e+18
14334.0	1.4160287812812797e+18
14335.0	1.4158045588226045e+18
14336.0	1.4155816634417147e+18
14337.0	1.4153619104333821e+18
14338.0	1.4151395603120125e+18
14339.0	1.414917411517235e+18
14340.0	1.414695591555891e+18
14341.0	1.4144735132254203e+18
14342.0	1.4142516144111613e+18
14343.0	1.4140296719761408e+18
14344.0	1.413807758062387e+18
14345.0	1.4135858827362301e+18
14346.0	1.4133636466999293e+18
14347.0	1.4131406842101757e+18
14348.0	1.4129204245299197e+18
14349.0	1.4126988998475773e+18
14350.0	1.4124742025936893e+18
14351.0	1.4122488476729341e+18
14352.0	1.4120284286091264e+18
14353.0	1.4118074240204797e+18
14354.0	1.411585988257382e+18
14355.0	1.4113642505043965e+18
14356.0	1.4111430026461181e+18
14357.0	1.4109222899810301e+18
14358.0	1.4107010253455357e+18
14359.0	1.4104796969566208e+18
14360.0	1.4102583819894781e+18
14361.0	1.4100373220360187e+18
14362.0	1.409816290603827e+18
14363.0	1.4095950981103613e+18
14364.0	1.4093682600837117e+18
14365.0	1.4091510203023357e+18
14366.0	1.408930965304115e+18
14367.0	1.4087114303995901e+18
14368.0	1.4084905583509501e+18
14369.0	1.408269833941811e+18
14370.0	1.4080490910777344e+18
14371.0	1.4078283985453053e+18
14372.0	1.4076077060128765e+18
14373.0	1.4073870579400701e+18
14374.0	1.4071664065118208e+18
14375.0	1.4069451116773373e+18
14376.0	1.4067255063085053e+18
14377.0	1.4065049580601341e+18
14378.0	1.4062825861283837e+18
14379.0	1.406059460060774e+18
14380.0	1.4058390602907648e+18
14381.0	1.4056184826822656e+18
14382.0	1.4053983286984701e+18
14383.0	1.4051781898141693e+18
14384.0	1.4049558539534333e+18
14385.0	1.4047381058224123e+18
14386.0	1.4045160518189053e+18
14387.0	1.4042979312336893e+18
14388.0	1.4040777797664765e+18
14389.0	1.4038579227394045e+18
14390.0	1.4036378065043453e+18
14391.0	1.403418269922099e+18
14392.0	1.4031983734685693e+18
14393.0	1.4029786909245437e+18
14394.0	1.4027535591407613e+18
14395.0	1.4025378460860413e+18
14396.0	1.4023195812167677e+18
14397.0	1.402099945648947e+18
14398.0	1.4018803201474557e+18
14399.0	1.4016607005179901e+18
14400.0	1.4014379955585021e+18
14401.0	1.4012202902093821e+18
14402.0	1.401000752788275e+18
14403.0	1.4007564496797693e+18
14404.0	1.4001117843161083e+18
14405.0	1.4000340051427318e+18
14406.0	1.4001204916912123e+18
14407.0	1.3998733020626944e+18
14408.0	1.3996850197561344e+18
14409.0	1.3994642752143357e+18
14410.0	1.3992473525223421e+18
14411.0	1.3990249596190717e+18
14412.0	1.3988056293965821e+18
14413.0	1.3985874039537661e+18
14414.0	1.3983682138210301e+18
14415.0	1.3981495219716093e+18
14416.0	1.3979308980699133e+18
14417.0	1.3977119805669373e+18
14418.0	1.3974928223109117e+18
14419.0	1.397274377086566e+18
14420.0	1.3970551399776253e+18
14421.0	1.3968372106526717e+18
14422.0	1.3966182973439995e+18
14423.0	1.3963967139414013e+18
14424.0	1.396060204931481e+18
14425.0	1.3959599233171453e+18
14426.0	1.3957446540197885e+18
14427.0	1.3955266903015421e+18
14428.0	1.3953050993491965e+18
14429.0	1.3950898057248765e+18
14430.0	1.3948716146753533e+18
14431.0	1.3946424882364413e+18
14432.0	1.3944349280698365e+18
14433.0	1.3941925098815483e+18
14434.0	1.3939967961071613e+18
14435.0	1.3937790144217085e+18
14436.0	1.3935635278594045e+18
14437.0	1.3933457252024317e+18
14438.0	1.3931263379374077e+18
14439.0	1.392909622444032e+18
14440.0	1.3926920873836544e+18
14441.0	1.392472222806835e+18
14442.0	1.3922528766459901e+18
14443.0	1.3920290501296125e+18
14444.0	1.391819794625331e+18
14445.0	1.391602209233305e+18
14446.0	1.3912348368568317e+18
14447.0	1.3911607327326208e+18
14448.0	1.3909459088703485e+18
14449.0	1.3907288754487293e+18
14450.0	1.3905115400372221e+18
14451.0	1.3902942012702717e+18
14452.0	1.3900768666976253e+18
14453.0	1.389859347575603e+18
14454.0	1.3896422847938557e+18
14455.0	1.3894242648719357e+18
14456.0	1.3892078933114877e+18
14457.0	1.3889907088949245e+18
14458.0	1.3887734833741821e+18
14459.0	1.3885561261522941e+18
14460.0	1.3883387563474941e+18
14461.0	1.3881186283683837e+18
14462.0	1.3879013600657408e+18
14463.0	1.387687083979571e+18
14464.0	1.3874713138823165e+18
14465.0	1.3872502564454397e+18
14466.0	1.387038330847232e+18
14467.0	1.3868202538827773e+18
14468.0	1.3866047580930045e+18
14469.0	1.3863844220764157e+18
14470.0	1.3861667184050173e+18
14471.0	1.3859533877149693e+18
14472.0	1.3857387895062528e+18
14473.0	1.3855223499980795e+18
14474.0	1.3853059490775037e+18
14475.0	1.3850894516879357e+18
14476.0	1.3848716968460285e+18
14477.0	1.384656762254131e+18
14478.0	1.384440575243059e+18
14479.0	1.3842242733080573e+18
14480.0	1.3840063473385472e+18
14481.0	1.3837918850252797e+18
14482.0	1.3835750160203773e+18
14483.0	1.3833581151387645e+18
14484.0	1.3831410724896765e+18
14485.0	1.3829207641554941e+18
14486.0	1.3826662353338365e+18
14487.0	1.3824947218546683e+18
14488.0	1.3822783100289021e+18
14489.0	1.3820580864196605e+18
14490.0	1.3818429068804093e+18
14491.0	1.3816272475127803e+18
14492.0	1.3814117450121213e+18
14493.0	1.3811959514267645e+18
14494.0	1.3809770423123965e+18
14495.0	1.3807635019071485e+18
14496.0	1.3805291879530493e+18
14497.0	1.3803327728910336e+18
14498.0	1.3801178181664765e+18
14499.0	1.3799023408316413e+18
14500.0	1.3796867368288253e+18
14501.0	1.3794696941797373e+18
14502.0	1.3792180778827773e+18
14503.0	1.379038395577139e+18
14504.0	1.378824188277555e+18
14505.0	1.3786092109037565e+18
14506.0	1.37839213805568e+18
14507.0	1.3781421566984187e+18
14508.0	1.377963634537267e+18
14509.0	1.377749167190835e+18
14510.0	1.3775341344522237e+18
14511.0	1.3773188576051197e+18
14512.0	1.377101858576793e+18
14513.0	1.3768883039109117e+18
14514.0	1.3766687841058813e+18
14515.0	1.3764543259869181e+18
14516.0	1.3757731466903555e+18
14517.0	1.3760165949997053e+18
14518.0	1.3758131779665917e+18
14519.0	1.3755995066990592e+18
14520.0	1.3753851156889597e+18
14521.0	1.3751705518735357e+18
14522.0	1.3749558932668413e+18
14523.0	1.3747396106256384e+18
14524.0	1.374525274141491e+18
14525.0	1.3743114082582525e+18
14526.0	1.374097636327424e+18
14527.0	1.3738780485746685e+18
14528.0	1.3736456564506621e+18
14529.0	1.3734525146234877e+18
14530.0	1.3732378434338813e+18
14531.0	1.373025508471603e+18
14532.0	1.3728097601847293e+18
14533.0	1.3725970997444605e+18
14534.0	1.3723830618947581e+18
14535.0	1.372168742187827e+18
14536.0	1.3719545424379901e+18
14537.0	1.3717388738428925e+18
14538.0	1.3715232832618493e+18
14539.0	1.371307563496243e+18
14540.0	1.3710934962864128e+18
14541.0	1.370878768054272e+18
14542.0	1.3706653467672573e+18
14543.0	1.3704488955150333e+18
14544.0	1.3702370647080957e+18
14545.0	1.3700219514388477e+18
14546.0	1.3695960282562555e+18
14547.0	1.3693779135430653e+18
14548.0	1.3693779798130685e+18
14549.0	1.3691501192151037e+18
14550.0	1.3689538366930941e+18
14551.0	1.368740955632435e+18
14552.0	1.3685271660855293e+18
14553.0	1.3683118003191808e+18
14554.0	1.3681002681466877e+18
14555.0	1.367886638822195e+18
14556.0	1.3676729038012413e+18
14557.0	1.3674588399468544e+18
14558.0	1.3672410096074747e+18
14559.0	1.3666858330750968e+18
14560.0	1.3668137501196285e+18
14561.0	1.3666040248532992e+18
14562.0	1.3663887454896123e+18
14563.0	1.366179217355571e+18
14564.0	1.3659641468682237e+18
14565.0	1.3657530886520832e+18
14566.0	1.3655399416725501e+18
14567.0	1.3653266982240256e+18
14568.0	1.3651133599842301e+18
14569.0	1.3648986569179136e+18
14570.0	1.3645929299050493e+18
14571.0	1.3644727530291197e+18
14572.0	1.3642553312149501e+18
14573.0	1.364042555011891e+18
14574.0	1.363834307818291e+18
14575.0	1.363622222836531e+18
14576.0	1.363409512903475e+18
14577.0	1.363196970742579e+18
14578.0	1.3629838254407675e+18
14579.0	1.3627714057535485e+18
14580.0	1.362558681559859e+18
14581.0	1.3623455270305787e+18
14582.0	1.3621331685801981e+18
14583.0	1.361920497234739e+18
14584.0	1.3617062580584445e+18
14585.0	1.361495169643315e+18
14586.0	1.3612822432841725e+18
14587.0	1.3610700198903805e+18
14588.0	1.3608576757006336e+18
14589.0	1.3606456393728e+18
14590.0	1.3604336609263613e+18
14591.0	1.3602215843332093e+18
14592.0	1.3600088978882557e+18
14593.0	1.3597801338372093e+18
14594.0	1.3595842883616765e+18
14595.0	1.3593683874021373e+18
14596.0	1.3591506719866877e+18
14597.0	1.3589374688034813e+18
14598.0	1.358732809417523e+18
14599.0	1.3585222142525437e+18
14600.0	1.3583105134690301e+18
14601.0	1.3580988252684283e+18
14602.0	1.3578869961392123e+18
14603.0	1.3576753465262077e+18
14604.0	1.357457350931251e+18
14605.0	1.3572494166327293e+18
14606.0	1.3570252470222845e+18
14607.0	1.3568283412267005e+18
14608.0	1.3566158292647936e+18
14609.0	1.3564039481262075e+18
14610.0	1.3561916601401341e+18
14611.0	1.3559798201057275e+18
14612.0	1.3557720619679744e+18
14613.0	1.355560879600435e+18
14614.0	1.355347502773043e+18
14615.0	1.3551371852709885e+18
14616.0	1.3549269810151421e+18
14617.0	1.3547124314603517e+18
14618.0	1.3545027565256701e+18
14619.0	1.3542863186952192e+18
14620.0	1.3540667628191741e+18
14621.0	1.3538704819748864e+18
14622.0	1.3536595672039421e+18
14623.0	1.3534482657181693e+18
14624.0	1.3532289489174523e+18
14625.0	1.3530258531680253e+18
14626.0	1.3528138210344957e+18
14627.0	1.3526025061269501e+18
14628.0	1.3523930895613947e+18
14629.0	1.3521820833546237e+18
14630.0	1.3519698205343741e+18
14631.0	1.3517588076167165e+18
14632.0	1.3515378978193408e+18
14633.0	1.3513362356830208e+18
14634.0	1.3511269667569661e+18
14635.0	1.3509145084821501e+18
14636.0	1.3506990168866813e+18
14637.0	1.350494596576051e+18
14638.0	1.3502833311612925e+18
14639.0	1.3500709701943293e+18
14640.0	1.3498606929575933e+18
14641.0	1.3496114682527744e+18
14642.0	1.3494389565292544e+18
14643.0	1.349229539963699e+18
14644.0	1.3490188256804861e+18
14645.0	1.348803683889971e+18
14646.0	1.3485951103795197e+18
