# Flux units: erg / (cm m2 s)
# Wavelength units: Angstrom
wave	flux
14000.0	1.5426219474419712e+18
14001.0	1.5423410716803067e+18
14002.0	1.5421323262033912e+18
14003.0	1.5418867513819128e+18
14004.0	1.5416410742194176e+18
14005.0	1.5413954171895805e+18
14006.0	1.5411484028829693e+18
14007.0	1.540903527671398e+18
14008.0	1.5406437660360701e+18
14009.0	1.5404129350320128e+18
14010.0	1.5401677225983997e+18
14011.0	1.5398067624738813e+18
14012.0	1.5396769470873597e+18
14013.0	1.5394321607950333e+18
14014.0	1.5391870322475005e+18
14015.0	1.5389415949991933e+18
14016.0	1.538696911047884e+18
14017.0	1.5384519267844088e+18
14018.0	1.5382069894971392e+18
14019.0	1.5379621042192381e+18
14020.0	1.5377171602210813e+18
14021.0	1.5374722699100157e+18
14022.0	1.5372275540819968e+18
14023.0	1.5369828365762552e+18
14024.0	1.5367370235183101e+18
14025.0	1.5364938444832765e+18
14026.0	1.5362490732904448e+18
14027.0	1.536004904399667e+18
14028.0	1.5357604939169787e+18
14029.0	1.5355160465244157e+18
14030.0	1.5352209352949757e+18
14031.0	1.5350263145562107e+18
14032.0	1.5347833435586557e+18
14033.0	1.5345331382255616e+18
14034.0	1.534295116506726e+18
14035.0	1.5340511959187456e+18
14036.0	1.533807231710003e+18
14037.0	1.533563314477465e+18
14038.0	1.5333194609983485e+18
14039.0	1.5330756427513853e+18
14040.0	1.5328318815469563e+18
14041.0	1.5325881639632893e+18
14042.0	1.5323428206673915e+18
14043.0	1.5320938803363837e+18
14044.0	1.5318549090271232e+18
14045.0	1.531613894252953e+18
14046.0	1.5313704434270205e+18
14047.0	1.5311268785160187e+18
14048.0	1.5308836743151613e+18
14049.0	1.5306404449484795e+18
14050.0	1.5303971803496448e+18
14051.0	1.5301526977249277e+18
14052.0	1.5299109028102144e+18
14053.0	1.5296678730924032e+18
14054.0	1.5294248567963648e+18
14055.0	1.5291819008983037e+18
14056.0	1.528938998687334e+18
14057.0	1.5286961400971256e+18
14058.0	1.5284533351940093e+18
14059.0	1.5282105906888704e+18
14060.0	1.527967893159936e+18
14061.0	1.5277239776051195e+18
14062.0	1.527482640708403e+18
14063.0	1.5272377218760696e+18
14064.0	1.5269858035892227e+18
14065.0	1.5267536471851005e+18
14066.0	1.526512821993472e+18
14067.0	1.5262705103405056e+18
14068.0	1.5260282372751357e+18
14069.0	1.5257858316697597e+18
14070.0	1.5255438186512381e+18
14071.0	1.5253011949420541e+18
14072.0	1.525059666785075e+18
14073.0	1.524817653766553e+18
14074.0	1.5245757128900603e+18
14075.0	1.5243312554311677e+18
14076.0	1.5240919200563195e+18
14077.0	1.5238390840557568e+18
14078.0	1.5236075853185021e+18
14079.0	1.5233657467830267e+18
14080.0	1.5231250574868477e+18
14081.0	1.5228834789982203e+18
14082.0	1.522641816623513e+18
14083.0	1.5224001995472893e+18
14084.0	1.5221588475510781e+18
14085.0	1.5218774198190077e+18
14086.0	1.5216751201484797e+18
14087.0	1.5214350079885307e+18
14088.0	1.5211936895467515e+18
14089.0	1.520952657995366e+18
14090.0	1.5207113982738432e+18
14091.0	1.5204704875184123e+18
14092.0	1.5202294811328507e+18
14093.0	1.5199885200457725e+18
14094.0	1.5197476059348984e+18
14095.0	1.5195067253784576e+18
14096.0	1.5192640177831936e+18
14097.0	1.5190249642655744e+18
14098.0	1.5187835837480957e+18
14099.0	1.5185438138433536e+18
14100.0	1.518301015651123e+18
14101.0	1.5180627103973373e+18
14102.0	1.5178221720961016e+18
14103.0	1.5175787648909307e+18
14104.0	1.5173413857394685e+18
14105.0	1.5171010437316605e+18
14106.0	1.5168607503777792e+18
14107.0	1.5166204939337723e+18
14108.0	1.5163803532525565e+18
14109.0	1.5161394525634557e+18
14110.0	1.5158999192174587e+18
14111.0	1.5156593574281213e+18
14112.0	1.5154197922054141e+18
14113.0	1.5151801766510592e+18
14114.0	1.514940312793907e+18
14115.0	1.5147001536577536e+18
14116.0	1.514459455972966e+18
14117.0	1.5141300923793403e+18
14118.0	1.5139809781612541e+18
14119.0	1.5137404818030587e+18
14120.0	1.5135011044851707e+18
14121.0	1.513262339535667e+18
14122.0	1.5130213079842816e+18
14123.0	1.512783014474547e+18
14124.0	1.5125431774609405e+18
14125.0	1.512229659947827e+18
14126.0	1.512065525088256e+18
14127.0	1.5118266007551997e+18
14128.0	1.5115872939016192e+18
14129.0	1.5113466683588603e+18
14130.0	1.51110710984704e+18
14131.0	1.5108702994431997e+18
14132.0	1.510630967423795e+18
14133.0	1.510304133834342e+18
14134.0	1.5101532043214848e+18
14135.0	1.5099128740577277e+18
14136.0	1.509675538527027e+18
14137.0	1.5094372953489403e+18
14138.0	1.509198000239411e+18
14139.0	1.5089601815248893e+18
14140.0	1.5087214685847547e+18
14141.0	1.5084825543180285e+18
14142.0	1.5082390615490552e+18
14143.0	1.508006205535027e+18
14144.0	1.5077681234182141e+18
14145.0	1.5075298450079741e+18
14146.0	1.5072913333944315e+18
14147.0	1.5070532915429373e+18
14148.0	1.5068152127815677e+18
14149.0	1.5065772548161539e+18
14150.0	1.5063392230309888e+18
14151.0	1.506100833891123e+18
14152.0	1.5058633289105403e+18
14153.0	1.5056254263099387e+18
14154.0	1.5053838897643512e+18
14155.0	1.5051460190404603e+18
14156.0	1.5049117117972477e+18
14157.0	1.5046744534417403e+18
14158.0	1.5044361884532736e+18
14159.0	1.5041992371208192e+18
14160.0	1.503960655042969e+18
14161.0	1.5037145450283003e+18
14162.0	1.5034698325557243e+18
14163.0	1.5032489839951872e+18
14164.0	1.5030097140514813e+18
14165.0	1.5027710229217277e+18
14166.0	1.5025375327289341e+18
14167.0	1.5023004874440701e+18
14168.0	1.5020631770791936e+18
14169.0	1.5018263196991485e+18
14170.0	1.5015887778086907e+18
14171.0	1.501351771111424e+18
14172.0	1.5011153935597565e+18
14173.0	1.5008746740645885e+18
14174.0	1.500640982545203e+18
14175.0	1.5004049606705144e+18
14176.0	1.5001682576408573e+18
14177.0	1.4999315965542397e+18
14178.0	1.4996949371453437e+18
14179.0	1.499457633491353e+18
14180.0	1.4992218968293373e+18
14181.0	1.4989854337138688e+18
14182.0	1.4987488783237115e+18
14183.0	1.4985126417006587e+18
14184.0	1.4982754957524987e+18
14185.0	1.4980399604170747e+18
14186.0	1.497785861092147e+18
14187.0	1.4975635059376125e+18
14188.0	1.49733133778944e+18
14189.0	1.4970953293365248e+18
14190.0	1.4968593108172797e+18
14191.0	1.496623300686643e+18
14192.0	1.4963862235250683e+18
14193.0	1.496149225216409e+18
14194.0	1.4959156293271547e+18
14195.0	1.4956801359347712e+18
14196.0	1.4954443623628797e+18
14197.0	1.4952086944874493e+18
14198.0	1.4949721491636221e+18
14199.0	1.494737231229747e+18
14200.0	1.494491817469542e+18
14201.0	1.494266017952563e+18
14202.0	1.4940311151181821e+18
14203.0	1.493794922115891e+18
14204.0	1.4935599270068221e+18
14205.0	1.4933245997088763e+18
14206.0	1.493070300735078e+18
14207.0	1.4928545205714941e+18
14208.0	1.4926195237847037e+18
14209.0	1.492363095782195e+18
14210.0	1.4921343216648187e+18
14211.0	1.4919143119650813e+18
14212.0	1.4916794108084221e+18
14213.0	1.4914446824570877e+18
14214.0	1.4912097427128312e+18
14215.0	1.4909728131907581e+18
14216.0	1.4907404319719421e+18
14217.0	1.4905057489190907e+18
14218.0	1.4902711010983936e+18
14219.0	1.4900365086425083e+18
14220.0	1.489802000072704e+18
14221.0	1.4895674243940347e+18
14222.0	1.489333013132083e+18
14223.0	1.4890986320691195e+18
14224.0	1.4888642627502077e+18
14225.0	1.4885963960418301e+18
14226.0	1.4883954117050365e+18
14227.0	1.4881614819491835e+18
14228.0	1.487824259907584e+18
14229.0	1.487676580141465e+18
14230.0	1.487459253118566e+18
14231.0	1.4872253132963837e+18
14232.0	1.4869913768296445e+18
14233.0	1.4867574789505021e+18
14234.0	1.486523617981235e+18
14235.0	1.486289366102835e+18
14236.0	1.4860560420044797e+18
14237.0	1.4858220753387515e+18
14238.0	1.4855884878381056e+18
14239.0	1.4853535782928381e+18
14240.0	1.4848090016055293e+18
14241.0	1.4848866683715581e+18
14242.0	1.484654047238553e+18
14243.0	1.484395738510131e+18
14244.0	1.4841876439891965e+18
14245.0	1.4839535816933373e+18
14246.0	1.4837196318048253e+18
14247.0	1.4834879418073085e+18
14248.0	1.4832433081876477e+18
14249.0	1.4830076067577856e+18
14250.0	1.4827744386875387e+18
14251.0	1.4825417454125053e+18
14252.0	1.4823086830387197e+18
14253.0	1.4820755535560704e+18
14254.0	1.4818422898556925e+18
14255.0	1.4816034376646653e+18
14256.0	1.4813439075549181e+18
14257.0	1.481142065902387e+18
14258.0	1.4809113523388413e+18
14259.0	1.4806787026845693e+18
14260.0	1.4804437545517056e+18
14261.0	1.4802141617061885e+18
14262.0	1.4800049464672253e+18
14263.0	1.4797236093321216e+18
14264.0	1.4795288627642365e+18
14265.0	1.4793075964510205e+18
14266.0	1.4790684322037757e+18
14267.0	1.4788295078707195e+18
14268.0	1.4785971753058301e+18
14269.0	1.4783644165996544e+18
14270.0	1.47813262426112e+18
14271.0	1.4779003571273725e+18
14272.0	1.477668175557427e+18
14273.0	1.4774355259031547e+18
14274.0	1.4771297628192763e+18
14275.0	1.476964366313062e+18
14276.0	1.4767396975804413e+18
14277.0	1.476507532787712e+18
14278.0	1.4762762555097083e+18
14279.0	1.4760442953990141e+18
14280.0	1.475811488038912e+18
14281.0	1.4755809573470205e+18
14282.0	1.4753493361360893e+18
14283.0	1.4751176897593344e+18
14284.0	1.474886088681062e+18
14285.0	1.474654507735449e+18
14286.0	1.4744150196879357e+18
14287.0	1.4741780868104192e+18
14288.0	1.473946103211622e+18
14289.0	1.4735150462009334e+18
14290.0	1.4734832919642107e+18
14291.0	1.473252323386982e+18
14292.0	1.473021234013798e+18
14293.0	1.472789545694003e+18
14294.0	1.472536021827584e+18
14295.0	1.472327143810662e+18
14296.0	1.4719358135697405e+18
14297.0	1.4718641530470397e+18
14298.0	1.4716038444744701e+18
14299.0	1.4714029188579325e+18
14300.0	1.4711726851227645e+18
14301.0	1.4709418222419965e+18
14302.0	1.4707104241680381e+18
14303.0	1.4704746975723515e+18
14304.0	1.470246908277555e+18
14305.0	1.470018419372851e+18
14306.0	1.469787011232563e+18
14307.0	1.4695566197915645e+18
14308.0	1.4693267148898296e+18
14309.0	1.469086929885593e+18
14310.0	1.468847560956313e+18
14311.0	1.4686123913641981e+18
14312.0	1.4683865801031675e+18
14313.0	1.4681255987642363e+18
14314.0	1.467930489808486e+18
14315.0	1.4677004573999101e+18
14316.0	1.4674617931137021e+18
14317.0	1.4672391863009277e+18
14318.0	1.4670100565065725e+18
14319.0	1.4667800408752125e+18
14320.0	1.4665499027701757e+18
14321.0	1.4663199425036285e+18
14322.0	1.4660834357673981e+18
14323.0	1.4658569953607677e+18
14324.0	1.4656301422346237e+18
14325.0	1.4654003195412475e+18
14326.0	1.4651705203359741e+18
14327.0	1.4649407462965245e+18
14328.0	1.4647098616053757e+18
14329.0	1.4644813710229501e+18
14330.0	1.464251741267558e+18
14331.0	1.4640221031235581e+18
14332.0	1.4637926075858941e+18
14333.0	1.4635631120482301e+18
14334.0	1.4633285397250045e+18
14335.0	1.463088732910387e+18
14336.0	1.4628583666352125e+18
14337.0	1.462632166142771e+18
14338.0	1.4624025900744701e+18
14339.0	1.4621732740530173e+18
14340.0	1.4619443623624701e+18
14341.0	1.4617149859430397e+18
14342.0	1.4614859970772987e+18
14343.0	1.4612567833968637e+18
14344.0	1.4610277324554237e+18
14345.0	1.4607987603668987e+18
14346.0	1.4605692497297405e+18
14347.0	1.4603383113515003e+18
14348.0	1.4601117753147387e+18
14349.0	1.4598830196523003e+18
14350.0	1.4596516199006203e+18
14351.0	1.4594227199541245e+18
14352.0	1.4591957846196221e+18
14353.0	1.4589675205296125e+18
14354.0	1.458738820231987e+18
14355.0	1.4585097843900413e+18
14356.0	1.458281456546611e+18
14357.0	1.4580502933536765e+18
14358.0	1.4578117045649408e+18
14359.0	1.4575831619731453e+18
14360.0	1.4573545522724864e+18
14361.0	1.4571263955566587e+18
14362.0	1.4568910313488381e+18
14363.0	1.4566568029585408e+18
14364.0	1.4564205126483965e+18
14365.0	1.4561986943647741e+18
14366.0	1.4559704806064128e+18
14367.0	1.4557439596691453e+18
14368.0	1.4555157509439483e+18
14369.0	1.4552877603225597e+18
14370.0	1.455059719369523e+18
14371.0	1.454831730425856e+18
14372.0	1.4546037448376315e+18
14373.0	1.4543758011924475e+18
14374.0	1.454147800504729e+18
14375.0	1.4539192981782525e+18
14376.0	1.453692325933875e+18
14377.0	1.4534644477198336e+18
14378.0	1.4532363665014781e+18
14379.0	1.4530091644092413e+18
14380.0	1.4527814925549563e+18
14381.0	1.4525534583128064e+18
14382.0	1.4523261169696765e+18
14383.0	1.4520985139019776e+18
14384.0	1.4518686677204987e+18
14385.0	1.4516439754997757e+18
14386.0	1.4514165787918336e+18
14387.0	1.4511891485294592e+18
14388.0	1.4509615689498621e+18
14389.0	1.4507345312743421e+18
14390.0	1.4505069365952507e+18
14391.0	1.4502801438670845e+18
14392.0	1.450052836078387e+18
14393.0	1.4498258722226176e+18
14394.0	1.4495871727042557e+18
14395.0	1.4493571671392253e+18
14396.0	1.4491317618868221e+18
14397.0	1.4489047393107965e+18
14398.0	1.4486777100238848e+18
14399.0	1.4484507612676093e+18
14400.0	1.4482201483673597e+18
14401.0	1.4479957866577915e+18
14402.0	1.4477695677104125e+18
14403.0	1.4474813938597883e+18
14404.0	1.4467183073558523e+18
14405.0	1.4467592857059315e+18
14406.0	1.4468619907891197e+18
14407.0	1.4465462167404541e+18
14408.0	1.4464087878533115e+18
14409.0	1.446179480220467e+18
14410.0	1.4459562325180413e+18
14411.0	1.4457302736175101e+18
14412.0	1.4455033517047808e+18
14413.0	1.4452777065381888e+18
14414.0	1.4450509406535677e+18
14415.0	1.4448247938482173e+18
14416.0	1.4445987393175547e+18
14417.0	1.4443722938777597e+18
14418.0	1.4441450582310907e+18
14419.0	1.4439197116989437e+18
14420.0	1.4436928787054587e+18
14421.0	1.4434676026376187e+18
14422.0	1.4432414138892285e+18
14423.0	1.4430131095339008e+18
14424.0	1.442425744234905e+18
14425.0	1.4425614584905725e+18
14426.0	1.442337601775206e+18
14427.0	1.442111934798233e+18
14428.0	1.4418824593932285e+18
14429.0	1.4416596948746237e+18
14430.0	1.4414344976596987e+18
14431.0	1.4411862988816381e+18
14432.0	1.4409697838759936e+18
14433.0	1.4406752413941757e+18
14434.0	1.4405163158601725e+18
14435.0	1.4402899022970877e+18
14436.0	1.4400676578721787e+18
14437.0	1.4398421167243264e+18
14438.0	1.4396137351938045e+18
14439.0	1.4393904874913787e+18
14440.0	1.439165449660006e+18
14441.0	1.4389378449145853e+18
14442.0	1.4387107535519744e+18
14443.0	1.4384779948457981e+18
14444.0	1.4382629277138941e+18
14445.0	1.4380383210569725e+18
14446.0	1.4376003803545597e+18
14447.0	1.437585559361945e+18
14448.0	1.437362981070438e+18
14449.0	1.4371379583385597e+18
14450.0	1.4369128080998397e+18
14451.0	1.4366877333585915e+18
14452.0	1.436462645195571e+18
14453.0	1.4362367181717504e+18
14454.0	1.436012663485235e+18
14455.0	1.4357867129733115e+18
14456.0	1.435562668353126e+18
14457.0	1.4353376774979581e+18
14458.0	1.4351129534005245e+18
14459.0	1.4348878249721853e+18
14460.0	1.4346629146476541e+18
14461.0	1.434434279781171e+18
14462.0	1.434204950337945e+18
14463.0	1.4339879169163264e+18
14464.0	1.4337644964085757e+18
14465.0	1.4335347542458365e+18
14466.0	1.433315650515763e+18
14467.0	1.4330888795979773e+18
14468.0	1.4328664774672381e+18
14469.0	1.4326376379187197e+18
14470.0	1.4324118249799677e+18
14471.0	1.4321912113004541e+18
14472.0	1.431961594966835e+18
14473.0	1.4317320776187901e+18
14474.0	1.431507769596313e+18
14475.0	1.4312833374224381e+18
14476.0	1.431054778053427e+18
14477.0	1.430834823718502e+18
14478.0	1.4306106985676797e+18
14479.0	1.4303864291327997e+18
14480.0	1.430160342725427e+18
14481.0	1.4299381503098877e+18
14482.0	1.4297133289046013e+18
14483.0	1.4294879840501757e+18
14484.0	1.429263905875558e+18
14485.0	1.429034717360947e+18
14486.0	1.4287628408979456e+18
14487.0	1.4285934648360957e+18
14488.0	1.4283696651632635e+18
14489.0	1.428144392450867e+18
14490.0	1.4279212957433853e+18
14491.0	1.427697640354611e+18
14492.0	1.4274740805959677e+18
14493.0	1.427250173548953e+18
14494.0	1.4270228154286077e+18
14495.0	1.4268023779098621e+18
14496.0	1.4265544710553597e+18
14497.0	1.4263548557393915e+18
14498.0	1.426131462075187e+18
14499.0	1.4259078352076797e+18
14500.0	1.4256841361981437e+18
14501.0	1.425458695713587e+18
14502.0	1.4251925117599744e+18
14503.0	1.4250109017522173e+18
14504.0	1.4247888183885821e+18
14505.0	1.4245646781382653e+18
14506.0	1.4243391168577536e+18
14507.0	1.4240742616596477e+18
14508.0	1.4238959634743293e+18
14509.0	1.423672739260006e+18
14510.0	1.4234494043160573e+18
14511.0	1.4232260223959035e+18
14512.0	1.4230000500735997e+18
14513.0	1.422779327342182e+18
14514.0	1.4225504257179648e+18
14515.0	1.4223318924132347e+18
14516.0	1.4215780199563267e+18
14517.0	1.421883781362483e+18
14518.0	1.4216631978819581e+18
14519.0	1.4214403327000576e+18
14520.0	1.4212173165232125e+18
14521.0	1.420993901048627e+18
14522.0	1.4207585452294141e+18
14523.0	1.4205307592900603e+18
14524.0	1.4203081424109565e+18
14525.0	1.4200882769952765e+18
14526.0	1.4198662355746813e+18
14527.0	1.419639224742707e+18
14528.0	1.4193921835925501e+18
14529.0	1.4191951536455677e+18
14530.0	1.4189713975934976e+18
14531.0	1.418750955041587e+18
14532.0	1.4185226154541053e+18
14533.0	1.418305273331712e+18
14534.0	1.4180825792774144e+18
14535.0	1.4178595782000637e+18
14536.0	1.4176367432171517e+18
14537.0	1.4174118328926208e+18
14538.0	1.4171911504265213e+18
14539.0	1.4169683456425981e+18
14540.0	1.4167455358255101e+18
14541.0	1.4165218653372413e+18
14542.0	1.4162999229022208e+18
14543.0	1.416074787762995e+18
14544.0	1.4158542294482941e+18
14545.0	1.415630904570675e+18
14546.0	1.4148329315237883e+18
14547.0	1.4146437096931323e+18
14548.0	1.414960986980352e+18
14549.0	1.4147195057995776e+18
14550.0	1.414518231216947e+18
14551.0	1.4142959381381117e+18
14552.0	1.4140731501314045e+18
14553.0	1.413848615616512e+18
14554.0	1.4136283240595453e+18
14555.0	1.4134057742893053e+18
14556.0	1.4131831322443776e+18
14557.0	1.412960609317683e+18
14558.0	1.4127371351228413e+18
14559.0	1.4121243389198326e+18
14560.0	1.4122919550517245e+18
14561.0	1.4120693096513536e+18
14562.0	1.411844194644787e+18
14563.0	1.4116259633299453e+18
14564.0	1.4114026367746045e+18
14565.0	1.4111813603950592e+18
14566.0	1.4109590069182464e+18
14567.0	1.4107365343231997e+18
14568.0	1.4105138738233341e+18
14569.0	1.4102913676738557e+18
14570.0	1.4099621030658048e+18
14571.0	1.4098461456596987e+18
14572.0	1.409617539314483e+18
14573.0	1.4093954995716093e+18
14574.0	1.4091775551471613e+18
14575.0	1.4089571696377853e+18
14576.0	1.4087348161609725e+18
14577.0	1.408512804939366e+18
14578.0	1.408281661879091e+18
14579.0	1.4080556258033664e+18
14580.0	1.407833270648832e+18
14581.0	1.4076103417135104e+18
14582.0	1.4073884689039357e+18
14583.0	1.4071661590478845e+18
14584.0	1.4069417042247677e+18
14585.0	1.4067214286061565e+18
14586.0	1.4064984971542525e+18
14587.0	1.4062765941456893e+18
14588.0	1.4060545938292733e+18
14589.0	1.405833962533683e+18
14590.0	1.4056135459864573e+18
14591.0	1.4053929742499837e+18
14592.0	1.4051722582294525e+18
14593.0	1.404930593338163e+18
14594.0	1.404731640722227e+18
14595.0	1.4045102720679933e+18
14596.0	1.4042824089534461e+18
14597.0	1.4040603155234813e+18
14598.0	1.4038489083412477e+18
14599.0	1.4036296519385085e+18
14600.0	1.4034091154341885e+18
14601.0	1.4031887559294973e+18
14602.0	1.4029678645870587e+18
14603.0	1.4027478506930173e+18
14604.0	1.402519568986931e+18
14605.0	1.402305336521523e+18
14606.0	1.4020704705970173e+18
14607.0	1.401864538659225e+18
14608.0	1.401644876247859e+18
14609.0	1.4014248539652093e+18
14610.0	1.4012023067115517e+18
14611.0	1.400983379981107e+18
14612.0	1.4007638861807613e+18
14613.0	1.4005434989936637e+18
14614.0	1.4003221764767744e+18
14615.0	1.4001023068667901e+18
14616.0	1.3998817804287997e+18
14617.0	1.3996610929295357e+18
14618.0	1.3994404515676157e+18
14619.0	1.3992141537673213e+18
14620.0	1.398978847440896e+18
14621.0	1.3987783429324795e+18
14622.0	1.398557667177267e+18
14623.0	1.3983368714649597e+18
14624.0	1.3981056000589821e+18
14625.0	1.3978952339030013e+18
14626.0	1.3976744079917053e+18
14627.0	1.397453118190387e+18
14628.0	1.3972328912257021e+18
14629.0	1.3970120384708605e+18
14630.0	1.3967909743230973e+18
14631.0	1.3965701995823101e+18
14632.0	1.3963175036715005e+18
14633.0	1.3961246286020605e+18
14634.0	1.3959070373380093e+18
14635.0	1.3956816044032e+18
14636.0	1.3954512951705595e+18
14637.0	1.3952443574386685e+18
14638.0	1.3950227992018944e+18
14639.0	1.3947998534893565e+18
14640.0	1.3945799662632957e+18
14641.0	1.394241442309734e+18
14642.0	1.394137310324326e+18
14643.0	1.3939097139675133e+18
14644.0	1.3936835705176061e+18
14645.0	1.3934507983896573e+18
14646.0	1.393217160557363e+18
