# Flux units: erg / (cm m2 s)
# Wavelength units: Angstrom
wave	flux
14000.0	1.7998379019665403e+18
14001.0	1.7993738911481856e+18
14002.0	1.799223649501184e+18
14003.0	1.7989036912148477e+18
14004.0	1.798583105460633e+18
14005.0	1.798262325090713e+18
14006.0	1.7979319934517248e+18
14007.0	1.7976098709045248e+18
14008.0	1.797186677374976e+18
14009.0	1.7969730413395965e+18
14010.0	1.7966399934693376e+18
14011.0	1.7955435738824707e+18
14012.0	1.796012104482816e+18
14013.0	1.7956988486942717e+18
14014.0	1.7953726559944704e+18
14015.0	1.7950571369594877e+18
14016.0	1.7947399519469563e+18
14017.0	1.7944204315459581e+18
14018.0	1.7941006997520384e+18
14019.0	1.7937811004981243e+18
14020.0	1.7934606355398653e+18
14021.0	1.7931403282874365e+18
14022.0	1.7928216501026816e+18
14023.0	1.7924907446829056e+18
14024.0	1.7921686422683648e+18
14025.0	1.7918643522240507e+18
14026.0	1.7915432748974077e+18
14027.0	1.7912262090031094e+18
14028.0	1.7908997512232955e+18
14029.0	1.7905834671472637e+18
14030.0	1.7900292167172096e+18
14031.0	1.789918547489587e+18
14032.0	1.789630046483251e+18
14033.0	1.789264915542835e+18
14034.0	1.7889942319398907e+18
14035.0	1.7886763775164416e+18
14036.0	1.788358086885376e+18
14037.0	1.788039782832537e+18
14038.0	1.7877215190450168e+18
14039.0	1.7873983311446013e+18
14040.0	1.7870806142943227e+18
14041.0	1.7867652227661821e+18
14042.0	1.7864363373232125e+18
14043.0	1.786081846493184e+18
14044.0	1.7857974223503355e+18
14045.0	1.7854905284820987e+18
14046.0	1.78517252809687e+18
14047.0	1.7848520463613947e+18
14048.0	1.78454166283223e+18
14049.0	1.7842251455528952e+18
14050.0	1.7839076954603517e+18
14051.0	1.7835801270288381e+18
14052.0	1.7832680590671872e+18
14053.0	1.7829557394472955e+18
14054.0	1.7826387926712317e+18
14055.0	1.7823217200660475e+18
14056.0	1.7820046793375736e+18
14057.0	1.7816877979926525e+18
14058.0	1.7813709351026688e+18
14059.0	1.781054137643827e+18
14060.0	1.7807373687062525e+18
14061.0	1.7804121239191547e+18
14062.0	1.7801038039875581e+18
14063.0	1.7797691404713981e+18
14064.0	1.7794224258809853e+18
14065.0	1.7791439727493117e+18
14066.0	1.778838516688486e+18
14067.0	1.7785223768965115e+18
14068.0	1.7782061884506107e+18
14069.0	1.7778890218930176e+18
14070.0	1.7775739558428672e+18
14071.0	1.7772544773849085e+18
14072.0	1.7769422399733755e+18
14073.0	1.7766264608915453e+18
14074.0	1.7763107958947837e+18
14075.0	1.7759743791595512e+18
14076.0	1.775679179010867e+18
14077.0	1.7753100399935485e+18
14078.0	1.775043851006771e+18
14079.0	1.7747211714559997e+18
14080.0	1.774417696784384e+18
14081.0	1.774102518326886e+18
14082.0	1.773786058090086e+18
14083.0	1.7734700156059643e+18
14084.0	1.7731543740973056e+18
14085.0	1.7725462553821181e+18
14086.0	1.7725170865143803e+18
14087.0	1.7722117680267261e+18
14088.0	1.7718843019362304e+18
14089.0	1.7715831559421947e+18
14090.0	1.7712680227831803e+18
14091.0	1.7709541814697984e+18
14092.0	1.770639794896896e+18
14093.0	1.7703254100017147e+18
14094.0	1.7700110318174203e+18
14095.0	1.7696964841832443e+18
14096.0	1.7693715833290747e+18
14097.0	1.769049693985177e+18
14098.0	1.7687500461965307e+18
14099.0	1.7684400837754875e+18
14100.0	1.7681110775365632e+18
14101.0	1.7678127568257021e+18
14102.0	1.7674987192188928e+18
14103.0	1.7671656042397693e+18
14104.0	1.766868182787686e+18
14105.0	1.7665580861489147e+18
14106.0	1.7662445887684603e+18
14107.0	1.7659308699287547e+18
14108.0	1.765604036339302e+18
14109.0	1.7652988587802621e+18
14110.0	1.7649892973346813e+18
14111.0	1.764668166320947e+18
14112.0	1.764355031328358e+18
14113.0	1.7640517126848507e+18
14114.0	1.7637228893175805e+18
14115.0	1.7634232784388093e+18
14116.0	1.763096320697958e+18
14117.0	1.7623712362659837e+18
14118.0	1.7624838315180032e+18
14119.0	1.7621622005432317e+18
14120.0	1.7618570934484987e+18
14121.0	1.7615368046510077e+18
14122.0	1.7612304107438077e+18
14123.0	1.7609198091108352e+18
14124.0	1.7606005470789627e+18
14125.0	1.7597372854960125e+18
14126.0	1.7599827143557112e+18
14127.0	1.759675837264691e+18
14128.0	1.759363042849587e+18
14129.0	1.7590387090653181e+18
14130.0	1.758715323193753e+18
14131.0	1.7584283388477437e+18
14132.0	1.7581028642127864e+18
14133.0	1.757146150181272e+18
14134.0	1.7574858133078013e+18
14135.0	1.7571669690286075e+18
14136.0	1.7568683748491261e+18
14137.0	1.7565590935830525e+18
14138.0	1.756245550904115e+18
14139.0	1.7559374037778435e+18
14140.0	1.7556243409272835e+18
14141.0	1.7553098117480443e+18
14142.0	1.754978661380915e+18
14143.0	1.7546916569022467e+18
14144.0	1.754383283283558e+18
14145.0	1.7540704620249085e+18
14146.0	1.7537601221165053e+18
14147.0	1.75345054557143e+18
14148.0	1.75314054456279e+18
14149.0	1.7528305703976957e+18
14150.0	1.7525200392290304e+18
14151.0	1.7522067146539005e+18
14152.0	1.7518995053740032e+18
14153.0	1.7515890413142013e+18
14154.0	1.7512483497443325e+18
14155.0	1.7509588538490875e+18
14156.0	1.7506574629076987e+18
14157.0	1.7503486446927872e+18
14158.0	1.7500339997507581e+18
14159.0	1.749728682940825e+18
14160.0	1.749407424420249e+18
14161.0	1.749038032066969e+18
14162.0	1.748671194883686e+18
14163.0	1.7484853402402813e+18
14164.0	1.7481561360302077e+18
14165.0	1.747838348715622e+18
14166.0	1.7475597865320443e+18
14167.0	1.7472352950419456e+18
14168.0	1.7469397962588157e+18
14169.0	1.7466344928706557e+18
14170.0	1.7463219450806272e+18
14171.0	1.7460125631512576e+18
14172.0	1.7457071809101824e+18
14173.0	1.7453683180568568e+18
14174.0	1.7450826272342013e+18
14175.0	1.7447809292697595e+18
14176.0	1.7444724214333435e+18
14177.0	1.744163869976166e+18
14178.0	1.743854761515417e+18
14179.0	1.7435408061169661e+18
14180.0	1.743238448807936e+18
14181.0	1.7429301104214013e+18
14182.0	1.7426208375439357e+18
14183.0	1.74231350411264e+18
14184.0	1.741999119217459e+18
14185.0	1.7416961092747261e+18
14186.0	1.7412905855090688e+18
14187.0	1.7410481044062205e+18
14188.0	1.7407682436661248e+18
14189.0	1.7404647840940027e+18
14190.0	1.7401569624457216e+18
14191.0	1.7398491089207293e+18
14192.0	1.7395322527416315e+18
14193.0	1.739222867456819e+18
14194.0	1.7389259459657723e+18
14195.0	1.7386202634125312e+18
14196.0	1.7383126380576765e+18
14197.0	1.7380053432139776e+18
14198.0	1.7376917401370621e+18
14199.0	1.7373856498974717e+18
14200.0	1.7370368213778424e+18
14201.0	1.7367731724615675e+18
14202.0	1.7364677398888448e+18
14203.0	1.736155995727462e+18
14204.0	1.735852509311795e+18
14205.0	1.7355447631609853e+18
14206.0	1.7350894546845693e+18
14207.0	1.7349327538094075e+18
14208.0	1.7346281953296381e+18
14209.0	1.734158738626969e+18
14210.0	1.7338985877602296e+18
14211.0	1.733700579701555e+18
14212.0	1.733402985444147e+18
14213.0	1.7330982172491776e+18
14214.0	1.7327908284530685e+18
14215.0	1.7324697326714877e+18
14216.0	1.7321803810603003e+18
14217.0	1.731874522346291e+18
14218.0	1.731554161406771e+18
14219.0	1.7312626824445947e+18
14220.0	1.7309571089432568e+18
14221.0	1.7306508526092285e+18
14222.0	1.7303359358763005e+18
14223.0	1.7300398113030144e+18
14224.0	1.7297339928543232e+18
14225.0	1.7292783958097912e+18
14226.0	1.7291201413644285e+18
14227.0	1.7288174803877885e+18
14228.0	1.7281008986488832e+18
14229.0	1.7281338574897147e+18
14230.0	1.7279026120884221e+18
14231.0	1.7275966090903547e+18
14232.0	1.7272573872046077e+18
14233.0	1.7269350113214461e+18
14234.0	1.726632714410393e+18
14235.0	1.7263245706395643e+18
14236.0	1.7260226596044797e+18
14237.0	1.7257157607030784e+18
14238.0	1.7254107626602493e+18
14239.0	1.7250917220876285e+18
14240.0	1.722710265063015e+18
14241.0	1.7244787933446136e+18
14242.0	1.7241868009996288e+18
14243.0	1.7237011710607357e+18
14244.0	1.7235845090115581e+18
14245.0	1.7232702046470141e+18
14246.0	1.7229656629444605e+18
14247.0	1.7226680284217344e+18
14248.0	1.7223480332255232e+18
14249.0	1.722060298937958e+18
14250.0	1.7217345424457728e+18
14251.0	1.7214201256738813e+18
14252.0	1.7211160352784381e+18
14253.0	1.7208109785153533e+18
14254.0	1.72050483291095e+18
14255.0	1.7201597306109947e+18
14256.0	1.7197454726266875e+18
14257.0	1.7195726035484667e+18
14258.0	1.719292707576217e+18
14259.0	1.7189657733234685e+18
14260.0	1.7186751952977915e+18
14261.0	1.7183581277257725e+18
14262.0	1.7181024228212733e+18
14263.0	1.7175707729788925e+18
14264.0	1.7174262372630525e+18
14265.0	1.7171879420755963e+18
14266.0	1.7168913578065915e+18
14267.0	1.7165897152069627e+18
14268.0	1.716286889813606e+18
14269.0	1.715972833751859e+18
14270.0	1.7156521943105533e+18
14271.0	1.7153392069574653e+18
14272.0	1.7150358446931968e+18
14273.0	1.7147270768099323e+18
14274.0	1.7140660830208003e+18
14275.0	1.7140837209079805e+18
14276.0	1.7138095996534784e+18
14277.0	1.713511913121382e+18
14278.0	1.7132205079789565e+18
14279.0	1.7129169058004987e+18
14280.0	1.712607716809113e+18
14281.0	1.7123141708939261e+18
14282.0	1.712012358844416e+18
14283.0	1.7117101810515965e+18
14284.0	1.7114079999033341e+18
14285.0	1.7111056862150653e+18
14286.0	1.710803016849817e+18
14287.0	1.7105003994939387e+18
14288.0	1.7101904337174525e+18
14289.0	1.7085518013530086e+18
14290.0	1.7095871334187003e+18
14291.0	1.709291869516595e+18
14292.0	1.7089893545017341e+18
14293.0	1.7086539628543997e+18
14294.0	1.7081813839118339e+18
14295.0	1.7080242384404475e+18
14296.0	1.7066686863638533e+18
14297.0	1.707425206265446e+18
14298.0	1.7069425492492288e+18
14299.0	1.7068223086198781e+18
14300.0	1.706532243977011e+18
14301.0	1.7062361294700544e+18
14302.0	1.7059367920599035e+18
14303.0	1.705594924407193e+18
14304.0	1.7053154478653437e+18
14305.0	1.7050348623495163e+18
14306.0	1.7047284533428221e+18
14307.0	1.7044289196392448e+18
14308.0	1.7041325450854395e+18
14309.0	1.7038288372105216e+18
14310.0	1.703495046109593e+18
14311.0	1.7031942608257021e+18
14312.0	1.7028945526390784e+18
14313.0	1.7024609723351037e+18
14314.0	1.70232768406487e+18
14315.0	1.702027584969113e+18
14316.0	1.7016661181726715e+18
14317.0	1.7014239977799677e+18
14318.0	1.7011060712144893e+18
14319.0	1.7007917249069053e+18
14320.0	1.7004910000209915e+18
14321.0	1.7001875488374784e+18
14322.0	1.6998434548482048e+18
14323.0	1.6995660385484797e+18
14324.0	1.6992914374655995e+18
14325.0	1.698980159710822e+18
14326.0	1.698692120077926e+18
14327.0	1.6983840652263421e+18
14328.0	1.698084236243763e+18
14329.0	1.6977929703522304e+18
14330.0	1.6974933913501693e+18
14331.0	1.6971934768037885e+18
14332.0	1.6968942450900987e+18
14333.0	1.6965948321824765e+18
14334.0	1.696295395786752e+18
14335.0	1.695980526030028e+18
14336.0	1.6956810778902523e+18
14337.0	1.6953937412227072e+18
14338.0	1.695094626949529e+18
14339.0	1.694785219854336e+18
14340.0	1.6944998897418237e+18
14341.0	1.694200319128371e+18
14342.0	1.693899040594329e+18
14343.0	1.6936010252288e+18
14344.0	1.693299209823846e+18
14345.0	1.693005566600806e+18
14346.0	1.6926724247781376e+18
14347.0	1.6923563269292024e+18
14348.0	1.6920701495672832e+18
14349.0	1.691772253319987e+18
14350.0	1.691461252389273e+18
14351.0	1.691155350054502e+18
14352.0	1.6908637519740925e+18
14353.0	1.6905755194032125e+18
14354.0	1.6902771080953853e+18
14355.0	1.68997691672494e+18
14356.0	1.6896796445900797e+18
14357.0	1.689385154117632e+18
14358.0	1.6890870095675387e+18
14359.0	1.6887703983357947e+18
14360.0	1.688489296081715e+18
14361.0	1.6881922051407867e+18
14362.0	1.6878947182575613e+18
14363.0	1.6875961995755515e+18
14364.0	1.6872607156535293e+18
14365.0	1.6869907366936576e+18
14366.0	1.6866938672119803e+18
14367.0	1.6864057218826237e+18
14368.0	1.686107515256832e+18
14369.0	1.6858105870548987e+18
14370.0	1.685513083394457e+18
14371.0	1.685215633421107e+18
14372.0	1.6849113819643904e+18
14373.0	1.6846203727642621e+18
14374.0	1.684322800317235e+18
14375.0	1.6840226223685632e+18
14376.0	1.6837288499609597e+18
14377.0	1.6834307943301115e+18
14378.0	1.6831042425978883e+18
14379.0	1.682799410649497e+18
14380.0	1.6825011822133243e+18
14381.0	1.6821901242400765e+18
14382.0	1.6819059081347067e+18
14383.0	1.681608117583872e+18
14384.0	1.681291298314649e+18
14385.0	1.681017046197862e+18
14386.0	1.680697873085235e+18
14387.0	1.680422802240307e+18
14388.0	1.6801215505498107e+18
14389.0	1.6798289156374528e+18
14390.0	1.6795300496670715e+18
14391.0	1.679236233638707e+18
14392.0	1.6789385856942077e+18
14393.0	1.678643241261465e+18
14394.0	1.6782982882787325e+18
14395.0	1.6780372901625856e+18
14396.0	1.6777536998473725e+18
14397.0	1.6774572430852093e+18
14398.0	1.6771604356792315e+18
14399.0	1.6768639067750397e+18
14400.0	1.676542139904819e+18
14401.0	1.6762608765894653e+18
14402.0	1.6759629904084987e+18
14403.0	1.6751203715121144e+18
14404.0	1.6712491950145505e+18
14405.0	1.672857928702356e+18
14406.0	1.674770969211699e+18
14407.0	1.6737313975435267e+18
14408.0	1.6741798860816381e+18
14409.0	1.6738759349370877e+18
14410.0	1.6736047295627261e+18
14411.0	1.6733120359301115e+18
14412.0	1.673013332698726e+18
14413.0	1.6727231774588928e+18
14414.0	1.6724246621323261e+18
14415.0	1.6720952918278136e+18
14416.0	1.6717993400598525e+18
14417.0	1.671501593129779e+18
14418.0	1.6712018295783421e+18
14419.0	1.6709102650523643e+18
14420.0	1.6706096592846843e+18
14421.0	1.6703195896086525e+18
14422.0	1.6700163414294525e+18
14423.0	1.6696933783437312e+18
14424.0	1.6663777927757804e+18
14425.0	1.669101640902246e+18
14426.0	1.6688411360362493e+18
14427.0	1.6685483719393277e+18
14428.0	1.6682263299227648e+18
14429.0	1.6679567569715195e+18
14430.0	1.6676656873734141e+18
14431.0	1.6673034085597181e+18
14432.0	1.6670687523504125e+18
14433.0	1.6661936628301821e+18
14434.0	1.6664623281340413e+18
14435.0	1.6661726778884093e+18
14436.0	1.6658982596771835e+18
14437.0	1.6656041567584253e+18
14438.0	1.665292018332467e+18
14439.0	1.665006921423257e+18
14440.0	1.664719745816985e+18
14441.0	1.6644133988859904e+18
14442.0	1.6641094326419453e+18
14443.0	1.6637617416175613e+18
14444.0	1.6635337677733888e+18
14445.0	1.66324156235776e+18
14446.0	1.6614078797578248e+18
14447.0	1.6626255298297853e+18
14448.0	1.662364652509593e+18
14449.0	1.6620726400319488e+18
14450.0	1.661771596378931e+18
14451.0	1.6614803959185403e+18
14452.0	1.6611899655323643e+18
14453.0	1.6608893664755707e+18
14454.0	1.6606030347632637e+18
14455.0	1.6602981474500603e+18
14456.0	1.6599784257224704e+18
14457.0	1.6596826870251515e+18
14458.0	1.6593899900370941e+18
14459.0	1.6590938738524152e+18
14460.0	1.6587990998450176e+18
14461.0	1.658481263876505e+18
14462.0	1.6581866609967104e+18
14463.0	1.657912702481203e+18
14464.0	1.6576267331567616e+18
14465.0	1.6573012920762365e+18
14466.0	1.657038282371891e+18
14467.0	1.6567185941987328e+18
14468.0	1.6564494960427003e+18
14469.0	1.6561326331527165e+18
14470.0	1.6558278347587581e+18
14471.0	1.6555618772975616e+18
14472.0	1.655275109377638e+18
14473.0	1.6549872106733565e+18
14474.0	1.6546973188358141e+18
14475.0	1.6544019626590203e+18
14476.0	1.6540753924718587e+18
14477.0	1.6538182447267837e+18
14478.0	1.6535219607699453e+18
14479.0	1.6532292772036603e+18
14480.0	1.652915659027251e+18
14481.0	1.6526468880269307e+18
14482.0	1.6523483676671997e+18
14483.0	1.6520471595974653e+18
14484.0	1.6517502565613565e+18
14485.0	1.6514186498539515e+18
14486.0	1.6507811508781053e+18
14487.0	1.65088626516951e+18
14488.0	1.6505950462541821e+18
14489.0	1.650298701899366e+18
14490.0	1.6500086003466235e+18
14491.0	1.6497177236865021e+18
14492.0	1.6494275516694525e+18
14493.0	1.649126206026547e+18
14494.0	1.6488143393914877e+18
14495.0	1.6485454475952123e+18
14496.0	1.6480784940531712e+18
14497.0	1.6479620484300797e+18
14498.0	1.647672899823206e+18
14499.0	1.6473808001040381e+18
14500.0	1.6470877658939392e+18
14501.0	1.6467686380797947e+18
14502.0	1.6462032224124928e+18
14503.0	1.6461882470694907e+18
14504.0	1.6459084953812987e+18
14505.0	1.6455930099007485e+18
14506.0	1.64526249035694e+18
14507.0	1.644676297785344e+18
14508.0	1.6447121355964413e+18
14509.0	1.6444228125065213e+18
14510.0	1.6441261275742205e+18
14511.0	1.6438379537235963e+18
14512.0	1.6435194735099904e+18
14513.0	1.6432321536196603e+18
14514.0	1.6428982886989821e+18
14515.0	1.6426345592520704e+18
14516.0	1.6388763907260444e+18
14517.0	1.6420239138881533e+18
14518.0	1.6417707641536512e+18
14519.0	1.641482627212902e+18
14520.0	1.641190405020057e+18
14521.0	1.6409002229366781e+18
14522.0	1.6406084570841085e+18
14523.0	1.6402790565806077e+18
14524.0	1.6399879215513597e+18
14525.0	1.6397263446212605e+18
14526.0	1.639438675764838e+18
14527.0	1.6391183668346875e+18
14528.0	1.6386718009655293e+18
14529.0	1.6385517130088443e+18
14530.0	1.6382514209751035e+18
14531.0	1.6379810024521725e+18
14532.0	1.6376452584833021e+18
14533.0	1.6373999621636093e+18
14534.0	1.6371109528076285e+18
14535.0	1.636805035373363e+18
14536.0	1.6365170259394557e+18
14537.0	1.636210459226931e+18
14538.0	1.6359378479218685e+18
14539.0	1.6356467665797115e+18
14540.0	1.6353552674848765e+18
14541.0	1.6350339133341693e+18
14542.0	1.6347688433876987e+18
14543.0	1.634442241323827e+18
14544.0	1.6341849912377341e+18
14545.0	1.6338775286218747e+18
14546.0	1.629355516939466e+18
14547.0	1.6292906327343066e+18
14548.0	1.6329888764002304e+18
14549.0	1.6325656862261243e+18
14550.0	1.6324269772374013e+18
14551.0	1.632151236981555e+18
14552.0	1.6318594023423997e+18
14553.0	1.631557548349849e+18
14554.0	1.6312793049333757e+18
14555.0	1.6309879400562688e+18
14556.0	1.6306957128302587e+18
14557.0	1.6304035191586816e+18
14558.0	1.630097725875814e+18
14559.0	1.627248775082798e+18
14560.0	1.629513588513177e+18
14561.0	1.6292239131017213e+18
14562.0	1.6288826041303037e+18
14563.0	1.6286218861936637e+18
14564.0	1.628329751242342e+18
14565.0	1.6280435705249792e+18
14566.0	1.6277527475519488e+18
14567.0	1.6274612534902784e+18
14568.0	1.627162345576857e+18
14569.0	1.626873212069478e+18
14570.0	1.6258757864456187e+18
14571.0	1.6262893968293885e+18
14572.0	1.6259557466570747e+18
14573.0	1.6256501547007997e+18
14574.0	1.6254155253350397e+18
14575.0	1.625132007161856e+18
14576.0	1.6248413217619965e+18
14577.0	1.6245438348787712e+18
14578.0	1.6242595348873216e+18
14579.0	1.6239718257655803e+18
14580.0	1.6236812494176253e+18
14581.0	1.623386757267456e+18
14582.0	1.6230992243064832e+18
14583.0	1.622808498641305e+18
14584.0	1.6225041347772413e+18
14585.0	1.6222265976815613e+18
14586.0	1.621931687778713e+18
14587.0	1.6216442907131904e+18
14588.0	1.6213544173305856e+18
14589.0	1.6210659582672893e+18
14590.0	1.620777314654617e+18
14591.0	1.6204877633945597e+18
14592.0	1.6201868489261053e+18
14593.0	1.6197522418565115e+18
14594.0	1.6196172842532861e+18
14595.0	1.619322340796006e+18
14596.0	1.6190058872700928e+18
14597.0	1.6187107592634365e+18
14598.0	1.6184615790182395e+18
14599.0	1.6181793040367613e+18
14600.0	1.6178905211731965e+18
14601.0	1.6176019849347067e+18
14602.0	1.6173093147901955e+18
14603.0	1.617023904147046e+18
14604.0	1.6166801759010808e+18
14605.0	1.6164395251924984e+18
14606.0	1.6160509464150013e+18
14607.0	1.6158604562268157e+18
14608.0	1.6155748375461885e+18
14609.0	1.6152732654108667e+18
14610.0	1.6149798369361915e+18
14611.0	1.6146929515757563e+18
14612.0	1.614410295751475e+18
14613.0	1.6141226084401147e+18
14614.0	1.6138288528097277e+18
14615.0	1.6135447658889213e+18
14616.0	1.6132566893461504e+18
14617.0	1.6129674383982592e+18
14618.0	1.6126756440244221e+18
14619.0	1.6123572762181632e+18
14620.0	1.6120064327548925e+18
14621.0	1.6118118589923325e+18
14622.0	1.611519489159987e+18
14623.0	1.6112341271707648e+18
14624.0	1.6108681355591675e+18
14625.0	1.6106510987821053e+18
14626.0	1.610358235699609e+18
14627.0	1.6100405993799677e+18
14628.0	1.6097561433604093e+18
14629.0	1.6094671658811387e+18
14630.0	1.6091771884797947e+18
14631.0	1.6088876690964477e+18
14632.0	1.6083396983783421e+18
14633.0	1.608272648234598e+18
14634.0	1.6080186210516984e+18
14635.0	1.6077200218390525e+18
14636.0	1.6074058718248957e+18
14637.0	1.6071531616534525e+18
14638.0	1.6068593305255933e+18
14639.0	1.6065587415351293e+18
14640.0	1.6062709468495872e+18
14641.0	1.6050100585365494e+18
14642.0	1.6056896867794941e+18
14643.0	1.6054140857745405e+18
14644.0	1.6051107755196413e+18
14645.0	1.6048053446246397e+18
14646.0	1.6045379342565376e+18
14647.0	1.604246019086745e+18
