# Flux units: erg / (cm m2 s)
# Wavelength units: Angstrom
wave	flux
14000.0	2.177627164613017e+18
14001.0	2.1771304935882747e+18
14002.0	2.1767081926066173e+18
14003.0	2.1762444552568827e+18
14004.0	2.175780035074457e+18
14005.0	2.175315599792537e+18
14006.0	2.174846664861286e+18
14007.0	2.1743807666061304e+18
14008.0	2.1738562655354877e+18
14009.0	2.1734574493007872e+18
14010.0	2.1729853233430525e+18
14011.0	2.1721485680836605e+18
14012.0	2.1720670744346621e+18
14013.0	2.171604186012057e+18
14014.0	2.1711368247836667e+18
14015.0	2.170675983181414e+18
14016.0	2.1702144100925432e+18
14017.0	2.1697514226843645e+18
14018.0	2.169288317835673e+18
14019.0	2.1688256777158648e+18
14020.0	2.1683624755593208e+18
14021.0	2.1678993807769595e+18
14022.0	2.1674369906376701e+18
14023.0	2.1669664316719101e+18
14024.0	2.1665030567100408e+18
14025.0	2.1660509812031485e+18
14026.0	2.1655878209896443e+18
14027.0	2.1651272864104443e+18
14028.0	2.1646655304499195e+18
14029.0	2.1642035245088765e+18
14030.0	2.1635075636461568e+18
14031.0	2.1632626397806587e+18
14032.0	2.162817702979174e+18
14033.0	2.1623287628955643e+18
14034.0	2.1618966724083704e+18
14035.0	2.1614363408334845e+18
14036.0	2.1609755998945275e+18
14037.0	2.1605149159981053e+18
14038.0	2.160054331087257e+18
14039.0	2.1595938535505917e+18
14040.0	2.1591280274374653e+18
14041.0	2.1586706989842427e+18
14042.0	2.1582051698278395e+18
14043.0	2.15772818351063e+18
14044.0	2.1572862364090365e+18
14045.0	2.156831335618969e+18
14046.0	2.156370113173913e+18
14047.0	2.1559093168701437e+18
14048.0	2.155453624195481e+18
14049.0	2.1549952958201856e+18
14050.0	2.1545360933519355e+18
14051.0	2.1540711144882173e+18
14052.0	2.1536178897420283e+18
14053.0	2.1531590765051901e+18
14054.0	2.152700392452915e+18
14055.0	2.1522417486659584e+18
14056.0	2.1517832005091325e+18
14057.0	2.151324811735859e+18
14058.0	2.1508665102041083e+18
14059.0	2.1504083244351483e+18
14060.0	2.149950254428979e+18
14061.0	2.1494881461469181e+18
14062.0	2.149034413051084e+18
14063.0	2.1485659680145405e+18
14064.0	2.1480832774438912e+18
14065.0	2.1476562318655483e+18
14066.0	2.1472041815244795e+18
14067.0	2.146743670433382e+18
14068.0	2.1462898215747581e+18
14069.0	2.1458318606204925e+18
14070.0	2.1453756646293496e+18
14071.0	2.1449172540456952e+18
14072.0	2.1444623079571453e+18
14073.0	2.1440057277677565e+18
14074.0	2.1435493052841976e+18
14075.0	2.1430806907977725e+18
14076.0	2.1426328498601976e+18
14077.0	2.1421268540588035e+18
14078.0	2.1417203605700605e+18
14079.0	2.1412641746452477e+18
14080.0	2.1408128792788984e+18
14081.0	2.1403572134477821e+18
14082.0	2.1398978817949693e+18
14083.0	2.1394451754647547e+18
14084.0	2.1389905162665976e+18
14085.0	2.138356819007897e+18
14086.0	2.1380753292001277e+18
14087.0	2.137625505195622e+18
14088.0	2.1371627845451773e+18
14089.0	2.136712896787251e+18
14090.0	2.1362605109018621e+18
14091.0	2.1358068231045117e+18
14092.0	2.1353524507967488e+18
14093.0	2.1348981439201277e+18
14094.0	2.1344439175741437e+18
14095.0	2.1339896845172733e+18
14096.0	2.1335231638274043e+18
14097.0	2.1330716419686392e+18
14098.0	2.132622928615833e+18
14099.0	2.1321745206083584e+18
14100.0	2.131713689072435e+18
14101.0	2.131267841268121e+18
14102.0	2.1308143883517947e+18
14103.0	2.130352645813043e+18
14104.0	2.12990833983488e+18
14105.0	2.1294549607383037e+18
14106.0	2.129002489289113e+18
14107.0	2.1285485531889661e+18
14108.0	2.1280888641814525e+18
14109.0	2.1276413520773115e+18
14110.0	2.1271874646310904e+18
14111.0	2.1267297100365821e+18
14112.0	2.1262821325012987e+18
14113.0	2.1258356907835387e+18
14114.0	2.1253744314286075e+18
14115.0	2.1249308166717437e+18
14116.0	2.1244619236835325e+18
14117.0	2.123626369672806e+18
14118.0	2.123576192375193e+18
14119.0	2.1231150689157117e+18
14120.0	2.1226684543926267e+18
14121.0	2.1222131442384896e+18
14122.0	2.1217661723607035e+18
14123.0	2.121313408987955e+18
14124.0	2.1208619643043837e+18
14125.0	2.12010951287767e+18
14126.0	2.1199686345949184e+18
14127.0	2.1195188676329472e+18
14128.0	2.1190678037921787e+18
14129.0	2.1186099602784253e+18
14130.0	2.118153348212326e+18
14131.0	2.117718284802457e+18
14132.0	2.117263806798233e+18
14133.0	2.1164556868911094e+18
14134.0	2.1163678900420603e+18
14135.0	2.1159089929191421e+18
14136.0	2.1154580565852152e+18
14137.0	2.1150192367566845e+18
14138.0	2.1145666176679928e+18
14139.0	2.1141217462976504e+18
14140.0	2.1136656325148667e+18
14141.0	2.1132196957913083e+18
14142.0	2.1127417565282301e+18
14143.0	2.11232048063447e+18
14144.0	2.1118783691161595e+18
14145.0	2.1114299946631165e+18
14146.0	2.110980573311795e+18
14147.0	2.110532712241561e+18
14148.0	2.1100848377495552e+18
14149.0	2.1096374950952957e+18
14150.0	2.1091895602053115e+18
14151.0	2.1087401757638648e+18
14152.0	2.1082941887086587e+18
14153.0	2.1078465289650168e+18
14154.0	2.107381189391155e+18
14155.0	2.106886286684979e+18
14156.0	2.1063649699299325e+18
14157.0	2.1059202344550397e+18
14158.0	2.1054700262522875e+18
14159.0	2.105025601155891e+18
14160.0	2.104573081052774e+18
14161.0	2.1040919423746045e+18
14162.0	2.1036126240243704e+18
14163.0	2.103236108065177e+18
14164.0	2.1027704178475003e+18
14165.0	2.1022659454173184e+18
14166.0	2.101542776943411e+18
14167.0	2.1010783013961728e+18
14168.0	2.1006406526173176e+18
14169.0	2.1001962040328187e+18
14170.0	2.099747908432691e+18
14171.0	2.0993025018691576e+18
14172.0	2.0988583552745472e+18
14173.0	2.0983151610298368e+18
14174.0	2.097822186025779e+18
14175.0	2.097380391596851e+18
14176.0	2.0969346712993787e+18
14177.0	2.0964890046889981e+18
14178.0	2.0960421921947645e+18
14179.0	2.095589598271897e+18
14180.0	2.0951527480885245e+18
14181.0	2.094707529429811e+18
14182.0	2.0942619047624701e+18
14183.0	2.093817367258726e+18
14184.0	2.0933689693175803e+18
14185.0	2.0929273191727096e+18
14186.0	2.0923934648041467e+18
14187.0	2.0920213176319992e+18
14188.0	2.0915930825490427e+18
14189.0	2.091148041728819e+18
14190.0	2.0907044152279037e+18
14191.0	2.0902601042165757e+18
14192.0	2.0898112046366715e+18
14193.0	2.089216784518348e+18
14194.0	2.08869259214848e+18
14195.0	2.0882497961197563e+18
14196.0	2.0878056864350203e+18
14197.0	2.0873618351194112e+18
14198.0	2.0869150628904955e+18
14199.0	2.0864724983873533e+18
14200.0	2.0859866100793344e+18
14201.0	2.0855848897085435e+18
14202.0	2.0851442394857467e+18
14203.0	2.084691648918323e+18
14204.0	2.0842558942871547e+18
14205.0	2.0838129690738688e+18
14206.0	2.0832874697588733e+18
14207.0	2.0829288467005437e+18
14208.0	2.0824864751353848e+18
14209.0	2.081955006486937e+18
14210.0	2.081532393449062e+18
14211.0	2.0811143371030528e+18
14212.0	2.0806749887922173e+18
14213.0	2.0802329661931515e+18
14214.0	2.079790889906995e+18
14215.0	2.079341997037977e+18
14216.0	2.0787887918284797e+18
14217.0	2.078322277849497e+18
14218.0	2.0778718314102781e+18
14219.0	2.0774382443954173e+18
14220.0	2.07699652378624e+18
14221.0	2.0765544340783096e+18
14222.0	2.0761035312988155e+18
14223.0	2.0756712898166781e+18
14224.0	2.0752299953487864e+18
14225.0	2.074659044877926e+18
14226.0	2.0743464786329597e+18
14227.0	2.0739063283711997e+18
14228.0	2.0731767728111616e+18
14229.0	2.0729624103223293e+18
14230.0	2.0725835942068221e+18
14231.0	2.072137795056435e+18
14232.0	2.0717021612212214e+18
14233.0	2.0712581924651003e+18
14234.0	2.0708212818837496e+18
14235.0	2.070379274384179e+18
14236.0	2.0699404730105853e+18
14237.0	2.0694995442860027e+18
14238.0	2.0690600080703488e+18
14239.0	2.0686163715031035e+18
14240.0	2.067221765423104e+18
14241.0	2.0676346359316477e+18
14242.0	2.067156777199206e+18
14243.0	2.0666132708982784e+18
14244.0	2.0662774900195325e+18
14245.0	2.065826296994201e+18
14246.0	2.06538357646295e+18
14247.0	2.0649552205840376e+18
14248.0	2.0645097620111355e+18
14249.0	2.0640784130768893e+18
14250.0	2.0636389691359227e+18
14251.0	2.063201478062899e+18
14252.0	2.06276231430144e+18
14253.0	2.0623227378204667e+18
14254.0	2.061882745264537e+18
14255.0	2.0614247356563453e+18
14256.0	2.0608665274810363e+18
14257.0	2.0605591806279675e+18
14258.0	2.0601295345811448e+18
14259.0	2.05967735170007e+18
14260.0	2.0592469422899197e+18
14261.0	2.0588001163739133e+18
14262.0	2.0583956327956477e+18
14263.0	2.0577520470458368e+18
14264.0	2.0574711310188536e+18
14265.0	2.0570789317181437e+18
14266.0	2.0566448246095867e+18
14267.0	2.0562072496504824e+18
14268.0	2.055759814721536e+18
14269.0	2.0551885454835707e+18
14270.0	2.054752346256179e+18
14271.0	2.0543134526078973e+18
14272.0	2.053876734964531e+18
14273.0	2.0534375040942075e+18
14274.0	2.0526852909039619e+18
14275.0	2.052533638293094e+18
14276.0	2.0521130032889853e+18
14277.0	2.051678555602944e+18
14278.0	2.0512530434621437e+18
14279.0	2.0508153762283517e+18
14280.0	2.0503746706407421e+18
14281.0	2.0495220474904568e+18
14282.0	2.0490539396759547e+18
14283.0	2.0486174065819645e+18
14284.0	2.048180918786457e+18
14285.0	2.0477444595122173e+18
14286.0	2.047307849243033e+18
14287.0	2.046872020792115e+18
14288.0	2.0464352561725437e+18
14289.0	2.0453853161848822e+18
14290.0	2.045561881283788e+18
14291.0	2.0451274470195197e+18
14292.0	2.044692499372441e+18
14293.0	2.044255293512089e+18
14294.0	2.0437286734790656e+18
14295.0	2.04337576977367e+18
14296.0	2.0424527292923901e+18
14297.0	2.0425129276211197e+18
14298.0	2.0419669735243773e+18
14299.0	2.0416350379835387e+18
14300.0	2.0411821722697725e+18
14301.0	2.040624470766387e+18
14302.0	2.040191269627494e+18
14303.0	2.0397327114043387e+18
14304.0	2.0393107811991547e+18
14305.0	2.0388853915320315e+18
14306.0	2.0384334854750203e+18
14307.0	2.0380089497681917e+18
14308.0	2.0375804244393981e+18
14309.0	2.037142517291417e+18
14310.0	2.0366253612859387e+18
14311.0	2.0362436511006715e+18
14312.0	2.035814911023513e+18
14313.0	2.035362833838899e+18
14314.0	2.0349723458142203e+18
14315.0	2.0345403559903227e+18
14316.0	2.034072011617075e+18
14317.0	2.033664493040435e+18
14318.0	2.0332396905758715e+18
14319.0	2.0328064995033083e+18
14320.0	2.0323725601669115e+18
14321.0	2.0319393523171325e+18
14322.0	2.0314789335007224e+18
14323.0	2.0310588521447421e+18
14324.0	2.030639200285491e+18
14325.0	2.0301987060908027e+18
14326.0	2.029772836595302e+18
14327.0	2.0293349915230203e+18
14328.0	2.0289024480509944e+18
14329.0	2.0284738153480187e+18
14330.0	2.0280409732415483e+18
14331.0	2.027607968396083e+18
14332.0	2.0271754333126653e+18
14333.0	2.0267428311203837e+18
14334.0	2.0263102809374715e+18
14335.0	2.0258694981746688e+18
14336.0	2.0254283664457725e+18
14337.0	2.0249272981127163e+18
14338.0	2.024434360018534e+18
14339.0	2.023994914399846e+18
14340.0	2.0235704911003643e+18
14341.0	2.0231373453262843e+18
14342.0	2.0227059561267197e+18
14343.0	2.022269995135795e+18
14344.0	2.0218369785462776e+18
14345.0	2.0214095470919677e+18
14346.0	2.0209756194996221e+18
14347.0	2.020536433927782e+18
14348.0	2.020113337706086e+18
14349.0	2.0196821833875448e+18
14350.0	2.0192394863443965e+18
14351.0	2.0188030790795261e+18
14352.0	2.0183816505131e+18
14353.0	2.017955062952755e+18
14354.0	2.017522784560742e+18
14355.0	2.0170892461998075e+18
14356.0	2.0166590381162493e+18
14357.0	2.016231210719641e+18
14358.0	2.0158000312352763e+18
14359.0	2.0153579885035515e+18
14360.0	2.014937103518924e+18
14361.0	2.0145070783070205e+18
14362.0	2.0140767913705472e+18
14363.0	2.013645910520627e+18
14364.0	2.01317960122368e+18
14365.0	2.0127768591204347e+18
14366.0	2.0123486341038077e+18
14367.0	2.011924391998259e+18
14368.0	2.01149374267392e+18
14369.0	2.0110638902673408e+18
14370.0	2.0106337778139133e+18
14371.0	2.0102037425356792e+18
14372.0	2.0097700649238525e+18
14373.0	2.0093435729936381e+18
14374.0	2.0089139202359296e+18
14375.0	2.008484121516441e+18
14376.0	2.008054381517209e+18
14377.0	2.0076243076513787e+18
14378.0	2.0070760215216125e+18
14379.0	2.0066238856167421e+18
14380.0	2.0061931154964475e+18
14381.0	2.0057560941854715e+18
14382.0	2.005333454304051e+18
14383.0	2.0048995720101883e+18
14384.0	2.0044614954123261e+18
14385.0	2.0040459153833984e+18
14386.0	2.0036058188087293e+18
14387.0	2.003187002454835e+18
14388.0	2.0027564118507517e+18
14389.0	2.0023092302577661e+18
14390.0	2.0016244665090043e+18
14391.0	2.0011966189797373e+18
14392.0	2.0007664394174464e+18
14393.0	2.0003389660200955e+18
14394.0	1.9998838186049533e+18
14395.0	1.9994727952678912e+18
14396.0	1.9990524471541755e+18
14397.0	1.9986238983372797e+18
14398.0	1.9981944586502144e+18
14399.0	1.9977665238794235e+18
14400.0	1.9973261420920832e+18
14401.0	1.996904773923635e+18
14402.0	1.9964784648650747e+18
14403.0	1.9947479805984748e+18
14404.0	1.991640377144114e+18
14405.0	1.994168426771249e+18
14406.0	1.9947651017474043e+18
14407.0	1.992529908491879e+18
14408.0	1.9938925875298301e+18
14409.0	1.9934718401183744e+18
14410.0	1.9930537317629947e+18
14411.0	1.992628530000691e+18
14412.0	1.992199224531353e+18
14413.0	1.9917739187503101e+18
14414.0	1.9913444538974203e+18
14415.0	1.990917676754534e+18
14416.0	1.9904898409693184e+18
14417.0	1.990057466947174e+18
14418.0	1.9896241215242237e+18
14419.0	1.9892072446164987e+18
14420.0	1.9887773771104248e+18
14421.0	1.9883528028159997e+18
14422.0	1.9879242506436605e+18
14423.0	1.987482461247897e+18
14424.0	1.9797082919403484e+18
14425.0	1.9866269205397496e+18
14426.0	1.9862166303670272e+18
14427.0	1.985708299177165e+18
14428.0	1.9852083398180861e+18
14429.0	1.9847929795706875e+18
14430.0	1.9843696870555645e+18
14431.0	1.9838823793950717e+18
14432.0	1.983507683763814e+18
14433.0	1.9817237204434936e+18
14434.0	1.9826482507415547e+18
14435.0	1.9822208981401597e+18
14436.0	1.9818084504174587e+18
14437.0	1.9813818410467325e+18
14438.0	1.9809151240634365e+18
14439.0	1.9805162071654392e+18
14440.0	1.9801016320917496e+18
14441.0	1.9796711991934973e+18
14442.0	1.9792421504155643e+18
14443.0	1.9787892729577472e+18
14444.0	1.9783930051821563e+18
14445.0	1.977968727844454e+18
14446.0	1.97576236120146e+18
14447.0	1.9771024430071805e+18
14448.0	1.9766915169779712e+18
14449.0	1.976265837065011e+18
14450.0	1.9758358638624765e+18
14451.0	1.975412546181529e+18
14452.0	1.974984977154048e+18
14453.0	1.974537102662041e+18
14454.0	1.9741354007461883e+18
14455.0	1.9737061573525501e+18
14456.0	1.9732778249617403e+18
14457.0	1.972849482504601e+18
14458.0	1.972429701460787e+18
14459.0	1.972001897552281e+18
14460.0	1.9715763401129981e+18
14461.0	1.9711339987468288e+18
14462.0	1.9706977223442432e+18
14463.0	1.9702947638149112e+18
14464.0	1.9698754290450424e+18
14465.0	1.9694372215848955e+18
14466.0	1.9690263978967035e+18
14467.0	1.9685716481015803e+18
14468.0	1.9681725382655997e+18
14469.0	1.9677334147694587e+18
14470.0	1.9673053743022077e+18
14471.0	1.9668920877187072e+18
14472.0	1.9664693589180416e+18
14473.0	1.9660502170861565e+18
14474.0	1.9656244952301563e+18
14475.0	1.9651956662337533e+18
14476.0	1.9646875883798528e+18
14477.0	1.9643492288430077e+18
14478.0	1.963924189819699e+18
14479.0	1.963498644124467e+18
14480.0	1.9630619801681917e+18
14481.0	1.9626494837915643e+18
14482.0	1.962221762091417e+18
14483.0	1.9617125198987261e+18
14484.0	1.9612308980367355e+18
14485.0	1.9607868571385848e+18
14486.0	1.9601797299568637e+18
14487.0	1.9599626160046075e+18
14488.0	1.9595321730400248e+18
14489.0	1.9591078873137147e+18
14490.0	1.9586858195353592e+18
14491.0	1.9582620874571773e+18
14492.0	1.9578383218245627e+18
14493.0	1.9574097109319677e+18
14494.0	1.9569733288329208e+18
14495.0	1.9565627299594237e+18
14496.0	1.956043377816371e+18
14497.0	1.9557123516006397e+18
14498.0	1.9552882906890235e+18
14499.0	1.9548637231054845e+18
14500.0	1.9544385213431808e+18
14501.0	1.9539687374847997e+18
14502.0	1.9534163929464827e+18
14503.0	1.953151668610662e+18
14504.0	1.95273467929559e+18
14505.0	1.9522711768268797e+18
14506.0	1.9518040991334397e+18
14507.0	1.951292711134822e+18
14508.0	1.9510396637413373e+18
14509.0	1.9506151515226107e+18
14510.0	1.9501884012232701e+18
14511.0	1.949765229504102e+18
14512.0	1.9493291963711483e+18
14513.0	1.948915535655731e+18
14514.0	1.9484654180499456e+18
14515.0	1.9480646304923643e+18
14516.0	1.9461020921626632e+18
14517.0	1.9472130173304827e+18
14518.0	1.9467911324237821e+18
14519.0	1.9463665698734077e+18
14520.0	1.9459417288212475e+18
14521.0	1.94551628211159e+18
14522.0	1.9450912397328384e+18
14523.0	1.944570726606438e+18
14524.0	1.9441435954642941e+18
14525.0	1.9438123695996925e+18
14526.0	1.9433915936669693e+18
14527.0	1.9429482121134077e+18
14528.0	1.942457013816525e+18
14529.0	1.9421081165103101e+18
14530.0	1.9416785375723517e+18
14531.0	1.9412640983941115e+18
14532.0	1.9407136966574077e+18
14533.0	1.9404145236639736e+18
14534.0	1.939991506295193e+18
14535.0	1.9395583068340221e+18
14536.0	1.9391411245809661e+18
14537.0	1.938707403348377e+18
14538.0	1.9382912143065088e+18
14539.0	1.937866245747507e+18
14540.0	1.9374410909614075e+18
14541.0	1.9369987093299192e+18
14542.0	1.936588660749107e+18
14543.0	1.9360983013130235e+18
14544.0	1.9357386749771773e+18
14545.0	1.935307032441651e+18
14546.0	1.9265719615094743e+18
14547.0	1.926888472077921e+18
14548.0	1.9339015530479616e+18
14549.0	1.9334002817105915e+18
14550.0	1.93305525658583e+18
14551.0	1.932634920216166e+18
14552.0	1.9322083074899965e+18
14553.0	1.931779268778393e+18
14554.0	1.9313581891780608e+18
14555.0	1.9309319556169725e+18
14556.0	1.930504056078336e+18
14557.0	1.930080307222937e+18
14558.0	1.929653003275468e+18
14559.0	1.9280961128628204e+18
14560.0	1.9287980581584888e+18
14561.0	1.9283714034892797e+18
14562.0	1.9279326054711293e+18
14563.0	1.9275227380842493e+18
14564.0	1.9270920484945917e+18
14565.0	1.9266711685431293e+18
14566.0	1.9262448125083643e+18
14567.0	1.925817714920652e+18
14568.0	1.9253827756621821e+18
14569.0	1.924964348539699e+18
14570.0	1.9242212806098941e+18
14571.0	1.9241092524277755e+18
14572.0	1.9236574755553275e+18
14573.0	1.9232247357898747e+18
14574.0	1.9228192539672573e+18
14575.0	1.922402356926873e+18
14576.0	1.9219767290232832e+18
14577.0	1.9215460159455232e+18
14578.0	1.9211229717331968e+18
14579.0	1.9206973773840381e+18
14580.0	1.9202704928669696e+18
14581.0	1.9198400129925115e+18
14582.0	1.9194159118155773e+18
14583.0	1.918988866237235e+18
14584.0	1.9185532575678461e+18
14585.0	1.918133947963801e+18
14586.0	1.9177041056235515e+18
14587.0	1.917277177485721e+18
14588.0	1.9168511435735035e+18
14589.0	1.916432369162649e+18
14590.0	1.9160138497654781e+18
14591.0	1.915594456275353e+18
14592.0	1.9151718314934264e+18
14593.0	1.9146743350296568e+18
14594.0	1.9143376532144125e+18
14595.0	1.9139145737699325e+18
14596.0	1.9134629629919227e+18
14597.0	1.913043482260275e+18
14598.0	1.9126566483132408e+18
14599.0	1.9122412964544507e+18
14600.0	1.9118210288713725e+18
14601.0	1.9114016085377021e+18
14602.0	1.9109796179345403e+18
14603.0	1.9105612965085181e+18
14604.0	1.9101113466748925e+18
14605.0	1.9097149715251192e+18
14606.0	1.9092591731539965e+18
14607.0	1.9088732887973888e+18
14608.0	1.9084585778282493e+18
14609.0	1.9080308645167104e+18
14610.0	1.9076096473432061e+18
14611.0	1.9071921698111483e+18
14612.0	1.9067749338710008e+18
14613.0	1.9063542032367608e+18
14614.0	1.9059304090828797e+18
14615.0	1.9055108209770496e+18
14616.0	1.905089311879987e+18
14617.0	1.9046670696185853e+18
14618.0	1.904241428293222e+18
14619.0	1.9037965737000952e+18
14620.0	1.903315658158899e+18
14621.0	1.9029777667063805e+18
14622.0	1.9025529659195387e+18
14623.0	1.9021322285744125e+18
14624.0	1.9016671255592955e+18
14625.0	1.9012829960994813e+18
14626.0	1.9007895915986941e+18
14627.0	1.9003134122655741e+18
14628.0	1.8998955757010941e+18
14629.0	1.8994711691788283e+18
14630.0	1.8990456402608125e+18
14631.0	1.8986205374840832e+18
14632.0	1.8976133659754496e+18
14633.0	1.8976869860769784e+18
14634.0	1.897342516278067e+18
14635.0	1.8968980307836925e+18
14636.0	1.8964426384211963e+18
14637.0	1.8960676122787837e+18
14638.0	1.8956393453191163e+18
14639.0	1.895206692795187e+18
14640.0	1.8947817712123896e+18
14641.0	1.8920586445062129e+18
14642.0	1.89392642679767e+18
14643.0	1.893505223045939e+18
14644.0	1.89306974020567e+18
14645.0	1.8926336684851197e+18
14646.0	1.8922142515068925e+18
14647.0	1.8917834880974845e+18
14648.0	1.8913626903543805e+18
