# Flux units: erg / (cm m2 s)
# Wavelength units: Angstrom
wave	flux
14000.0	1.5069003722522621e+18
14001.0	1.5065159408025595e+18
14002.0	1.5062702351187963e+18
14003.0	1.5059542664544253e+18
14004.0	1.505638484017152e+18
14005.0	1.5053225539403773e+18
14006.0	1.5050023926497275e+18
14007.0	1.5046860263653373e+18
14008.0	1.5043224926158843e+18
14009.0	1.5040594896224253e+18
14010.0	1.503737221113446e+18
14011.0	1.5030792388345853e+18
14012.0	1.5031129979486203e+18
14013.0	1.502797720505549e+18
14014.0	1.5024795003387901e+18
14015.0	1.502165977792512e+18
14016.0	1.501852180099891e+18
14017.0	1.5015371660591104e+18
14018.0	1.5012219238481915e+18
14019.0	1.5009073493704701e+18
14020.0	1.5005921222590464e+18
14021.0	1.5002771501613056e+18
14022.0	1.4999620555898872e+18
14023.0	1.4996382435770365e+18
14024.0	1.499325377019904e+18
14025.0	1.4990195300499456e+18
14026.0	1.4987043616587768e+18
14027.0	1.4983911645904896e+18
14028.0	1.4980738587820032e+18
14029.0	1.4977609620258813e+18
14030.0	1.4971434094821376e+18
14031.0	1.4971255652351997e+18
14032.0	1.4968209111252992e+18
14033.0	1.4964835817095165e+18
14034.0	1.4961934281474043e+18
14035.0	1.495879934122393e+18
14036.0	1.495566381377126e+18
14037.0	1.495251719657881e+18
14038.0	1.4949395023790077e+18
14039.0	1.4946240722632701e+18
14040.0	1.4943061255651328e+18
14041.0	1.4939976261173243e+18
14042.0	1.4936814443823104e+18
14043.0	1.493349468576153e+18
14044.0	1.4930537282011139e+18
14045.0	1.492745909908275e+18
14046.0	1.4924326675415037e+18
14047.0	1.4921171032080381e+18
14048.0	1.491808689324032e+18
14049.0	1.4914971079016448e+18
14050.0	1.4911846238650368e+18
14051.0	1.4908664473190395e+18
14052.0	1.4905556762361853e+18
14053.0	1.4902438314115067e+18
14054.0	1.489932125837721e+18
14055.0	1.4896194840952824e+18
14056.0	1.489307963070873e+18
14057.0	1.4889960159051773e+18
14058.0	1.4886841308151805e+18
14059.0	1.4883722289479677e+18
14060.0	1.4880603472134141e+18
14061.0	1.4877447325483005e+18
14062.0	1.487437112226611e+18
14063.0	1.487117422375731e+18
14064.0	1.486758029243187e+18
14065.0	1.4864980948025344e+18
14066.0	1.4861904912580605e+18
14067.0	1.485875156772454e+18
14068.0	1.485569242693632e+18
14069.0	1.4852571277557757e+18
14070.0	1.48494434172928e+18
14071.0	1.484631411418726e+18
14072.0	1.4843221670625275e+18
14073.0	1.4840114127568893e+18
14074.0	1.4837007809249277e+18
14075.0	1.4833812269694976e+18
14076.0	1.4830732375490557e+18
14077.0	1.4826975453511677e+18
14078.0	1.4824540475490304e+18
14079.0	1.4821433100206075e+18
14080.0	1.481838320366387e+18
14081.0	1.4815280760881147e+18
14082.0	1.4812125285318653e+18
14083.0	1.4809073073520635e+18
14084.0	1.4805981703700477e+18
14085.0	1.4801280107020288e+18
14086.0	1.4799726268383235e+18
14087.0	1.4796688937975805e+18
14088.0	1.4793530610286587e+18
14089.0	1.4790438686818301e+18
14090.0	1.4787347266666493e+18
14091.0	1.4784276113391613e+18
14092.0	1.4781182931632123e+18
14093.0	1.4778089615654907e+18
14094.0	1.4774998698819584e+18
14095.0	1.4771907849093115e+18
14096.0	1.4768678721552381e+18
14097.0	1.476562112426803e+18
14098.0	1.4762576747429888e+18
14099.0	1.4759551060410363e+18
14100.0	1.4756396708921341e+18
14101.0	1.4753377867005947e+18
14102.0	1.475028138013491e+18
14103.0	1.474712206258995e+18
14104.0	1.4744108136398845e+18
14105.0	1.4741032537161725e+18
14106.0	1.473795598162329e+18
14107.0	1.4734852599316477e+18
14108.0	1.4731735610687488e+18
14109.0	1.4728686871773181e+18
14110.0	1.4725570604564475e+18
14111.0	1.4722394677575677e+18
14112.0	1.471941620164198e+18
14113.0	1.4716345182584832e+18
14114.0	1.471322201994035e+18
14115.0	1.4710205023518715e+18
14116.0	1.4706860653281275e+18
14117.0	1.4699015090208765e+18
14118.0	1.4700985087688701e+18
14119.0	1.469782305223475e+18
14120.0	1.4694772702707707e+18
14121.0	1.4691695811624957e+18
14122.0	1.4688566357524475e+18
14123.0	1.4685528523800573e+18
14124.0	1.4682427003764736e+18
14125.0	1.467702180419993e+18
14126.0	1.4676400661331965e+18
14127.0	1.4673358750744568e+18
14128.0	1.4670284778897405e+18
14129.0	1.466716961898496e+18
14130.0	1.4664044594069501e+18
14131.0	1.4661097759965184e+18
14132.0	1.4658007296114685e+18
14133.0	1.4652089753927662e+18
14134.0	1.4651907821797376e+18
14135.0	1.4648775029030907e+18
14136.0	1.464553031545651e+18
14137.0	1.4642703740436477e+18
14138.0	1.4639569773264893e+18
14139.0	1.4636576281722877e+18
14140.0	1.463341339063091e+18
14141.0	1.463046063416934e+18
14142.0	1.4626972650962941e+18
14143.0	1.4624256285474813e+18
14144.0	1.4621298831392765e+18
14145.0	1.4618235664072701e+18
14146.0	1.4615174761676797e+18
14147.0	1.4612132180000765e+18
14148.0	1.460906892879462e+18
14149.0	1.4606010844971005e+18
14150.0	1.4602986349133821e+18
14151.0	1.4599882127966203e+18
14152.0	1.4596879291514877e+18
14153.0	1.4593840082059264e+18
14154.0	1.459066630255411e+18
14155.0	1.4585933550583808e+18
14156.0	1.4584649439248381e+18
14157.0	1.4581655662493693e+18
14158.0	1.4578585415188475e+18
14159.0	1.4575561909207035e+18
14160.0	1.4572520686485501e+18
14161.0	1.4569130682220541e+18
14162.0	1.456588274742067e+18
14163.0	1.4563392706576381e+18
14164.0	1.4560153009389565e+18
14165.0	1.4556165501353984e+18
14166.0	1.4554246389170176e+18
14167.0	1.4551143308853248e+18
14168.0	1.4548138459135997e+18
14169.0	1.454514186380902e+18
14170.0	1.4542077958291453e+18
14171.0	1.4539038966939645e+18
14172.0	1.4536037288116221e+18
14173.0	1.4532446695456763e+18
14174.0	1.4529953114619901e+18
14175.0	1.4526939507195901e+18
14176.0	1.452389967698329e+18
14177.0	1.452087551669043e+18
14178.0	1.4517837179650045e+18
14179.0	1.451470056167833e+18
14180.0	1.4511791224651773e+18
14181.0	1.4508763692138493e+18
14182.0	1.450573235119718e+18
14183.0	1.450271085848166e+18
14184.0	1.4499658478911485e+18
14185.0	1.4496660692402176e+18
14186.0	1.4492668855844864e+18
14187.0	1.4490485502509053e+18
14188.0	1.448757042767462e+18
14189.0	1.448455021002752e+18
14190.0	1.4481540343922685e+18
14191.0	1.4478517022490621e+18
14192.0	1.4475455767773181e+18
14193.0	1.447234221847347e+18
14194.0	1.4469459087458301e+18
14195.0	1.4466454556508157e+18
14196.0	1.4463419407138813e+18
14197.0	1.446038023123763e+18
14198.0	1.4457342649171965e+18
14199.0	1.4454329326960637e+18
14200.0	1.4450765997277181e+18
14201.0	1.444832826779238e+18
14202.0	1.4445310029856765e+18
14203.0	1.4442176616333307e+18
14204.0	1.4439281372168192e+18
14205.0	1.4436271321513981e+18
14206.0	1.4432612965679104e+18
14207.0	1.4430266588135421e+18
14208.0	1.4427260530458621e+18
14209.0	1.4423485874962432e+18
14210.0	1.442081685477785e+18
14211.0	1.4418203685945341e+18
14212.0	1.441523005862707e+18
14213.0	1.4412218313474045e+18
14214.0	1.4409221953028093e+18
14215.0	1.440614749464166e+18
14216.0	1.4403214820507645e+18
14217.0	1.4400220355887101e+18
14218.0	1.4397160778891264e+18
14219.0	1.439421936382771e+18
14220.0	1.439121540330291e+18
14221.0	1.4388207030370301e+18
14222.0	1.4385095343341565e+18
14223.0	1.4382222597423101e+18
14224.0	1.4379230330617853e+18
14225.0	1.4374486254026755e+18
14226.0	1.437323927067033e+18
14227.0	1.437024547713843e+18
14228.0	1.436223205801984e+18
14229.0	1.4363778028142584e+18
14230.0	1.4361266697011197e+18
14231.0	1.4358186970578941e+18
14232.0	1.4355277314785277e+18
14233.0	1.4352219633614845e+18
14234.0	1.4349273588039677e+18
14235.0	1.4346270533484544e+18
14236.0	1.434329542977126e+18
14237.0	1.434030259254067e+18
14238.0	1.4337321079930875e+18
14239.0	1.4334296131108864e+18
14240.0	1.432249091017933e+18
14241.0	1.4328353959968765e+18
14242.0	1.4325380433313792e+18
14243.0	1.4321580712656893e+18
14244.0	1.4319419203256315e+18
14245.0	1.4316331323097085e+18
14246.0	1.4313277148364797e+18
14247.0	1.4310451445759997e+18
14248.0	1.4307403579260925e+18
14249.0	1.4304494259011581e+18
14250.0	1.4301527141253115e+18
14251.0	1.4298563261497344e+18
14252.0	1.4295585959968765e+18
14253.0	1.429260664517427e+18
14254.0	1.4289621508685821e+18
14255.0	1.428647797850112e+18
14256.0	1.4282024399405053e+18
14257.0	1.428066863258009e+18
14258.0	1.4277741578813435e+18
14259.0	1.4274671700606973e+18
14260.0	1.4271724816171008e+18
14261.0	1.4268728153735165e+18
14262.0	1.4265952497565693e+18
14263.0	1.42605128040448e+18
14264.0	1.4259654280347648e+18
14265.0	1.4257013412331515e+18
14266.0	1.425407072219955e+18
14267.0	1.4251116204130301e+18
14268.0	1.4248143331786747e+18
14269.0	1.4245140428226557e+18
14270.0	1.4242223105245181e+18
14271.0	1.4239234562981885e+18
14272.0	1.4236296822128637e+18
14273.0	1.4233309571710976e+18
14274.0	1.4226749562814467e+18
14275.0	1.4227064387272701e+18
14276.0	1.422428141623705e+18
14277.0	1.4221338591887357e+18
14278.0	1.4218504702001147e+18
14279.0	1.4215546107068413e+18
14280.0	1.421254635762483e+18
14281.0	1.4209633128284157e+18
14282.0	1.4206679381966845e+18
14283.0	1.4203724494798848e+18
14284.0	1.420077026194227e+18
14285.0	1.419781646529331e+18
14286.0	1.4194855253114877e+18
14287.0	1.419191189189427e+18
14288.0	1.4188959890407421e+18
14289.0	1.4180359788822508e+18
14290.0	1.4183036459417597e+18
14291.0	1.4180104724807677e+18
14292.0	1.4177150139629565e+18
14293.0	1.4174201376145408e+18
14294.0	1.4170532836540416e+18
14295.0	1.4168244004847616e+18
14296.0	1.4160811245174784e+18
14297.0	1.4162429273440253e+18
14298.0	1.4158331052556285e+18
14299.0	1.4156452558012413e+18
14300.0	1.4153545905340413e+18
14301.0	1.4150315787943936e+18
14302.0	1.4146445200326653e+18
14303.0	1.4143352572215293e+18
14304.0	1.4140495479439357e+18
14305.0	1.4137636104962048e+18
14306.0	1.4134433065992192e+18
14307.0	1.4131706348961787e+18
14308.0	1.4128839173079037e+18
14309.0	1.4125891181346813e+18
14310.0	1.412181386487398e+18
14311.0	1.4119094395600893e+18
14312.0	1.411688941643366e+18
14313.0	1.4113448275214336e+18
14314.0	1.4111209523511293e+18
14315.0	1.4108293458821117e+18
14316.0	1.4105093842403325e+18
14317.0	1.4102313455058941e+18
14318.0	1.4099507901890557e+18
14319.0	1.4096580848123901e+18
14320.0	1.4093649365172221e+18
14321.0	1.409070899029606e+18
14322.0	1.408751834968883e+18
14323.0	1.408477421790822e+18
14324.0	1.4081910078701563e+18
14325.0	1.407894217241395e+18
14326.0	1.407606444366233e+18
14327.0	1.4073107006357501e+18
14328.0	1.4070171329101821e+18
14329.0	1.4067294640537597e+18
14330.0	1.406437271221043e+18
14331.0	1.4061449332654075e+18
14332.0	1.405852597826355e+18
14333.0	1.4055609544474621e+18
14334.0	1.4052691885948925e+18
14335.0	1.4049646359871485e+18
14336.0	1.404663089017651e+18
14337.0	1.4043922074435581e+18
14338.0	1.4041007561637885e+18
14339.0	1.40380490170368e+18
14340.0	1.4035191278338045e+18
14341.0	1.4032254544117757e+18
14342.0	1.4029349216845821e+18
14343.0	1.4026397458628605e+18
14344.0	1.4023493205098493e+18
14345.0	1.4020627245563901e+18
14346.0	1.4017702750322685e+18
14347.0	1.4014678246096893e+18
14348.0	1.401189521634099e+18
14349.0	1.4008987447984125e+18
14350.0	1.4005944874696701e+18
14351.0	1.4003001731579901e+18
14352.0	1.400021026288435e+18
14353.0	1.3997348396990464e+18
14354.0	1.3994430503583741e+18
14355.0	1.3991497133195261e+18
14356.0	1.3988612240572413e+18
14357.0	1.3985740383846397e+18
14358.0	1.398283749765939e+18
14359.0	1.3979861529919485e+18
14360.0	1.3977018857160701e+18
14361.0	1.3974130156109821e+18
14362.0	1.3971233041285117e+18
14363.0	1.3968331891539965e+18
14364.0	1.3964978713264125e+18
14365.0	1.3962492665397245e+18
14366.0	1.3959549656498173e+18
14367.0	1.395674301281075e+18
14368.0	1.3953837475823613e+18
14369.0	1.3950951568179197e+18
14370.0	1.3948056919605245e+18
14371.0	1.3945163395104765e+18
14372.0	1.394223848043315e+18
14373.0	1.3939372252463101e+18
14374.0	1.3936483845013501e+18
14375.0	1.3933571630694397e+18
14376.0	1.3930699807522813e+18
14377.0	1.3927800226447357e+18
14378.0	1.392487926281011e+18
14379.0	1.392200494822195e+18
14380.0	1.3919115886460925e+18
14381.0	1.3916165185208317e+18
14382.0	1.3913334667542525e+18
14383.0	1.391037761611366e+18
14384.0	1.3907472766992381e+18
14385.0	1.3904686012694525e+18
14386.0	1.3901712997744637e+18
14387.0	1.389891656299315e+18
14388.0	1.3896013290930173e+18
14389.0	1.3893152423280637e+18
14390.0	1.3890257850204157e+18
14391.0	1.3887389013377021e+18
14392.0	1.388447196721971e+18
14393.0	1.388163129094963e+18
14394.0	1.3878556354412541e+18
14395.0	1.387579743351603e+18
14396.0	1.3872995411951613e+18
14397.0	1.3870120082341885e+18
14398.0	1.3867229661626365e+18
14399.0	1.3864367812509693e+18
14400.0	1.386137255097139e+18
14401.0	1.385858753311539e+18
14402.0	1.3855731858014208e+18
14403.0	1.383339619096981e+18
14404.0	1.3787883529830382e+18
14405.0	1.3839361120403415e+18
14406.0	1.384424854991667e+18
14407.0	1.3810467130572815e+18
14408.0	1.3838428642738173e+18
14409.0	1.3835537014063101e+18
14410.0	1.3832741946654717e+18
14411.0	1.382990369469235e+18
14412.0	1.382702481670144e+18
14413.0	1.3824179920961533e+18
14414.0	1.382130050609971e+18
14415.0	1.3818441752379387e+18
14416.0	1.3815561364439037e+18
14417.0	1.38126219542528e+18
14418.0	1.3809673811525632e+18
14419.0	1.3806984574795773e+18
14420.0	1.3804102886621181e+18
14421.0	1.3801266295603195e+18
14422.0	1.3798390060023805e+18
14423.0	1.3795512557764605e+18
14424.0	1.3670826788257692e+18
14425.0	1.3789810963513344e+18
14426.0	1.3786972912877565e+18
14427.0	1.3784112556933117e+18
14428.0	1.3781125558173693e+18
14429.0	1.3778395561197565e+18
14430.0	1.377555150431846e+18
14431.0	1.3771933497688061e+18
14432.0	1.3769757970923517e+18
14433.0	1.3743760827482094e+18
14434.0	1.3764057089703933e+18
14435.0	1.3761133693370365e+18
14436.0	1.3758431429132285e+18
14437.0	1.3755582079041533e+18
14438.0	1.3752115025412093e+18
14439.0	1.3749749605728253e+18
14440.0	1.3747026453856253e+18
14441.0	1.374413126841139e+18
14442.0	1.3741208123736061e+18
14443.0	1.3738145862385664e+18
14444.0	1.3735585164296192e+18
14445.0	1.3732765946085373e+18
14446.0	1.3703013759713295e+18
14447.0	1.372703624999731e+18
14448.0	1.3724234505256957e+18
14449.0	1.372139158922854e+18
14450.0	1.371851678810112e+18
14451.0	1.3715689424551936e+18
14452.0	1.3712857304662013e+18
14453.0	1.370964558348288e+18
14454.0	1.3707180314198013e+18
14455.0	1.370429626882457e+18
14456.0	1.3701421241204733e+18
14457.0	1.3698532556931072e+18
14458.0	1.369581074723635e+18
14459.0	1.3692955508342781e+18
14460.0	1.3690146532622333e+18
14461.0	1.3687212180766717e+18
14462.0	1.3683702286516221e+18
14463.0	1.3681626567409661e+18
14464.0	1.3678808624267261e+18
14465.0	1.3675843989536765e+18
14466.0	1.3673134922137597e+18
14467.0	1.3669970823086077e+18
14468.0	1.3667450306428923e+18
14469.0	1.3664516306894845e+18
14470.0	1.3661640885010427e+18
14471.0	1.3658911676563453e+18
14472.0	1.3656121742983165e+18
14473.0	1.365332727116595e+18
14474.0	1.365051167683379e+18
14475.0	1.3647657696231421e+18
14476.0	1.3643060143456256e+18
14477.0	1.3640849501978621e+18
14478.0	1.3638007634526205e+18
14479.0	1.363516222708121e+18
14480.0	1.3632284112453627e+18
14481.0	1.3629558343335933e+18
14482.0	1.3626718740807675e+18
14483.0	1.362385301615411e+18
14484.0	1.362106967601971e+18
14485.0	1.361802935087923e+18
14486.0	1.3613783591157757e+18
14487.0	1.3612631415848957e+18
14488.0	1.360970227331891e+18
14489.0	1.3606923119099901e+18
14490.0	1.3604139183374336e+18
14491.0	1.3601357042810877e+18
14492.0	1.3598541767245821e+18
14493.0	1.3595692828196864e+18
14494.0	1.359280270947123e+18
14495.0	1.3590103230251005e+18
14496.0	1.3586536478015485e+18
14497.0	1.3584464592502781e+18
14498.0	1.3581652286504957e+18
14499.0	1.3578850382381053e+18
14500.0	1.3576038806192125e+18
14501.0	1.3572604426190845e+18
14502.0	1.35685644222464e+18
14503.0	1.3567479339024381e+18
14504.0	1.3564767268503547e+18
14505.0	1.3561461552971773e+18
14506.0	1.3557864442363901e+18
14507.0	1.3555010772140032e+18
14508.0	1.3553568879476733e+18
14509.0	1.3550759979253757e+18
14510.0	1.3547940618436605e+18
14511.0	1.3545155650912253e+18
14512.0	1.354226453394227e+18
14513.0	1.3539547707080701e+18
14514.0	1.35364769480704e+18
14515.0	1.3533928363130877e+18
14516.0	1.3516957454172168e+18
14517.0	1.352833836253184e+18
14518.0	1.352553815290675e+18
14519.0	1.3522728707424256e+18
14520.0	1.35199041037271e+18
14521.0	1.351708519589478e+18
14522.0	1.3514302677843965e+18
14523.0	1.3510125453049853e+18
14524.0	1.3507280121102333e+18
14525.0	1.350588955833139e+18
14526.0	1.3503110848708608e+18
14527.0	1.3500257665023997e+18
14528.0	1.3496660478918653e+18
14529.0	1.3494683435007995e+18
14530.0	1.3491834621788157e+18
14531.0	1.348913952142131e+18
14532.0	1.3484194747383805e+18
14533.0	1.348356298453811e+18
14534.0	1.3480775928250365e+18
14535.0	1.3477923130441728e+18
14536.0	1.3475173596397565e+18
14537.0	1.3472322727968765e+18
14538.0	1.3469613459243005e+18
14539.0	1.346681949074227e+18
14540.0	1.346403779477504e+18
14541.0	1.34611323584512e+18
14542.0	1.3458452533739517e+18
14543.0	1.345476106806886e+18
14544.0	1.3452888370053117e+18
14545.0	1.344941133398016e+18
14546.0	1.3283754604756877e+18
14547.0	1.3300024234475377e+18
14548.0	1.3440298310959101e+18
14549.0	1.3436916946960381e+18
14550.0	1.3434761427025917e+18
14551.0	1.343202634655334e+18
14552.0	1.342923734410854e+18
14553.0	1.3426404083367933e+18
14554.0	1.3423684815421437e+18
14555.0	1.3420902280593405e+18
14556.0	1.3418089345449981e+18
14557.0	1.3415348359397373e+18
14558.0	1.3412569331007483e+18
14559.0	1.3399317469462487e+18
14560.0	1.3406930181554173e+18
14561.0	1.3404198313918461e+18
14562.0	1.340132363023155e+18
14563.0	1.339868000236339e+18
14564.0	1.3395836742402045e+18
14565.0	1.3393139653935101e+18
14566.0	1.3390365834870781e+18
14567.0	1.3387582100471808e+18
14568.0	1.3384654551777277e+18
14569.0	1.3382046843928573e+18
14570.0	1.3376310923493376e+18
14571.0	1.3376485146492925e+18
14572.0	1.3373468846325757e+18
14573.0	1.3370686697373693e+18
14574.0	1.3368002258927616e+18
14575.0	1.3365409591853053e+18
14576.0	1.3362623315705853e+18
14577.0	1.3359841267417083e+18
14578.0	1.3357100600131584e+18
14579.0	1.3354351007367168e+18
14580.0	1.335158504842854e+18
14581.0	1.3348779755307005e+18
14582.0	1.334605063074611e+18
14583.0	1.334328723872153e+18
14584.0	1.3340447728467965e+18
14585.0	1.3337757241835517e+18
14586.0	1.3334973633265661e+18
14587.0	1.3332200678227965e+18
14588.0	1.3329465564200957e+18
14589.0	1.3326801023533053e+18
14590.0	1.3324140459065344e+18
14591.0	1.3321455081095163e+18
14592.0	1.3318777982681083e+18
14593.0	1.3315506920488957e+18
14594.0	1.3313490366234621e+18
14595.0	1.331079163360051e+18
14596.0	1.3307677346103293e+18
14597.0	1.3305030195019773e+18
14598.0	1.330282284187648e+18
14599.0	1.3300207190015997e+18
14600.0	1.3297538606039037e+18
14601.0	1.3294893132677117e+18
14602.0	1.329216263238451e+18
14603.0	1.3289578412638208e+18
14604.0	1.3286669411155965e+18
14605.0	1.328415261065216e+18
14606.0	1.328114654458675e+18
14607.0	1.3278943838732285e+18
14608.0	1.3276284691939325e+18
14609.0	1.3273543756218365e+18
14610.0	1.3270759367507965e+18
14611.0	1.3268291539697661e+18
14612.0	1.3265655318970365e+18
14613.0	1.3263011229728765e+18
14614.0	1.3260334852734973e+18
14615.0	1.325768086493593e+18
14616.0	1.3255053938786301e+18
14617.0	1.3252395983175677e+18
14618.0	1.3249684986396667e+18
14619.0	1.3246921409822717e+18
14620.0	1.3243360722550784e+18
14621.0	1.3241797966823421e+18
14622.0	1.323913123672883e+18
14623.0	1.3236497415143421e+18
14624.0	1.323352513000243e+18
14625.0	1.3231179859755005e+18
14626.0	1.3228505227591677e+18
14627.0	1.3225809095426048e+18
14628.0	1.3223250075058173e+18
14629.0	1.3220601229475837e+18
14630.0	1.3217942493724672e+18
14631.0	1.3215295594299392e+18
14632.0	1.320200718358938e+18
14633.0	1.320912453999001e+18
14634.0	1.3207320016191483e+18
14635.0	1.3203198231707633e+18
14636.0	1.3195767049093117e+18
14637.0	1.3199418551435264e+18
14638.0	1.319674316429721e+18
14639.0	1.3194052820271101e+18
14640.0	1.3191456814530555e+18
14641.0	1.314917047074812e+18
14642.0	1.3186157688913917e+18
14643.0	1.3183535544270845e+18
14644.0	1.3180827986821117e+18
14645.0	1.3178106571390973e+18
14646.0	1.3175488780435453e+18
14647.0	1.3172834104770557e+18
