# Flux units: erg / (cm m2 s)
# Wavelength units: Angstrom
wave	flux
14000.0	1.8933864487452662e+18
14001.0	1.8931409896865795e+18
14002.0	1.8929245820551165e+18
14003.0	1.8925737889234941e+18
14004.0	1.892215724546457e+18
14005.0	1.8918666192027643e+18
14006.0	1.8915037699637243e+18
14007.0	1.891147015887257e+18
14008.0	1.8906840653889533e+18
14009.0	1.8904467583795197e+18
14010.0	1.8900792803065853e+18
14011.0	1.8890271022383104e+18
14012.0	1.8893849166348288e+18
14013.0	1.8890332158558205e+18
14014.0	1.8886730392272896e+18
14015.0	1.88832309837824e+18
14016.0	1.8879720166785021e+18
14017.0	1.8876184183963645e+18
14018.0	1.8872556211666941e+18
14019.0	1.8869111731781627e+18
14020.0	1.8865567477792765e+18
14021.0	1.8862020640112637e+18
14022.0	1.8858271318212603e+18
14023.0	1.8854521526550525e+18
14024.0	1.8851038492622843e+18
14025.0	1.884784711381811e+18
14026.0	1.8844349399826432e+18
14027.0	1.8840747264442365e+18
14028.0	1.8837071493857277e+18
14029.0	1.8833483199676408e+18
14030.0	1.8771604565655596e+18
14031.0	1.882485773094092e+18
14032.0	1.8822880670253056e+18
14033.0	1.8818596759142397e+18
14034.0	1.881584932225024e+18
14035.0	1.8812467203276797e+18
14036.0	1.8808773111971837e+18
14037.0	1.8805444713644027e+18
14038.0	1.880193877881651e+18
14039.0	1.8798374677381115e+18
14040.0	1.8794841680904187e+18
14041.0	1.879136206952857e+18
14042.0	1.878774709957427e+18
14043.0	1.878390028527206e+18
14044.0	1.878065359198617e+18
14045.0	1.877723189556019e+18
14046.0	1.8773755538964475e+18
14047.0	1.8769995227987965e+18
14048.0	1.8766702128922624e+18
14049.0	1.8763270299058173e+18
14050.0	1.8759765236645888e+18
14051.0	1.8756158554636283e+18
14052.0	1.8752703320555515e+18
14053.0	1.8749239194550272e+18
14054.0	1.8745734484459517e+18
14055.0	1.874222811342438e+18
14056.0	1.8738722027601917e+18
14057.0	1.8735217585946621e+18
14058.0	1.873171279196979e+18
14059.0	1.8728043631607803e+18
14060.0	1.8724703640223744e+18
14061.0	1.8721125932466173e+18
14062.0	1.8717698565341181e+18
14063.0	1.871399242799513e+18
14064.0	1.8699795782696965e+18
14065.0	1.8707094492413947e+18
14066.0	1.8703700193181696e+18
14067.0	1.8699749074927608e+18
14068.0	1.8696687115567104e+18
14069.0	1.8693093066801147e+18
14070.0	1.8689675849891837e+18
14071.0	1.8686193050845184e+18
14072.0	1.868273347146547e+18
14073.0	1.8679239884668925e+18
14074.0	1.867574314375577e+18
14075.0	1.8672008736800765e+18
14076.0	1.8668269682556928e+18
14077.0	1.8652074887610378e+18
14078.0	1.8660765552607227e+18
14079.0	1.8658159430205437e+18
14080.0	1.8654808483299328e+18
14081.0	1.8651327127093243e+18
14082.0	1.864781823947571e+18
14083.0	1.864432169988915e+18
14084.0	1.8640821083439104e+18
14085.0	1.8628607723175928e+18
14086.0	1.8632745806725115e+18
14087.0	1.863034740303462e+18
14088.0	1.8626647087382523e+18
14089.0	1.8623100501360637e+18
14090.0	1.8619783025000445e+18
14091.0	1.8616500059373563e+18
14092.0	1.8613031554514944e+18
14093.0	1.8609553117544443e+18
14094.0	1.8606068338786304e+18
14095.0	1.8602552404738045e+18
14096.0	1.8596616810266621e+18
14097.0	1.8594944356712443e+18
14098.0	1.8590984933736445e+18
14099.0	1.858867308370329e+18
14100.0	1.8585094805520384e+18
14101.0	1.8581771155144696e+18
14102.0	1.8578301375217661e+18
14103.0	1.8574662782943227e+18
14104.0	1.857133560935219e+18
14105.0	1.856789846111027e+18
14106.0	1.8564432405725181e+18
14107.0	1.856088959457689e+18
14108.0	1.8557282224701437e+18
14109.0	1.8553961090908155e+18
14110.0	1.8550493357801472e+18
14111.0	1.8546973833428984e+18
14112.0	1.8543516065988605e+18
14113.0	1.8539908041801728e+18
14114.0	1.8536512652050432e+18
14115.0	1.8533067551408125e+18
14116.0	1.852816026605977e+18
14117.0	1.842571731009538e+18
14118.0	1.8522407828455421e+18
14119.0	1.8517646588772347e+18
14120.0	1.8514481013325821e+18
14121.0	1.8511983707947003e+18
14122.0	1.850740762161971e+18
14123.0	1.8504447818727421e+18
14124.0	1.850083934155571e+18
14125.0	1.8493299945897981e+18
14126.0	1.8494986911743997e+18
14127.0	1.849170755321856e+18
14128.0	1.8488306895421435e+18
14129.0	1.8484747709710333e+18
14130.0	1.8481212901294077e+18
14131.0	1.8477969764777981e+18
14132.0	1.8474463796396032e+18
14133.0	1.8464932844535798e+18
14134.0	1.846756190139187e+18
14135.0	1.8463768505745405e+18
14136.0	1.8459319003512832e+18
14137.0	1.8457020122267643e+18
14138.0	1.8452752099180541e+18
14139.0	1.8450407802011645e+18
14140.0	1.8446886297927677e+18
14141.0	1.8442505263513597e+18
14142.0	1.843275333894144e+18
14143.0	1.8436526132166653e+18
14144.0	1.8433237529395197e+18
14145.0	1.8429809138860032e+18
14146.0	1.842617375103385e+18
14147.0	1.842284162816409e+18
14148.0	1.8419294824038397e+18
14149.0	1.8415917872447488e+18
14150.0	1.8412657841274872e+18
14151.0	1.8408949992652797e+18
14152.0	1.8405819448033272e+18
14153.0	1.840238776916377e+18
14154.0	1.8398671431270397e+18
14155.0	1.839209991320371e+18
14156.0	1.8391650199928824e+18
14157.0	1.8388667328364541e+18
14158.0	1.838518904238899e+18
14159.0	1.8381821385375741e+18
14160.0	1.8378317564477437e+18
14161.0	1.8374281922609147e+18
14162.0	1.8370319110635515e+18
14163.0	1.8367942735429627e+18
14164.0	1.836163601216307e+18
14165.0	1.836061238388326e+18
14166.0	1.835781844054835e+18
14167.0	1.8354261989523453e+18
14168.0	1.8350866683658235e+18
14169.0	1.8347515753529341e+18
14170.0	1.8344071256866816e+18
14171.0	1.8340729638092792e+18
14172.0	1.8337359464497147e+18
14173.0	1.8333544325578747e+18
14174.0	1.833043039040307e+18
14175.0	1.8327056458711035e+18
14176.0	1.8323686670991355e+18
14177.0	1.8320288697548797e+18
14178.0	1.8316876060819456e+18
14179.0	1.8313395275038712e+18
14180.0	1.8310063118614525e+18
14181.0	1.830665271325491e+18
14182.0	1.8303232560332797e+18
14183.0	1.8299827725008893e+18
14184.0	1.8296344791744507e+18
14185.0	1.8292892476899325e+18
14186.0	1.8271356772679685e+18
14187.0	1.8285622187786237e+18
14188.0	1.828272311841587e+18
14189.0	1.8279223240163325e+18
14190.0	1.8275844493410307e+18
14191.0	1.8272359597211643e+18
14192.0	1.826904904984166e+18
14193.0	1.8262654447517696e+18
14194.0	1.8262221058473984e+18
14195.0	1.8258995554811904e+18
14196.0	1.8255602916524027e+18
14197.0	1.825220670468915e+18
14198.0	1.8248749105020925e+18
14199.0	1.8245372153430013e+18
14200.0	1.8230329332465672e+18
14201.0	1.8237965801095163e+18
14202.0	1.8235170347810813e+18
14203.0	1.823175046332416e+18
14204.0	1.8228418139127803e+18
14205.0	1.8225026205483005e+18
14206.0	1.8220228844453888e+18
14207.0	1.821826768856678e+18
14208.0	1.821489107252019e+18
14209.0	1.8209960970158077e+18
14210.0	1.8207049166880763e+18
14211.0	1.8204673211105277e+18
14212.0	1.8201337430802427e+18
14213.0	1.819788085454438e+18
14214.0	1.8194566247088125e+18
14215.0	1.8190983170621437e+18
14216.0	1.8187097466732544e+18
14217.0	1.818361084248064e+18
14218.0	1.8180090345029624e+18
14219.0	1.817684043051827e+18
14220.0	1.817334082070118e+18
14221.0	1.816996495962931e+18
14222.0	1.8165914084048893e+18
14223.0	1.8163283517243387e+18
14224.0	1.8159852710789117e+18
14225.0	1.8121070749941788e+18
14226.0	1.815276885010022e+18
14227.0	1.8149651039387645e+18
14228.0	1.805726552109878e+18
14229.0	1.8127037734584246e+18
14230.0	1.8139607191257085e+18
14231.0	1.8135580743303165e+18
14232.0	1.8132915833536507e+18
14233.0	1.8129509253382141e+18
14234.0	1.8125489969299453e+18
14235.0	1.8121946705166333e+18
14236.0	1.8118601630285821e+18
14237.0	1.8115172300226552e+18
14238.0	1.8111803284258813e+18
14239.0	1.8108249165266936e+18
14240.0	1.8086556745072643e+18
14241.0	1.8101360708812792e+18
14242.0	1.809821731284582e+18
14243.0	1.8093221561237504e+18
14244.0	1.8091631014051835e+18
14245.0	1.808812611941171e+18
14246.0	1.8084730779992061e+18
14247.0	1.8081480798371837e+18
14248.0	1.807797825254195e+18
14249.0	1.8074749863198717e+18
14250.0	1.8071411834748925e+18
14251.0	1.8068074007625725e+18
14252.0	1.8064704706445307e+18
14253.0	1.8061322335813627e+18
14254.0	1.8057121841020925e+18
14255.0	1.8053223319339003e+18
14256.0	1.8012980616626204e+18
14257.0	1.8044479017582584e+18
14258.0	1.8043585999929341e+18
14259.0	1.8040053842313213e+18
14260.0	1.8035740017426432e+18
14261.0	1.8033295157624832e+18
14262.0	1.8030231956750333e+18
14263.0	1.7972875789074468e+18
14264.0	1.801204706521906e+18
14265.0	1.8020147876855803e+18
14266.0	1.80170114769879e+18
14267.0	1.8013703311982587e+18
14268.0	1.801031842476851e+18
14269.0	1.8006900872314877e+18
14270.0	1.800364335772467e+18
14271.0	1.8000257547763712e+18
14272.0	1.7996831606702075e+18
14273.0	1.7993017273090043e+18
14274.0	1.790792284766212e+18
14275.0	1.797810053290394e+18
14276.0	1.7983108481548288e+18
14277.0	1.7979171120611323e+18
14278.0	1.7975999505367037e+18
14279.0	1.7971897358614523e+18
14280.0	1.796747995119616e+18
14281.0	1.796421992002355e+18
14282.0	1.7960877831487485e+18
14283.0	1.7957530391019515e+18
14284.0	1.7954179427336187e+18
14285.0	1.7950810059046907e+18
14286.0	1.794738720499302e+18
14287.0	1.7944130176942077e+18
14288.0	1.7940768727498747e+18
14289.0	1.79255457863434e+18
14290.0	1.7934076614803456e+18
14291.0	1.7930754239496187e+18
14292.0	1.7927398343311355e+18
14293.0	1.792405076862566e+18
14294.0	1.7919135446990848e+18
14295.0	1.7917207426105344e+18
14296.0	1.7904430384939008e+18
14297.0	1.7910592522158077e+18
14298.0	1.7896507210465272e+18
14299.0	1.7903673313067003e+18
14300.0	1.7900593754406907e+18
14301.0	1.789730577239244e+18
14302.0	1.7893257950265341e+18
14303.0	1.7889409961558013e+18
14304.0	1.7886236920250365e+18
14305.0	1.788302572755353e+18
14306.0	1.7878998457516032e+18
14307.0	1.7875707875033085e+18
14308.0	1.7872581021401088e+18
14309.0	1.7868753802887165e+18
14310.0	1.7863014938050552e+18
14311.0	1.7853753059180536e+18
14312.0	1.785664464591257e+18
14313.0	1.7854230236758016e+18
14314.0	1.7852250625933307e+18
14315.0	1.7849496494931965e+18
14316.0	1.7845719910055939e+18
14317.0	1.7841820448849915e+18
14318.0	1.7839773712383997e+18
14319.0	1.7836524468961277e+18
14320.0	1.7833222008209405e+18
14321.0	1.782988884515225e+18
14322.0	1.7826147240771581e+18
14323.0	1.7823081556869115e+18
14324.0	1.7819976933048315e+18
14325.0	1.7816562752815096e+18
14326.0	1.7813358908538877e+18
14327.0	1.7809965716602877e+18
14328.0	1.7806648458346493e+18
14329.0	1.7803319590256635e+18
14330.0	1.7799279938633723e+18
14331.0	1.7795880270692347e+18
14332.0	1.7792639399100416e+18
14333.0	1.7789319657816061e+18
14334.0	1.778599781937971e+18
14335.0	1.7782508611436541e+18
14336.0	1.7775616849870848e+18
14337.0	1.777599794433228e+18
14338.0	1.7772687044640763e+18
14339.0	1.7769230535491581e+18
14340.0	1.7766048132497405e+18
14341.0	1.7762533171527677e+18
14342.0	1.7759432037367803e+18
14343.0	1.7756116909817856e+18
14344.0	1.7752708014407677e+18
14345.0	1.7749455096774653e+18
14346.0	1.7745987028123648e+18
14347.0	1.7741512074854395e+18
14348.0	1.7739401081651197e+18
14349.0	1.7736220255715325e+18
14350.0	1.772992255859097e+18
14351.0	1.7726394159071227e+18
14352.0	1.772622532994662e+18
14353.0	1.7723015345209341e+18
14354.0	1.7719339171971072e+18
14355.0	1.771528926946918e+18
14356.0	1.7712235077959677e+18
14357.0	1.7709796828381181e+18
14358.0	1.7706517721513981e+18
14359.0	1.7703041885011963e+18
14360.0	1.769964085811609e+18
14361.0	1.769644379183513e+18
14362.0	1.7692489519464443e+18
14363.0	1.768915301774131e+18
14364.0	1.7676427868504067e+18
14365.0	1.768057811553484e+18
14366.0	1.76775580656599e+18
14367.0	1.7675982081097725e+18
14368.0	1.7672680442429435e+18
14369.0	1.7669386303176704e+18
14370.0	1.7666092918898688e+18
14371.0	1.7662804936884221e+18
14372.0	1.7659432565473275e+18
14373.0	1.7656127705579517e+18
14374.0	1.7652897386856448e+18
14375.0	1.7649578065002493e+18
14376.0	1.7646303185993728e+18
14377.0	1.7642996228947965e+18
14378.0	1.763967289733939e+18
14379.0	1.7636405970731005e+18
14380.0	1.7633097705062397e+18
14381.0	1.762967157945139e+18
14382.0	1.762649565246259e+18
14383.0	1.7623174317342717e+18
14384.0	1.7619706986889208e+18
14385.0	1.761662704235315e+18
14386.0	1.7613123926097917e+18
14387.0	1.761003413333606e+18
14388.0	1.7606719827869693e+18
14389.0	1.7603445586395133e+18
14390.0	1.7600130861498365e+18
14391.0	1.759686406910771e+18
14392.0	1.759355786703667e+18
14393.0	1.7590281142534144e+18
14394.0	1.7586538632183805e+18
14395.0	1.7583472814063613e+18
14396.0	1.7580400368943104e+18
14397.0	1.7577123627663357e+18
14398.0	1.7573155883188221e+18
14399.0	1.7568495726231547e+18
14400.0	1.75649523278807e+18
14401.0	1.756182898068684e+18
14402.0	1.7558571147329528e+18
14403.0	1.7545882052329454e+18
14404.0	1.7505413310185444e+18
14405.0	1.752893538644782e+18
14406.0	1.7545368065540093e+18
14407.0	1.7528539981021187e+18
14408.0	1.7538291335167995e+18
14409.0	1.7535358560370688e+18
14410.0	1.7531607376199675e+18
14411.0	1.7528997244043261e+18
14412.0	1.7525707584307197e+18
14413.0	1.7522468356882432e+18
14414.0	1.7519151501279232e+18
14415.0	1.7515876706156541e+18
14416.0	1.7512443768995835e+18
14417.0	1.7508709563367421e+18
14418.0	1.7504907242242043e+18
14419.0	1.7502693169823744e+18
14420.0	1.7499381666152448e+18
14421.0	1.7496136533147643e+18
14422.0	1.7492735070044157e+18
14423.0	1.7488689613504507e+18
14424.0	1.7428442412744668e+18
14425.0	1.748261495268966e+18
14426.0	1.7479706219642877e+18
14427.0	1.7476469190033405e+18
14428.0	1.7472949749547003e+18
14429.0	1.7469886095687675e+18
14430.0	1.746655945896755e+18
14431.0	1.7447124882948104e+18
14432.0	1.745999007160729e+18
14433.0	1.7446399301910518e+18
14434.0	1.7453262558986235e+18
14435.0	1.744827684015308e+18
14436.0	1.7446930082693117e+18
14437.0	1.7443721675014141e+18
14438.0	1.7438547145392125e+18
14439.0	1.7436667845541888e+18
14440.0	1.743313488261939e+18
14441.0	1.7429763954049021e+18
14442.0	1.7426412302499837e+18
14443.0	1.742264700869017e+18
14444.0	1.7419967334973437e+18
14445.0	1.7416725809070077e+18
14446.0	1.7394904103649288e+18
14447.0	1.7409986065858557e+18
14448.0	1.7406918922338304e+18
14449.0	1.7403623256358907e+18
14450.0	1.7400302307115005e+18
14451.0	1.7397040514334715e+18
14452.0	1.7393784996233216e+18
14453.0	1.739035452532326e+18
14454.0	1.7387147560484861e+18
14455.0	1.7383816091926528e+18
14456.0	1.7380428268699643e+18
14457.0	1.7377222864142333e+18
14458.0	1.737386057583821e+18
14459.0	1.737040361370419e+18
14460.0	1.7366680011276285e+18
14461.0	1.7361194985717752e+18
14462.0	1.7351772079128576e+18
14463.0	1.7355966064361464e+18
14464.0	1.7353852487467003e+18
14465.0	1.7350622806278144e+18
14466.0	1.734776349890969e+18
14467.0	1.7344273888313341e+18
14468.0	1.7341316518117376e+18
14469.0	1.7336646965919736e+18
14470.0	1.7334415864627197e+18
14471.0	1.7331542632169464e+18
14472.0	1.7328332412551163e+18
14473.0	1.7325120246775803e+18
14474.0	1.732192920351539e+18
14475.0	1.7318642647564285e+18
14476.0	1.7314720738443261e+18
14477.0	1.7312066113110016e+18
14478.0	1.7308864751861757e+18
14479.0	1.7305519307882493e+18
14480.0	1.7302128749969405e+18
14481.0	1.7299120863576061e+18
14482.0	1.7295813805867005e+18
14483.0	1.7292467808239613e+18
14484.0	1.7289207206641661e+18
14485.0	1.7285579787993085e+18
14486.0	1.7279107138060288e+18
14487.0	1.727948509518233e+18
14488.0	1.7275388300361725e+18
14489.0	1.7270791745830907e+18
14490.0	1.7268675333586936e+18
14491.0	1.7265750041427965e+18
14492.0	1.7262493634134013e+18
14493.0	1.7258961325522941e+18
14494.0	1.725565507312025e+18
14495.0	1.7252686881619963e+18
14496.0	1.7247782817497085e+18
14497.0	1.7246175409209336e+18
14498.0	1.724203272870297e+18
14499.0	1.7237241575243776e+18
14500.0	1.7233975604936704e+18
14501.0	1.7230352732913661e+18
14502.0	1.722423502176256e+18
14503.0	1.7223776701775867e+18
14504.0	1.722086270068326e+18
14505.0	1.7217385639444477e+18
14506.0	1.7213820866920448e+18
14507.0	1.7208108862406653e+18
14508.0	1.7207896244748288e+18
14509.0	1.7204647957626875e+18
14510.0	1.7201349456297981e+18
14511.0	1.71981277275095e+18
14512.0	1.719468009350758e+18
14513.0	1.7191607379951613e+18
14514.0	1.7187943722516475e+18
14515.0	1.7185045726887933e+18
14516.0	1.7151336910946327e+18
14517.0	1.7178447667265539e+18
14518.0	1.717531534426112e+18
14519.0	1.7172023235051523e+18
14520.0	1.7168801724366843e+18
14521.0	1.7165547028348925e+18
14522.0	1.7162193145430013e+18
14523.0	1.715699323188019e+18
14524.0	1.7155005953867776e+18
14525.0	1.7152447109660672e+18
14526.0	1.7149186457731072e+18
14527.0	1.7145748688732152e+18
14528.0	1.714098905966182e+18
14529.0	1.713936113283891e+18
14530.0	1.7136015705636861e+18
14531.0	1.7132954719354875e+18
14532.0	1.7128839033389056e+18
14533.0	1.712645848065638e+18
14534.0	1.7123223950852096e+18
14535.0	1.7119832637964285e+18
14536.0	1.711666087172505e+18
14537.0	1.7113274038353915e+18
14538.0	1.7110195939311613e+18
14539.0	1.7106941528506365e+18
14540.0	1.7103683980361723e+18
14541.0	1.7100146454036477e+18
14542.0	1.70971376952279e+18
14543.0	1.7093356563726333e+18
14544.0	1.709062357201715e+18
14545.0	1.7086655223562237e+18
14546.0	1.701392691494908e+18
14547.0	1.7016150365831112e+18
14548.0	1.7076646355927037e+18
14549.0	1.7072114712444923e+18
14550.0	1.7070261165621248e+18
14551.0	1.7067125906604024e+18
14552.0	1.7063855825879035e+18
14553.0	1.7060507362000893e+18
14554.0	1.7057352809185275e+18
14555.0	1.7054088315273216e+18
14556.0	1.7050810131152893e+18
14557.0	1.7047553807745021e+18
14558.0	1.7044228043440123e+18
14559.0	1.7018270905270228e+18
14560.0	1.7037449913958397e+18
14561.0	1.7034390739615741e+18
14562.0	1.703061086640537e+18
14563.0	1.7027767732273147e+18
14564.0	1.7023283266322432e+18
14565.0	1.7021446849036285e+18
14566.0	1.7018200088641533e+18
14567.0	1.701482546908364e+18
14568.0	1.701087738750566e+18
14569.0	1.7008296548368381e+18
14570.0	1.699833653598617e+18
14571.0	1.7001792122388475e+18
14572.0	1.6997745592107005e+18
14573.0	1.6994508344393723e+18
14574.0	1.6989177753108477e+18
14575.0	1.6988220327723003e+18
14576.0	1.6984930869313533e+18
14577.0	1.6982218496802813e+18
14578.0	1.697894506063462e+18
14579.0	1.6975772052881405e+18
14580.0	1.6972479473909752e+18
14581.0	1.696905391872409e+18
14582.0	1.6965712467722235e+18
14583.0	1.6962715486519293e+18
14584.0	1.6958683552415741e+18
14585.0	1.6956170325458944e+18
14586.0	1.695289365128806e+18
14587.0	1.6949654323199997e+18
14588.0	1.694639813400985e+18
14589.0	1.6943180163317757e+18
14590.0	1.6939965262856187e+18
14591.0	1.6936581617156093e+18
14592.0	1.6933355828281341e+18
14593.0	1.6928819621396477e+18
14594.0	1.6927051269275648e+18
14595.0	1.6923711714099197e+18
14596.0	1.6911918253998065e+18
14597.0	1.6906760988131313e+18
14598.0	1.691311779138764e+18
14599.0	1.691085389063782e+18
14600.0	1.690740580365107e+18
14601.0	1.6904247777951736e+18
14602.0	1.6900572175138816e+18
14603.0	1.6897733184978941e+18
14604.0	1.6893435768209405e+18
14605.0	1.6889555198148603e+18
14606.0	1.688699301527552e+18
14607.0	1.6884795887845368e+18
14608.0	1.6881550368964605e+18
14609.0	1.6877988381458432e+18
14610.0	1.6872149021097981e+18
14611.0	1.6870505474686976e+18
14612.0	1.686801925904793e+18
14613.0	1.6864926446387195e+18
14614.0	1.6861630176428032e+18
14615.0	1.685844559239577e+18
14616.0	1.6855322043875323e+18
14617.0	1.685192396976947e+18
14618.0	1.68482351129559e+18
14619.0	1.6838936156438508e+18
14620.0	1.6819622980354048e+18
14621.0	1.683907893054668e+18
14622.0	1.6835872385138685e+18
14623.0	1.6832683321589757e+18
14624.0	1.682871822791475e+18
14625.0	1.682616153119129e+18
14626.0	1.682286172123955e+18
14627.0	1.68195964052439e+18
14628.0	1.6816471967531003e+18
14629.0	1.6813205460353021e+18
14630.0	1.6809705548546048e+18
14631.0	1.680665425949491e+18
14632.0	1.67976909144064e+18
14633.0	1.6797133105528824e+18
14634.0	1.6794475074420733e+18
14635.0	1.6787185843830764e+18
14636.0	1.6776605275783163e+18
14637.0	1.678501953614643e+18
14638.0	1.678120565551923e+18
14639.0	1.6777853299326976e+18
14640.0	1.6775138259238907e+18
14641.0	1.675451828902296e+18
14642.0	1.6768560013508605e+18
14643.0	1.676529991522713e+18
14644.0	1.6761805774782461e+18
14645.0	1.675847787977113e+18
14646.0	1.6754877254336512e+18
14647.0	1.675055775875072e+18
