# Flux units: erg / (cm m2 s)
# Wavelength units: Angstrom
wave	flux
14000.0	2.4633689497403377e+18
14001.0	2.4629814866477056e+18
14002.0	2.4625350549962747e+18
14003.0	2.4619711392120827e+18
14004.0	2.4613811768000507e+18
14005.0	2.4608212388937723e+18
14006.0	2.460222243628646e+18
14007.0	2.459636034279833e+18
14008.0	2.458767378821939e+18
14009.0	2.458511965840998e+18
14010.0	2.457890410253517e+18
14011.0	2.455696504048845e+18
14012.0	2.456775540762214e+18
14013.0	2.456212044408422e+18
14014.0	2.4556132135600123e+18
14015.0	2.454925184965017e+18
14016.0	2.4543496023048187e+18
14017.0	2.4537763919429627e+18
14018.0	2.453203386263142e+18
14019.0	2.45263054667776e+18
14020.0	2.452049091991961e+18
14021.0	2.451473865008742e+18
14022.0	2.4508356311908347e+18
14023.0	2.450005828409753e+18
14024.0	2.4495745734279163e+18
14025.0	2.4491603674529787e+18
14026.0	2.448599184677273e+18
14027.0	2.4480276419706875e+18
14028.0	2.4474334013685755e+18
14029.0	2.4468586105929723e+18
14030.0	2.4287523505176724e+18
14031.0	2.4454101429387244e+18
14032.0	2.445081354803609e+18
14033.0	2.4441711824470016e+18
14034.0	2.443824363837849e+18
14035.0	2.4432903735738363e+18
14036.0	2.4426648904400896e+18
14037.0	2.4421480062255104e+18
14038.0	2.4415902023811067e+18
14039.0	2.441011890067865e+18
14040.0	2.440426311542374e+18
14041.0	2.4398748293529595e+18
14042.0	2.439274748601958e+18
14043.0	2.438631443031654e+18
14044.0	2.438145049729433e+18
14045.0	2.4375871116673024e+18
14046.0	2.437007866540851e+18
14047.0	2.436353128975565e+18
14048.0	2.4358622779670523e+18
14049.0	2.435315837331046e+18
14050.0	2.434744593258905e+18
14051.0	2.4341284298686464e+18
14052.0	2.4335036731883515e+18
14053.0	2.4329071693398016e+18
14054.0	2.4323414583934976e+18
14055.0	2.4317630202511355e+18
14056.0	2.431202748478258e+18
14057.0	2.430627664101376e+18
14058.0	2.430059352686592e+18
14059.0	2.429461644233933e+18
14060.0	2.4289237448785915e+18
14061.0	2.4283369533603835e+18
14062.0	2.427786724429005e+18
14063.0	2.4271638618963963e+18
14064.0	2.424285839543502e+18
14065.0	2.4260565018869755e+18
14066.0	2.425502976232653e+18
14067.0	2.424454648535449e+18
14068.0	2.424369249150566e+18
14069.0	2.4237491850575867e+18
14070.0	2.4232232059142134e+18
14071.0	2.422663311628697e+18
14072.0	2.422099959558963e+18
14073.0	2.421531871281152e+18
14074.0	2.4209568204587003e+18
14075.0	2.4201984852623355e+18
14076.0	2.4191984524591104e+18
14077.0	2.414703269222811e+18
14078.0	2.418229137060659e+18
14079.0	2.4179670232596475e+18
14080.0	2.4174440271052795e+18
14081.0	2.416878893295206e+18
14082.0	2.416269568298188e+18
14083.0	2.4157346217328635e+18
14084.0	2.4151713803927547e+18
14085.0	2.4110020543119355e+18
14086.0	2.4136634660290555e+18
14087.0	2.4134798863761403e+18
14088.0	2.412814277174886e+18
14089.0	2.411917172591821e+18
14090.0	2.4117102373765115e+18
14091.0	2.4112187236679675e+18
14092.0	2.4106521654722555e+18
14093.0	2.4100926788730875e+18
14094.0	2.4095250502909947e+18
14095.0	2.4089463202250747e+18
14096.0	2.4074923395776507e+18
14097.0	2.4073877101477883e+18
14098.0	2.4068209757913083e+18
14099.0	2.406669432232345e+18
14100.0	2.4059423731220475e+18
14101.0	2.405462118603161e+18
14102.0	2.4048924583002107e+18
14103.0	2.4043001772769275e+18
14104.0	2.403763514402406e+18
14105.0	2.4032040932343803e+18
14106.0	2.4026470510755835e+18
14107.0	2.402066712074649e+18
14108.0	2.4014294060367867e+18
14109.0	2.4009356844466176e+18
14110.0	2.400327300651417e+18
14111.0	2.3997155983228923e+18
14112.0	2.3992113741955067e+18
14113.0	2.3984013232308224e+18
14114.0	2.3980658594414587e+18
14115.0	2.397498418764185e+18
14116.0	2.3959450347896817e+18
14117.0	2.369113461411027e+18
14118.0	2.3958030710210555e+18
14119.0	2.3947136609550326e+18
14120.0	2.394242149043404e+18
14121.0	2.3940169803497467e+18
14122.0	2.3933059887792123e+18
14123.0	2.3922209038794747e+18
14124.0	2.3916263042449403e+18
14125.0	2.390462232212274e+18
14126.0	2.391162437710643e+18
14127.0	2.3907200476905467e+18
14128.0	2.3901600040878075e+18
14129.0	2.389565917836082e+18
14130.0	2.3889732844912635e+18
14131.0	2.388451397310873e+18
14132.0	2.3879048727887867e+18
14133.0	2.3856800260423644e+18
14134.0	2.3868061463347195e+18
14135.0	2.3859442101518326e+18
14136.0	2.384094468400743e+18
14137.0	2.385020671387238e+18
14138.0	2.384156777303245e+18
14139.0	2.3840037758042107e+18
14140.0	2.383356483967385e+18
14141.0	2.382529954421145e+18
14142.0	2.379682510222132e+18
14143.0	2.3816653003292667e+18
14144.0	2.3812282018430976e+18
14145.0	2.3806776088461307e+18
14146.0	2.380067377879449e+18
14147.0	2.3795252070449147e+18
14148.0	2.378848821837823e+18
14149.0	2.378234522396262e+18
14150.0	2.3778981241159675e+18
14151.0	2.3770189241778176e+18
14152.0	2.3767851571609595e+18
14153.0	2.376235403024793e+18
14154.0	2.3755894449766395e+18
14155.0	2.373595655726695e+18
14156.0	2.374394351871589e+18
14157.0	2.3740007265075195e+18
14158.0	2.3733933795442683e+18
14159.0	2.3727836183396347e+18
14160.0	2.3722129581146107e+18
14161.0	2.3714640735240187e+18
14162.0	2.3707688777023483e+18
14163.0	2.3705185951940603e+18
14164.0	2.368918067242598e+18
14165.0	2.3685769814081536e+18
14166.0	2.368854107462041e+18
14167.0	2.368280083405209e+18
14168.0	2.367616425394176e+18
14169.0	2.3671943811039227e+18
14170.0	2.3665754830274555e+18
14171.0	2.366086450669158e+18
14172.0	2.365573285963366e+18
14173.0	2.3646205380657147e+18
14174.0	2.3643523039363067e+18
14175.0	2.3638334265884667e+18
14176.0	2.3632630767419387e+18
14177.0	2.362733373056614e+18
14178.0	2.362182149236326e+18
14179.0	2.361560004768563e+18
14180.0	2.3610889693298683e+18
14181.0	2.3605328599842816e+18
14182.0	2.359980218489241e+18
14183.0	2.3594279746142203e+18
14184.0	2.3588552675688443e+18
14185.0	2.3582962104664054e+18
14186.0	2.3517832448835604e+18
14187.0	2.3570862695251963e+18
14188.0	2.3566474664738806e+18
14189.0	2.356049625481216e+18
14190.0	2.355515297995161e+18
14191.0	2.3549364907540475e+18
14192.0	2.3544216651038715e+18
14193.0	2.3528641874886656e+18
14194.0	2.3533016567513083e+18
14195.0	2.352698025941401e+18
14196.0	2.3521492213956603e+18
14197.0	2.3515946186440704e+18
14198.0	2.3510338620096507e+18
14199.0	2.350466000224256e+18
14200.0	2.3464935581286426e+18
14201.0	2.3492682865180657e+18
14202.0	2.3488371456212987e+18
14203.0	2.348201270679961e+18
14204.0	2.3476968334819323e+18
14205.0	2.3471871668256763e+18
14206.0	2.346247822245888e+18
14207.0	2.346098942908825e+18
14208.0	2.3455503195570176e+18
14209.0	2.34456716798853e+18
14210.0	2.344169754329087e+18
14211.0	2.3438794329948155e+18
14212.0	2.3433507040657403e+18
14213.0	2.342708811137024e+18
14214.0	2.3422558095278075e+18
14215.0	2.341656899826483e+18
14216.0	2.3411511019962363e+18
14217.0	2.3406161017438203e+18
14218.0	2.340025706479616e+18
14219.0	2.3395142815711227e+18
14220.0	2.3389470204100603e+18
14221.0	2.3383145294331894e+18
14222.0	2.3371156547436544e+18
14223.0	2.337306817698201e+18
14224.0	2.336772552287846e+18
14225.0	2.3271219319013453e+18
14226.0	2.3356366978547707e+18
14227.0	2.335129831315865e+18
14228.0	2.316660800854431e+18
14229.0	2.331004580659185e+18
14230.0	2.3334973645783035e+18
14231.0	2.332214187733811e+18
14232.0	2.33241154986967e+18
14233.0	2.331838644853145e+18
14234.0	2.331320051040255e+18
14235.0	2.3306948564746235e+18
14236.0	2.330117176662425e+18
14237.0	2.329549774572748e+18
14238.0	2.3290107712765947e+18
14239.0	2.328389791147622e+18
14240.0	2.3239522242265103e+18
14241.0	2.32728455848919e+18
14242.0	2.3268018377195515e+18
14243.0	2.325807817870541e+18
14244.0	2.3257582948843515e+18
14245.0	2.3251515938439163e+18
14246.0	2.324570961241702e+18
14247.0	2.324106242424832e+18
14248.0	2.323536662652518e+18
14249.0	2.3230185453125627e+18
14250.0	2.322483843694592e+18
14251.0	2.3219380976353275e+18
14252.0	2.321399975143014e+18
14253.0	2.32084023017472e+18
14254.0	2.320239223321395e+18
14255.0	2.3195958590308347e+18
14256.0	2.3094021031198797e+18
14257.0	2.3181990668795884e+18
14258.0	2.3180634499317755e+18
14259.0	2.317428014553497e+18
14260.0	2.3166888758476795e+18
14261.0	2.3163562826399744e+18
14262.0	2.315879566435942e+18
14263.0	2.301387549861489e+18
14264.0	2.3121565696655334e+18
14265.0	2.3141942179135483e+18
14266.0	2.313737191450214e+18
14267.0	2.313203239773798e+18
14268.0	2.3126450752192507e+18
14269.0	2.3120910714142715e+18
14270.0	2.311579631406284e+18
14271.0	2.3110150462111744e+18
14272.0	2.310475504366387e+18
14273.0	2.309873823068978e+18
14274.0	2.2889921383497848e+18
14275.0	2.3067185538662415e+18
14276.0	2.308195789412761e+18
14277.0	2.3077080438669307e+18
14278.0	2.3072483129163776e+18
14279.0	2.3067077090738166e+18
14280.0	2.3061469759275003e+18
14281.0	2.30563058328535e+18
14282.0	2.3050909911089147e+18
14283.0	2.3045500081012733e+18
14284.0	2.3039121316380667e+18
14285.0	2.303355282417254e+18
14286.0	2.3027975624589304e+18
14287.0	2.3022745931481083e+18
14288.0	2.3017354539565048e+18
14289.0	2.2986360998592456e+18
14290.0	2.3006385344086013e+18
14291.0	2.300115127212441e+18
14292.0	2.2995723406540795e+18
14293.0	2.2990327568662523e+18
14294.0	2.298053214076928e+18
14295.0	2.2978942717657083e+18
14296.0	2.2953243394965517e+18
14297.0	2.2968658317803515e+18
14298.0	2.2927223811997678e+18
14299.0	2.2956231903674365e+18
14300.0	2.295222446430617e+18
14301.0	2.2946875334197243e+18
14302.0	2.294153293175193e+18
14303.0	2.2934810502627323e+18
14304.0	2.293003558951321e+18
14305.0	2.292472895609241e+18
14306.0	2.2915497695641595e+18
14307.0	2.291126324376371e+18
14308.0	2.2906549299052536e+18
14309.0	2.2899274530422781e+18
14310.0	2.2880255727370227e+18
14311.0	2.2872305004707832e+18
14312.0	2.287457147237171e+18
14313.0	2.2876246241181693e+18
14314.0	2.2873218306015224e+18
14315.0	2.2869932068831227e+18
14316.0	2.286383579896217e+18
14317.0	2.2854666211557373e+18
14318.0	2.2855302521028605e+18
14319.0	2.2850248569257976e+18
14320.0	2.284501219881779e+18
14321.0	2.2839586245836795e+18
14322.0	2.283306715657011e+18
14323.0	2.2828628878295032e+18
14324.0	2.2823652286267387e+18
14325.0	2.281820193921433e+18
14326.0	2.2813264723312637e+18
14327.0	2.2807695375466496e+18
14328.0	2.2802330659323896e+18
14329.0	2.2797280163659773e+18
14330.0	2.279191543073996e+18
14331.0	2.278562914212249e+18
14332.0	2.2781245305913344e+18
14333.0	2.2775925502377981e+18
14334.0	2.2770597293457408e+18
14335.0	2.2764800094240765e+18
14336.0	2.274897936410214e+18
14337.0	2.2754444877758461e+18
14338.0	2.274911176989081e+18
14339.0	2.2742514515574781e+18
14340.0	2.2737401893879803e+18
14341.0	2.2731312301342715e+18
14342.0	2.2726701049970683e+18
14343.0	2.2721140828930045e+18
14344.0	2.271575522515353e+18
14345.0	2.271071469515571e+18
14346.0	2.2704935934099456e+18
14347.0	2.2696572307374077e+18
14348.0	2.2694271681298427e+18
14349.0	2.2689432410783744e+18
14350.0	2.2675731381223409e+18
14351.0	2.2669766846054387e+18
14352.0	2.267325895645593e+18
14353.0	2.2668262483427323e+18
14354.0	2.266189576483635e+18
14355.0	2.2654566403145723e+18
14356.0	2.2650057576677368e+18
14357.0	2.2647059387514875e+18
14358.0	2.264173206778675e+18
14359.0	2.263586178701721e+18
14360.0	2.2630377583542267e+18
14361.0	2.2625506486648827e+18
14362.0	2.2620457584820221e+18
14363.0	2.2615127161307136e+18
14364.0	2.2580964790108165e+18
14365.0	2.2599321144786918e+18
14366.0	2.2594831310127101e+18
14367.0	2.2593931195711483e+18
14368.0	2.2588618690265083e+18
14369.0	2.2582915695116283e+18
14370.0	2.2577308095217661e+18
14371.0	2.2572107879677947e+18
14372.0	2.2566536887664632e+18
14373.0	2.2561400895307773e+18
14374.0	2.2556163753115643e+18
14375.0	2.2550809170411515e+18
14376.0	2.2545532115222523e+18
14377.0	2.2540255278137344e+18
14378.0	2.253488853195161e+18
14379.0	2.2529668317970427e+18
14380.0	2.252434254174617e+18
14381.0	2.2518640871997437e+18
14382.0	2.251370410908057e+18
14383.0	2.250785632655769e+18
14384.0	2.250237631738675e+18
14385.0	2.2497869755842557e+18
14386.0	2.2491906244083712e+18
14387.0	2.2487199681347581e+18
14388.0	2.248182088912076e+18
14389.0	2.247666577073766e+18
14390.0	2.2471316690960381e+18
14391.0	2.2465716791803901e+18
14392.0	2.246064831096422e+18
14393.0	2.2455477002567677e+18
14394.0	2.2448761754091515e+18
14395.0	2.2440948604600315e+18
14396.0	2.2439332170170365e+18
14397.0	2.243429205960294e+18
14398.0	2.2428844061360123e+18
14399.0	2.2423292228927483e+18
14400.0	2.24164744045527e+18
14401.0	2.2412712063533056e+18
14402.0	2.240758024870297e+18
14403.0	2.2287311450406746e+18
14404.0	2.2097571858087872e+18
14405.0	2.2350458827833234e+18
14406.0	2.2385527420354557e+18
14407.0	2.2207927821533258e+18
14408.0	2.2369699224354808e+18
14409.0	2.2369361029234685e+18
14410.0	2.2362601472131067e+18
14411.0	2.2359206501810173e+18
14412.0	2.2353982680727547e+18
14413.0	2.23487967929303e+18
14414.0	2.2343462812647421e+18
14415.0	2.2338206343102461e+18
14416.0	2.2331298156642294e+18
14417.0	2.2322142494326781e+18
14418.0	2.23180136382464e+18
14419.0	2.231691110671974e+18
14420.0	2.231153655912857e+18
14421.0	2.2306364713861115e+18
14422.0	2.2300633381994493e+18
14423.0	2.229255011932569e+18
14424.0	2.168023609350524e+18
14425.0	2.228379957644492e+18
14426.0	2.2279882213949432e+18
14427.0	2.2274789020270587e+18
14428.0	2.2268750262697981e+18
14429.0	2.226424569764249e+18
14430.0	2.2258996643627005e+18
14431.0	2.220981544288258e+18
14432.0	2.2247805955342333e+18
14433.0	2.2113463723622323e+18
14434.0	2.223715935217254e+18
14435.0	2.222612826554367e+18
14436.0	2.222724760784076e+18
14437.0	2.222217978131251e+18
14438.0	2.2208983527849984e+18
14439.0	2.2210227055099896e+18
14440.0	2.2206444346540027e+18
14441.0	2.2201068054118395e+18
14442.0	2.2195693271646205e+18
14443.0	2.2189193241296896e+18
14444.0	2.2185233348558843e+18
14445.0	2.2180065378828283e+18
14446.0	2.2030843719450683e+18
14447.0	2.2168861419765752e+18
14448.0	2.216429846999859e+18
14449.0	2.2158967140515837e+18
14450.0	2.2153528654954493e+18
14451.0	2.214824267428659e+18
14452.0	2.2142825915219965e+18
14453.0	2.2134969077858307e+18
14454.0	2.2132220500115456e+18
14455.0	2.212673503834931e+18
14456.0	2.2120586893328381e+18
14457.0	2.2114864335945723e+18
14458.0	2.2108783920545787e+18
14459.0	2.2103718124060667e+18
14460.0	2.2096999285260283e+18
14461.0	2.2085138078760952e+18
14462.0	2.2068338834276352e+18
14463.0	2.2078053647646715e+18
14464.0	2.20768830006231e+18
14465.0	2.2072507653685245e+18
14466.0	2.2068294592757757e+18
14467.0	2.2061151391055872e+18
14468.0	2.205810917847859e+18
14469.0	2.2049497483837437e+18
14470.0	2.204705596270182e+18
14471.0	2.2042757908398077e+18
14472.0	2.2037683589087224e+18
14473.0	2.203271676139929e+18
14474.0	2.202766192043622e+18
14475.0	2.2022203721646077e+18
14476.0	2.2008461403357187e+18
14477.0	2.201175582782259e+18
14478.0	2.200665788619161e+18
14479.0	2.2001117328048123e+18
14480.0	2.199564901259673e+18
14481.0	2.199030818720972e+18
14482.0	2.1984858695794683e+18
14483.0	2.1979380381122557e+18
14484.0	2.1974254689976312e+18
14485.0	2.1967948453249021e+18
14486.0	2.1954529079590915e+18
14487.0	2.1958170490437624e+18
14488.0	2.1942876799762437e+18
14489.0	2.194348895004262e+18
14490.0	2.1942198647914493e+18
14491.0	2.1937812060241917e+18
14492.0	2.1932552872787963e+18
14493.0	2.1926410515906555e+18
14494.0	2.1921224057683965e+18
14495.0	2.1916810827792376e+18
14496.0	2.190728452322099e+18
14497.0	2.1906295707664381e+18
14498.0	2.1901099199889405e+18
14499.0	2.1895937840381947e+18
14500.0	2.189068573291315e+18
14501.0	2.1880931023323133e+18
14502.0	2.1865379215179784e+18
14503.0	2.187143334068223e+18
14504.0	2.1868600423874552e+18
14505.0	2.1859221255487478e+18
14506.0	2.1849236748369915e+18
14507.0	2.1845311316033536e+18
14508.0	2.184785506074624e+18
14509.0	2.1842604211568637e+18
14510.0	2.1837323817713661e+18
14511.0	2.1832150965813245e+18
14512.0	2.182631220943257e+18
14513.0	2.1821643395432443e+18
14514.0	2.1814969234358272e+18
14515.0	2.1811071652200443e+18
14516.0	2.1744622686437425e+18
14517.0	2.1800595555876861e+18
14518.0	2.1795404668469243e+18
14519.0	2.1790105870008315e+18
14520.0	2.1784890823409661e+18
14521.0	2.1779606570795005e+18
14522.0	2.177340710427033e+18
14523.0	2.1753633108393974e+18
14524.0	2.1753217721303027e+18
14525.0	2.1758395824472061e+18
14526.0	2.1753145075957755e+18
14527.0	2.1747295682822136e+18
14528.0	2.173777667633971e+18
14529.0	2.173728290609561e+18
14530.0	2.1731738371751933e+18
14531.0	2.1727029778972662e+18
14532.0	2.170842644689715e+18
14533.0	2.1716541334618112e+18
14534.0	2.1711397456969725e+18
14535.0	2.1705738753671165e+18
14536.0	2.1700733942366203e+18
14537.0	2.1695124966735867e+18
14538.0	2.16903418160087e+18
14539.0	2.1685080665620477e+18
14540.0	2.1679840100876283e+18
14541.0	2.167373173463449e+18
14542.0	2.166915912119091e+18
14543.0	2.1657486306050043e+18
14544.0	2.1658664100167675e+18
14545.0	2.1652192993738752e+18
14546.0	2.1134861146259246e+18
14547.0	2.117492423209752e+18
14548.0	2.163634271892275e+18
14549.0	2.1627777077739515e+18
14550.0	2.1626077059219453e+18
14551.0	2.1621178464468987e+18
14552.0	2.1615781267636221e+18
14553.0	2.1610352932290555e+18
14554.0	2.16053397323776e+18
14555.0	2.160003731003801e+18
14556.0	2.1594503966097405e+18
14557.0	2.158939062298214e+18
14558.0	2.1583759165882363e+18
14559.0	2.152784729840016e+18
14560.0	2.1568104429518843e+18
14561.0	2.1567752359641083e+18
14562.0	2.1561072175546365e+18
14563.0	2.1557045559820285e+18
14564.0	2.1547839465193472e+18
14565.0	2.1547225519751165e+18
14566.0	2.154195955430195e+18
14567.0	2.1535875162701821e+18
14568.0	2.152342749184e+18
14569.0	2.1525184871661565e+18
14570.0	2.150204046730854e+18
14571.0	2.1514646062104573e+18
14572.0	2.1504099400810496e+18
14573.0	2.1500723791396861e+18
14574.0	2.148789767687372e+18
14575.0	2.149082833774182e+18
14576.0	2.1486141186244605e+18
14577.0	2.1482682361839608e+18
14578.0	2.1477655555604477e+18
14579.0	2.14724633427968e+18
14580.0	2.1467094767894525e+18
14581.0	2.1461209370853368e+18
14582.0	2.1455846818971643e+18
14583.0	2.1451324335849467e+18
14584.0	2.1444030910955515e+18
14585.0	2.144073140299366e+18
14586.0	2.1435360110182395e+18
14587.0	2.1429983951978493e+18
14588.0	2.1424769693908984e+18
14589.0	2.1419682540027901e+18
14590.0	2.141456595890995e+18
14591.0	2.1408756327776253e+18
14592.0	2.1403734101721088e+18
14593.0	2.1395202048524283e+18
14594.0	2.1393743957458944e+18
14595.0	2.1388341727461373e+18
14596.0	2.136161273669219e+18
14597.0	2.135253951761609e+18
14598.0	2.1370616380653558e+18
14599.0	2.1367587841507325e+18
14600.0	2.1361693535764477e+18
14601.0	2.1356608109936635e+18
14602.0	2.135032767656755e+18
14603.0	2.134572253210214e+18
14604.0	2.1338285813006333e+18
14605.0	2.1331226128285693e+18
14606.0	2.1327447681138683e+18
14607.0	2.1325271189684221e+18
14608.0	2.1319949708427261e+18
14609.0	2.1313116398682104e+18
14610.0	2.130444215857971e+18
14611.0	2.1302326518087675e+18
14612.0	2.1298881820098555e+18
14613.0	2.129426506579968e+18
14614.0	2.1289180009070587e+18
14615.0	2.1283460438032384e+18
14616.0	2.1279080594800637e+18
14617.0	2.1273861051908093e+18
14618.0	2.1263639700832256e+18
14619.0	2.12463868507586e+18
14620.0	2.1194054939181064e+18
14621.0	2.1252995362586621e+18
14622.0	2.1247749714345976e+18
14623.0	2.1242629979111421e+18
14624.0	2.123550506457497e+18
14625.0	2.1232032449298427e+18
14626.0	2.122659847680819e+18
14627.0	2.122111979303731e+18
14628.0	2.121645113003212e+18
14629.0	2.121113956410982e+18
14630.0	2.1205352833875965e+18
14631.0	2.120054948338073e+18
14632.0	2.1139119035908127e+18
14633.0	2.1179822927511524e+18
14634.0	2.1183748108189693e+18
14635.0	2.1162686108663729e+18
14636.0	2.112639635292158e+18
14637.0	2.116891042224537e+18
14638.0	2.1161982254120955e+18
14639.0	2.1156713503653883e+18
14640.0	2.1152713664364536e+18
14641.0	2.0939649262288763e+18
14642.0	2.1141977806405627e+18
14643.0	2.113667961192448e+18
14644.0	2.1130678368206843e+18
14645.0	2.11251434136535e+18
14646.0	2.1115214824996861e+18
14647.0	2.1109168467345405e+18
14648.0	2.1108182134816763e+18
14649.0	2.1104289434828797e+18
