# Flux units: erg / (cm m2 s)
# Wavelength units: Angstrom
wave	flux
14000.0	2.3252063060230144e+18
14001.0	2.324644331362713e+18
14002.0	2.3240967834304507e+18
14003.0	2.3235409509089275e+18
14004.0	2.3229852408610806e+18
14005.0	2.322429527457792e+18
14006.0	2.3218726295830523e+18
14007.0	2.321317464794726e+18
14008.0	2.3207426958295035e+18
14009.0	2.3202080780976123e+18
14010.0	2.319650185333965e+18
14011.0	2.3189898542448635e+18
14012.0	2.318543687673446e+18
14013.0	2.317989329869209e+18
14014.0	2.3174350089748475e+18
14015.0	2.316880381057433e+18
14016.0	2.3163269275451387e+18
14017.0	2.3157730780905467e+18
14018.0	2.3152191078399995e+18
14019.0	2.314629039731507e+18
14020.0	2.314070853366579e+18
14021.0	2.313517413276057e+18
14022.0	2.3129617971806203e+18
14023.0	2.312395453733273e+18
14024.0	2.3118500549623803e+18
14025.0	2.3113055655165947e+18
14026.0	2.3107532360777723e+18
14027.0	2.310201342846566e+18
14028.0	2.309649172791296e+18
14029.0	2.3090967661772795e+18
14030.0	2.307769985348403e+18
14031.0	2.3079854819770363e+18
14032.0	2.3074414253834235e+18
14033.0	2.3068687468593147e+18
14034.0	2.3063291932704763e+18
14035.0	2.30578016223232e+18
14036.0	2.3052226234679293e+18
14037.0	2.3046366691327995e+18
14038.0	2.3040874166353915e+18
14039.0	2.303536925979443e+18
14040.0	2.3029841519443968e+18
14041.0	2.3024355487252475e+18
14042.0	2.3018843752366077e+18
14043.0	2.3013289604677627e+18
14044.0	2.3007849223290875e+18
14045.0	2.300236661365145e+18
14046.0	2.299686429078323e+18
14047.0	2.299135282433228e+18
14048.0	2.298588143865036e+18
14049.0	2.298040512046694e+18
14050.0	2.2974918081642493e+18
14051.0	2.296941398038937e+18
14052.0	2.2963947527208955e+18
14053.0	2.295846349150617e+18
14054.0	2.2952983582998523e+18
14055.0	2.2947503791931387e+18
14056.0	2.294182119787724e+18
14057.0	2.2936147646742523e+18
14058.0	2.2930671630548987e+18
14059.0	2.292519722496819e+18
14060.0	2.2919724211896317e+18
14061.0	2.2914241115717624e+18
14062.0	2.2908783118254077e+18
14063.0	2.29032812651479e+18
14064.0	2.2896864902774781e+18
14065.0	2.2892367669362683e+18
14066.0	2.2886918513491965e+18
14067.0	2.2881231725133821e+18
14068.0	2.2875997082746875e+18
14069.0	2.2870517140684792e+18
14070.0	2.286507598754611e+18
14071.0	2.2859620288561147e+18
14072.0	2.2854171199799288e+18
14073.0	2.2848718503935995e+18
14074.0	2.284326694892339e+18
14075.0	2.2837771655708667e+18
14076.0	2.2832120653152256e+18
14077.0	2.2825045768273917e+18
14078.0	2.282133437965926e+18
14079.0	2.2815646232346624e+18
14080.0	2.2810198687088637e+18
14081.0	2.2804757684944893e+18
14082.0	2.279927628326502e+18
14083.0	2.2793876938948605e+18
14084.0	2.278844273157734e+18
14085.0	2.2781288859566075e+18
14086.0	2.2777426643779576e+18
14087.0	2.2772143095807992e+18
14088.0	2.276666635819417e+18
14089.0	2.2761074830868475e+18
14090.0	2.2755823780364283e+18
14091.0	2.2750430962384896e+18
14092.0	2.274500755954073e+18
14093.0	2.2739584962002944e+18
14094.0	2.2734163555647483e+18
14095.0	2.272874260227686e+18
14096.0	2.272292773665177e+18
14097.0	2.2717742922596352e+18
14098.0	2.2712307809255421e+18
14099.0	2.2707080112635901e+18
14100.0	2.2701649680138232e+18
14101.0	2.2696260788027387e+18
14102.0	2.2690850924396544e+18
14103.0	2.2685386601922555e+18
14104.0	2.2679652183048187e+18
14105.0	2.2674238980751357e+18
14106.0	2.2668843176427517e+18
14107.0	2.2663418917945336e+18
14108.0	2.2658014339137533e+18
14109.0	2.265262964133068e+18
14110.0	2.2647191474536443e+18
14111.0	2.2641754566033405e+18
14112.0	2.2636450214313976e+18
14113.0	2.263094264017715e+18
14114.0	2.2625625370001405e+18
14115.0	2.262024946345574e+18
14116.0	2.2614333229891584e+18
14117.0	2.2597193810575363e+18
14118.0	2.2604108858916861e+18
14119.0	2.259850615796531e+18
14120.0	2.25931351335895e+18
14121.0	2.2587886968766461e+18
14122.0	2.258238325338931e+18
14123.0	2.2576814241087483e+18
14124.0	2.2571388539764733e+18
14125.0	2.2565526412722173e+18
14126.0	2.2560979887849464e+18
14127.0	2.2555718687129595e+18
14128.0	2.2550347159437304e+18
14129.0	2.2544957059366912e+18
14130.0	2.2539581689692155e+18
14131.0	2.2533965533413373e+18
14132.0	2.252850043918745e+18
14133.0	2.252205810568396e+18
14134.0	2.251777812044185e+18
14135.0	2.251231824393011e+18
14136.0	2.2506184409874427e+18
14137.0	2.2501675835064312e+18
14138.0	2.2496161550041083e+18
14139.0	2.2490990375862272e+18
14140.0	2.2485558550855675e+18
14141.0	2.248022092991692e+18
14142.0	2.2473737509011456e+18
14143.0	2.2469490440667128e+18
14144.0	2.246424351735807e+18
14145.0	2.245889942041395e+18
14146.0	2.2453538059714555e+18
14147.0	2.244819688200601e+18
14148.0	2.244280020526694e+18
14149.0	2.2437422453227515e+18
14150.0	2.2432195461251067e+18
14151.0	2.2426701795426301e+18
14152.0	2.242152530287001e+18
14153.0	2.2416191557468157e+18
14154.0	2.241080399075737e+18
14155.0	2.240401230528512e+18
14156.0	2.2400115008339965e+18
14157.0	2.2394868823228408e+18
14158.0	2.2389520364208128e+18
14159.0	2.2384222673043456e+18
14160.0	2.2378895571419133e+18
14161.0	2.2373448512700408e+18
14162.0	2.2368008097759227e+18
14163.0	2.236255927743283e+18
14164.0	2.235677962718412e+18
14165.0	2.2351125554397176e+18
14166.0	2.2346606762262523e+18
14167.0	2.234127112103526e+18
14168.0	2.2335905029160955e+18
14169.0	2.2330680989974523e+18
14170.0	2.2325316911366136e+18
14171.0	2.2320046516731901e+18
14172.0	2.2314759378436093e+18
14173.0	2.2309086901043195e+18
14174.0	2.2304126717132792e+18
14175.0	2.2298850031042552e+18
14176.0	2.2293519590752253e+18
14177.0	2.2288242401345533e+18
14178.0	2.2282944122978301e+18
14179.0	2.2277580665126904e+18
14180.0	2.2272363940806648e+18
14181.0	2.226707106470297e+18
14182.0	2.2261778087935992e+18
14183.0	2.225648940613632e+18
14184.0	2.2251189970141181e+18
14185.0	2.2245911069458424e+18
14186.0	2.2238166438117373e+18
14187.0	2.2235288155717627e+18
14188.0	2.2230058831708157e+18
14189.0	2.22247489938391e+18
14190.0	2.2219480880906237e+18
14191.0	2.2214191242805243e+18
14192.0	2.220892707251814e+18
14193.0	2.22032498303959e+18
14194.0	2.219837039522611e+18
14195.0	2.219312358935756e+18
14196.0	2.218785242297139e+18
14197.0	2.2182582917529592e+18
14198.0	2.2177305140920317e+18
14199.0	2.2171717036146683e+18
14200.0	2.2164995580100603e+18
14201.0	2.216112734129356e+18
14202.0	2.2155890115215355e+18
14203.0	2.2150541672972283e+18
14204.0	2.2145361455874043e+18
14205.0	2.2140103426047995e+18
14206.0	2.2134610783633405e+18
14207.0	2.2129595050360827e+18
14208.0	2.2124341667823616e+18
14209.0	2.2118813055057915e+18
14210.0	2.2113667029925883e+18
14211.0	2.2108585362194427e+18
14212.0	2.2103335788085245e+18
14213.0	2.2098046133207037e+18
14214.0	2.2092842964877304e+18
14215.0	2.2087575573364728e+18
14216.0	2.2082357372649467e+18
14217.0	2.2077115734163448e+18
14218.0	2.2071849181511675e+18
14219.0	2.206663661794099e+18
14220.0	2.2061399626743803e+18
14221.0	2.205611242133913e+18
14222.0	2.2050547771113464e+18
14223.0	2.2045682294587392e+18
14224.0	2.2040462953021432e+18
14225.0	2.2031404950880256e+18
14226.0	2.2029997409566715e+18
14227.0	2.2024777396912123e+18
14228.0	2.201117731586048e+18
14229.0	2.201328617835724e+18
14230.0	2.2009104625041405e+18
14231.0	2.2003519254953981e+18
14232.0	2.1998662972342272e+18
14233.0	2.1993444150870016e+18
14234.0	2.1988226721906685e+18
14235.0	2.198300612204953e+18
14236.0	2.1977792954499067e+18
14237.0	2.1972580038606843e+18
14238.0	2.196737019294515e+18
14239.0	2.1961941891153917e+18
14240.0	2.1953986588311552e+18
14241.0	2.195134845498163e+18
14242.0	2.1946167130587133e+18
14243.0	2.194066321388339e+18
14244.0	2.1935770809925627e+18
14245.0	2.1930535362232317e+18
14246.0	2.192530214590873e+18
14247.0	2.1920165063032824e+18
14248.0	2.1914942449909755e+18
14249.0	2.1909765940576256e+18
14250.0	2.190456936569241e+18
14251.0	2.1899380072120312e+18
14252.0	2.1894186768793595e+18
14253.0	2.1888993549352955e+18
14254.0	2.1883799323279355e+18
14255.0	2.1878556577497085e+18
14256.0	2.186964698660864e+18
14257.0	2.1868182520201216e+18
14258.0	2.186305583919923e+18
14259.0	2.1857840205398016e+18
14260.0	2.1852588685131773e+18
14261.0	2.1847463228866555e+18
14262.0	2.1842400049627133e+18
14263.0	2.1831656272822275e+18
14264.0	2.183123368830566e+18
14265.0	2.1826829451001848e+18
14266.0	2.1821700052090877e+18
14267.0	2.1816526646542333e+18
14268.0	2.1811358341267453e+18
14269.0	2.180618530481766e+18
14270.0	2.1801021546168317e+18
14271.0	2.1795841043857408e+18
14272.0	2.179068260358553e+18
14273.0	2.1785515372052477e+18
14274.0	2.177224338623693e+18
14275.0	2.177445695533875e+18
14276.0	2.1769945981386747e+18
14277.0	2.1764825843499003e+18
14278.0	2.17597235733463e+18
14279.0	2.1754567179894781e+18
14280.0	2.174939753244262e+18
14281.0	2.1744260030136315e+18
14282.0	2.1739108485300221e+18
14283.0	2.1733957661884408e+18
14284.0	2.172880794576486e+18
14285.0	2.1723657239789565e+18
14286.0	2.1718499822927867e+18
14287.0	2.1713367337009147e+18
14288.0	2.170796270786969e+18
14289.0	2.1701003719999478e+18
14290.0	2.1697478155829245e+18
14291.0	2.169235310221721e+18
14292.0	2.168721578446028e+18
14293.0	2.168207339998412e+18
14294.0	2.1676655516844027e+18
14295.0	2.1671771937701883e+18
14296.0	2.1665312172670973e+18
14297.0	2.1661538121154555e+18
14298.0	2.1654836680327163e+18
14299.0	2.165119682976153e+18
14300.0	2.164613239223091e+18
14301.0	2.164101391528755e+18
14302.0	2.16358891636654e+18
14303.0	2.1630682891550717e+18
14304.0	2.1625615518007296e+18
14305.0	2.1620500446838781e+18
14306.0	2.1615123734986747e+18
14307.0	2.16101484012503e+18
14308.0	2.1605094684360701e+18
14309.0	2.1599894535929848e+18
14310.0	2.1593678392852477e+18
14311.0	2.1588354227240957e+18
14312.0	2.1584120329011195e+18
14313.0	2.1579344241491965e+18
14314.0	2.1574354865225725e+18
14315.0	2.1569341212327933e+18
14316.0	2.1564143362375677e+18
14317.0	2.155884546988441e+18
14318.0	2.1554050491219965e+18
14319.0	2.15489531871232e+18
14320.0	2.1543852661800955e+18
14321.0	2.1538753193443325e+18
14322.0	2.1533561836273661e+18
14323.0	2.1528526557544445e+18
14324.0	2.1523445141471227e+18
14325.0	2.1518341613027325e+18
14326.0	2.151327100148121e+18
14327.0	2.1508162204991483e+18
14328.0	2.1503073876705275e+18
14329.0	2.1497995681857533e+18
14330.0	2.1492906246275067e+18
14331.0	2.148777273694617e+18
14332.0	2.1482731233869821e+18
14333.0	2.1477645740933117e+18
14334.0	2.1472561288183803e+18
14335.0	2.146744160328089e+18
14336.0	2.1461941193015293e+18
14337.0	2.1457314456272893e+18
14338.0	2.1452232218116093e+18
14339.0	2.1447109781749755e+18
14340.0	2.1442078797987837e+18
14341.0	2.1436968139227133e+18
14342.0	2.143193229007257e+18
14343.0	2.1426725548195835e+18
14344.0	2.1421426816843773e+18
14345.0	2.1416375935303677e+18
14346.0	2.1411284234797048e+18
14347.0	2.140604924008857e+18
14348.0	2.1401157540773883e+18
14349.0	2.1396104075542528e+18
14350.0	2.139071516665446e+18
14351.0	2.1385635679961088e+18
14352.0	2.1380916030996477e+18
14353.0	2.1375855469002747e+18
14354.0	2.1370755061121021e+18
14355.0	2.136561841445273e+18
14356.0	2.1360599090855933e+18
14357.0	2.1355622515605501e+18
14358.0	2.1350567490093053e+18
14359.0	2.1345477517639677e+18
14360.0	2.1340431014952955e+18
14361.0	2.133540073583411e+18
14362.0	2.133035921598054e+18
14363.0	2.132530905586073e+18
14364.0	2.1319062344695803e+18
14365.0	2.1315058646646781e+18
14366.0	2.1309996054609915e+18
14367.0	2.130512762529382e+18
14368.0	2.1300083555303421e+18
14369.0	2.1295042689761275e+18
14370.0	2.1290002965069821e+18
14371.0	2.128496520331264e+18
14372.0	2.127992187151974e+18
14373.0	2.127488899193241e+18
14374.0	2.1269853310550008e+18
14375.0	2.1264818434473976e+18
14376.0	2.1259784447590392e+18
14377.0	2.1254750762696701e+18
14378.0	2.1249715215532027e+18
14379.0	2.1244690254790653e+18
14380.0	2.1239660361547768e+18
14381.0	2.123460585612902e+18
14382.0	2.122960225278361e+18
14383.0	2.1224524326371325e+18
14384.0	2.1219507804569595e+18
14385.0	2.1214532839931901e+18
14386.0	2.1209477411766267e+18
14387.0	2.1204489193127933e+18
14388.0	2.1199464836366333e+18
14389.0	2.119445039493939e+18
14390.0	2.118942920907161e+18
14391.0	2.1184416143376381e+18
14392.0	2.1179384773738493e+18
14393.0	2.1174387931611133e+18
14394.0	2.1169291147608064e+18
14395.0	2.1164058535264253e+18
14396.0	2.115933650393497e+18
14397.0	2.1154342933364733e+18
14398.0	2.1149318710820861e+18
14399.0	2.1144307943604221e+18
14400.0	2.1139140024205304e+18
14401.0	2.113429432801689e+18
14402.0	2.1129307602550776e+18
14403.0	2.1112495238283236e+18
14404.0	2.1087986359730168e+18
14405.0	2.111185708331826e+18
14406.0	2.1109305486868475e+18
14407.0	2.1086527127814152e+18
14408.0	2.109871490282291e+18
14409.0	2.1093953663139835e+18
14410.0	2.1088909140164603e+18
14411.0	2.1083987476742144e+18
14412.0	2.1079001489473536e+18
14413.0	2.1074015787417597e+18
14414.0	2.1069018727186427e+18
14415.0	2.1064030911201277e+18
14416.0	2.1058978117058555e+18
14417.0	2.1053781038858235e+18
14418.0	2.1048832481558528e+18
14419.0	2.1044078405746683e+18
14420.0	2.1039087704080381e+18
14421.0	2.1034111279824893e+18
14422.0	2.1029124621467645e+18
14423.0	2.1024074343907325e+18
14424.0	2.0947108982947784e+18
14425.0	2.101415432840806e+18
14426.0	2.100920852257177e+18
14427.0	2.1004235185324027e+18
14428.0	2.0999188028325883e+18
14429.0	2.0994126929461245e+18
14430.0	2.0989157618745344e+18
14431.0	2.0982391182983165e+18
14432.0	2.0979147593482237e+18
14433.0	2.0961096298921969e+18
14434.0	2.096924051321651e+18
14435.0	2.0964009679257592e+18
14436.0	2.0959327728697344e+18
14437.0	2.0954362964606973e+18
14438.0	2.0948847370960893e+18
14439.0	2.0944327052099584e+18
14440.0	2.0939464444477437e+18
14441.0	2.0934493724475387e+18
14442.0	2.092952137708339e+18
14443.0	2.09244874908631e+18
14444.0	2.0919607921475584e+18
14445.0	2.091465470010982e+18
14446.0	2.0895549192404992e+18
14447.0	2.090470748874342e+18
14448.0	2.0899782469877757e+18
14449.0	2.089482641316249e+18
14450.0	2.088985727021875e+18
14451.0	2.088491367897497e+18
14452.0	2.0879948210241533e+18
14453.0	2.0874729153888253e+18
14454.0	2.0870052488151035e+18
14455.0	2.0865091230498816e+18
14456.0	2.0860072913534973e+18
14457.0	2.0855092982841344e+18
14458.0	2.0850107784101888e+18
14459.0	2.0845221638045693e+18
14460.0	2.084025311585894e+18
14461.0	2.083496659832012e+18
14462.0	2.0829038603927547e+18
14463.0	2.0825295405711355e+18
14464.0	2.082051396626022e+18
14465.0	2.0815577589219325e+18
14466.0	2.0810689295679488e+18
14467.0	2.0805544998600701e+18
14468.0	2.0800803321151488e+18
14469.0	2.0795724354551805e+18
14470.0	2.0790891912364027e+18
14471.0	2.07859861201879e+18
14472.0	2.0781063534018555e+18
14473.0	2.0776154117963773e+18
14474.0	2.0771224871239675e+18
14475.0	2.0766280726347773e+18
14476.0	2.0760501310980093e+18
14477.0	2.0756420337074173e+18
14478.0	2.07514883892183e+18
14479.0	2.0746437641895933e+18
14480.0	2.0741486584791037e+18
14481.0	2.073659839191449e+18
14482.0	2.0731663961030653e+18
14483.0	2.0726720906657787e+18
14484.0	2.072180768217497e+18
14485.0	2.0716595236044792e+18
14486.0	2.0711051758665725e+18
14487.0	2.070671021781811e+18
14488.0	2.0701283425976317e+18
14489.0	2.0696690361106427e+18
14490.0	2.0691915179556861e+18
14491.0	2.0687035878604797e+18
14492.0	2.0682108326379517e+18
14493.0	2.067715891344179e+18
14494.0	2.0672216647598077e+18
14495.0	2.0667355164049405e+18
14496.0	2.066216090442137e+18
14497.0	2.065751950439219e+18
14498.0	2.0652599736795133e+18
14499.0	2.064768716662374e+18
14500.0	2.0642770116935677e+18
14501.0	2.0637428385579003e+18
14502.0	2.0631914150887421e+18
14503.0	2.062787701584691e+18
14504.0	2.0623102371168253e+18
14505.0	2.061779817044377e+18
14506.0	2.0612374012624893e+18
14507.0	2.0607879144800253e+18
14508.0	2.06034630124503e+18
14509.0	2.059855183478784e+18
14510.0	2.0593641009446907e+18
14511.0	2.0588730486095867e+18
14512.0	2.0583786290872312e+18
14513.0	2.0578911536545787e+18
14514.0	2.0573891608969219e+18
14515.0	2.0569088241696768e+18
14516.0	2.0560107834179584e+18
14517.0	2.0559278905491448e+18
14518.0	2.0554372609998843e+18
14519.0	2.0549467153367035e+18
14520.0	2.054456119341875e+18
14521.0	2.053965144181964e+18
14522.0	2.053471206165708e+18
14523.0	2.0528667901820925e+18
14524.0	2.0523939478372344e+18
14525.0	2.0520024598904827e+18
14526.0	2.0515132815704061e+18
14527.0	2.0510166323560443e+18
14528.0	2.050496283646361e+18
14529.0	2.0500401245650944e+18
14530.0	2.049548664543641e+18
14531.0	2.0490614374137856e+18
14532.0	2.0484356422238205e+18
14533.0	2.0480811849482235e+18
14534.0	2.0475914613686267e+18
14535.0	2.0470988823068667e+18
14536.0	2.0466112223248381e+18
14537.0	2.0461186164195328e+18
14538.0	2.0456310822666235e+18
14539.0	2.0451413536538621e+18
14540.0	2.0446513935155197e+18
14541.0	2.0441567575670776e+18
14542.0	2.0436714933714944e+18
14543.0	2.0431197544906747e+18
14544.0	2.0426915328294912e+18
14545.0	2.0422008495931387e+18
14546.0	2.034368218398715e+18
14547.0	2.0347129633439683e+18
14548.0	2.0407293132668928e+18
14549.0	2.040218025931571e+18
14550.0	2.039751236806246e+18
14551.0	2.0392628369489917e+18
14552.0	2.0387720010399744e+18
14553.0	2.0382810829225976e+18
14554.0	2.0377932702679037e+18
14555.0	2.0373030953811965e+18
14556.0	2.036810898839961e+18
14557.0	2.036323388175155e+18
14558.0	2.0358324901904381e+18
14559.0	2.034996884170341e+18
14560.0	2.0348088518443003e+18
14561.0	2.034362066193612e+18
14562.0	2.0338647895113725e+18
14563.0	2.0333837850509307e+18
14564.0	2.032875354875494e+18
14565.0	2.0324055525621755e+18
14566.0	2.0319158323380221e+18
14567.0	2.031424377349734e+18
14568.0	2.0308898166603773e+18
14569.0	2.0304455308148733e+18
14570.0	2.0298412104613888e+18
14571.0	2.02946607358935e+18
14572.0	2.0289491390431227e+18
14573.0	2.028471206490931e+18
14574.0	2.0279439757672445e+18
14575.0	2.0274914707636221e+18
14576.0	2.0269809920901115e+18
14577.0	2.0264964375707643e+18
14578.0	2.026007338103603e+18
14579.0	2.0255173125341181e+18
14580.0	2.0250270218846203e+18
14581.0	2.0245316594827261e+18
14582.0	2.0240431136636925e+18
14583.0	2.023555309397606e+18
14584.0	2.023056698926694e+18
14585.0	2.0225740570099712e+18
14586.0	2.022082605377126e+18
14587.0	2.0215905900298237e+18
14588.0	2.0211025039065088e+18
14589.0	2.0206276533288955e+18
14590.0	2.0201544083308544e+18
14591.0	2.019678391736729e+18
14592.0	2.0192064335511547e+18
14593.0	2.0187091065372664e+18
14594.0	2.0182598009487355e+18
14595.0	2.0177845242298368e+18
14596.0	2.0172193434435576e+18
14597.0	2.016733394737561e+18
14598.0	2.0163556372643835e+18
14599.0	2.0158889706127355e+18
14600.0	2.0154110179278845e+18
14601.0	2.0149378769485821e+18
14602.0	2.0144552249655293e+18
14603.0	2.013985890736537e+18
14604.0	2.013496685572915e+18
14605.0	2.013015340534988e+18
14606.0	2.0125424277258237e+18
14607.0	2.0120762560020475e+18
14608.0	2.0116002108866555e+18
14609.0	2.0111129887899643e+18
14610.0	2.0106137743392763e+18
14611.0	2.010165401563955e+18
14612.0	2.0096985201639421e+18
14613.0	2.009224191357747e+18
14614.0	2.008747778821325e+18
14615.0	2.008266316342886e+18
14616.0	2.0077957053677565e+18
14617.0	2.007318823069286e+18
14618.0	2.0068173906706427e+18
14619.0	2.006307710592614e+18
14620.0	2.0056125281927165e+18
14621.0	2.0054095524003837e+18
14622.0	2.0049318513737728e+18
14623.0	2.0044538533904384e+18
14624.0	2.0039632691396605e+18
14625.0	2.0034966813409277e+18
14626.0	2.0030152238956544e+18
14627.0	2.0025329611440125e+18
14628.0	2.0020590551236605e+18
14629.0	2.0015793022435325e+18
14630.0	2.0010971669987328e+18
14631.0	2.0006184526282747e+18
14632.0	1.999566360123801e+18
14633.0	1.9995833889980408e+18
14634.0	1.999172867299737e+18
14635.0	1.998555438907391e+18
14636.0	1.997709332027801e+18
14637.0	1.997712365348454e+18
14638.0	1.9972233782886392e+18
14639.0	1.9967416205312e+18
14640.0	1.9962643708116987e+18
14641.0	1.9935865744654316e+18
14642.0	1.9952984041455608e+18
14643.0	1.9948153209880573e+18
14644.0	1.9943280905027581e+18
14645.0	1.9938431350079483e+18
14646.0	1.9933362114265083e+18
14647.0	1.9928517726699523e+18
14648.0	1.9923900234203133e+18
