# Flux units: erg / (cm m2 s)
# Wavelength units: Angstrom
wave	flux
14000.0	1.5433810426462203e+18
14001.0	1.543176615624704e+18
14002.0	1.5432165588205568e+18
14003.0	1.5429664155631613e+18
14004.0	1.542709583229747e+18
14005.0	1.5424525663469568e+18
14006.0	1.5421834379919357e+18
14007.0	1.5419196347252733e+18
14008.0	1.5415506769018877e+18
14009.0	1.541388766701158e+18
14010.0	1.5411138871164925e+18
14011.0	1.540194457092096e+18
14012.0	1.5405872100409344e+18
14013.0	1.5403800567218176e+18
14014.0	1.5401218771779581e+18
14015.0	1.539870379999232e+18
14016.0	1.5396142439202816e+18
14017.0	1.5393572773691392e+18
14018.0	1.539048232661811e+18
14019.0	1.5388416732561403e+18
14020.0	1.5385831195803643e+18
14021.0	1.5383246044921856e+18
14022.0	1.5380664450809853e+18
14023.0	1.537797281493811e+18
14024.0	1.5375414507601915e+18
14025.0	1.5372930858876925e+18
14026.0	1.5370345372450816e+18
14027.0	1.5367761194647547e+18
14028.0	1.5365076890419203e+18
14029.0	1.5362302492540925e+18
14030.0	1.5354610944311293e+18
14031.0	1.5355726092304381e+18
14032.0	1.5354740229537792e+18
14033.0	1.5351864614715392e+18
14034.0	1.5349759963299837e+18
14035.0	1.5347189224046584e+18
14036.0	1.5344416923320315e+18
14037.0	1.5342002967150587e+18
14038.0	1.5339526650068992e+18
14039.0	1.5336917574877181e+18
14040.0	1.5334380239060987e+18
14041.0	1.533181394576998e+18
14042.0	1.5329141922463744e+18
14043.0	1.5326294577250301e+18
14044.0	1.5323707178221563e+18
14045.0	1.5321208916541437e+18
14046.0	1.5318961373577213e+18
14047.0	1.5316360619884544e+18
14048.0	1.5313852056993792e+18
14049.0	1.5311322103152637e+18
14050.0	1.5308759014309888e+18
14051.0	1.530611814629376e+18
14052.0	1.530358574297907e+18
14053.0	1.5301072314695677e+18
14054.0	1.529852573463347e+18
14055.0	1.5295967762841597e+18
14056.0	1.529341009303961e+18
14057.0	1.529085297688576e+18
14058.0	1.5288295005093885e+18
14059.0	1.5285272505745405e+18
14060.0	1.5283178038099963e+18
14061.0	1.5280547873947648e+18
14062.0	1.5278037247459325e+18
14063.0	1.5275290666205181e+18
14064.0	1.5271353204604925e+18
14065.0	1.5270279345340413e+18
14066.0	1.5267826382143485e+18
14067.0	1.5265306343636987e+18
14068.0	1.5262755988701181e+18
14069.0	1.526020009728409e+18
14070.0	1.5257654037315581e+18
14071.0	1.5255076721393664e+18
14072.0	1.5252558108950525e+18
14073.0	1.5250009565954048e+18
14074.0	1.5247457717846013e+18
14075.0	1.5244712747204603e+18
14076.0	1.5242287969730557e+18
14077.0	1.5238529923678205e+18
14078.0	1.5236991218089981e+18
14079.0	1.5234607880339453e+18
14080.0	1.5231961442287616e+18
14081.0	1.5229594177110016e+18
14082.0	1.5227078014140413e+18
14083.0	1.5224491504304125e+18
14084.0	1.5221771682709501e+18
14085.0	1.521710154330931e+18
14086.0	1.5216279493279744e+18
14087.0	1.5213988262445053e+18
14088.0	1.5211700504494077e+18
14089.0	1.5209304852267005e+18
14090.0	1.5206770637012987e+18
14091.0	1.5204240817389565e+18
14092.0	1.5201706769907712e+18
14093.0	1.5199168997883904e+18
14094.0	1.5196626477907965e+18
14095.0	1.519406780147302e+18
14096.0	1.519143481874841e+18
14097.0	1.5188763651080187e+18
14098.0	1.5186424101863421e+18
14099.0	1.5183927534682107e+18
14100.0	1.5181293947977723e+18
14101.0	1.5178894235664381e+18
14102.0	1.5176339250216957e+18
14103.0	1.517365068457574e+18
14104.0	1.5171272832974843e+18
14105.0	1.5168780241993723e+18
14106.0	1.5166250523033597e+18
14107.0	1.5163323871920125e+18
14108.0	1.5161028899766267e+18
14109.0	1.5158622895996925e+18
14110.0	1.5156109685817341e+18
14111.0	1.515352778971545e+18
14112.0	1.5150933109374976e+18
14113.0	1.5148483266740221e+18
14114.0	1.5145773662470147e+18
14115.0	1.514320215146496e+18
14116.0	1.5139373053902843e+18
14117.0	1.5127817746382843e+18
14118.0	1.513505315566387e+18
14119.0	1.5133032306442235e+18
14120.0	1.5130663111884797e+18
14121.0	1.512812231996211e+18
14122.0	1.512568522801152e+18
14123.0	1.512312722266521e+18
14124.0	1.5120173140803581e+18
14125.0	1.5114190284914683e+18
14126.0	1.5115332276453373e+18
14127.0	1.5113144275828736e+18
14128.0	1.511067287447142e+18
14129.0	1.510805638375014e+18
14130.0	1.5105327166914557e+18
14131.0	1.5102969414418432e+18
14132.0	1.5100052192100347e+18
14133.0	1.5093407391154168e+18
14134.0	1.5094692341350397e+18
14135.0	1.5092915466403835e+18
14136.0	1.5090548788428795e+18
14137.0	1.508804975499673e+18
14138.0	1.5085525522186235e+18
14139.0	1.5083050194960381e+18
14140.0	1.5080514922741757e+18
14141.0	1.5077856707084285e+18
14142.0	1.5075233052491773e+18
14143.0	1.5072969755721725e+18
14144.0	1.5070529727758336e+18
14145.0	1.5068012038062077e+18
14146.0	1.5065503777161213e+18
14147.0	1.506303732508262e+18
14148.0	1.506053966738227e+18
14149.0	1.5058042848542715e+18
14150.0	1.5055537037115392e+18
14151.0	1.5053004801572867e+18
14152.0	1.5050515347931136e+18
14153.0	1.5048033829912576e+18
14154.0	1.5045257905307643e+18
14155.0	1.5042828916752381e+18
14156.0	1.5040512989855741e+18
14157.0	1.503801373831987e+18
14158.0	1.5035487962005501e+18
14159.0	1.5032991596150781e+18
14160.0	1.5030272445644797e+18
14161.0	1.5027471371993085e+18
14162.0	1.502460419611033e+18
14163.0	1.5022522445594621e+18
14164.0	1.5020241700519936e+18
14165.0	1.501788941739622e+18
14166.0	1.5015493429624832e+18
14167.0	1.5012888280301565e+18
14168.0	1.5010526518050816e+18
14169.0	1.500806629031936e+18
14170.0	1.5005542007177216e+18
14171.0	1.500302389805056e+18
14172.0	1.500057940734771e+18
14173.0	1.499797855299174e+18
14174.0	1.4995520002981885e+18
14175.0	1.4993107875528704e+18
14176.0	1.499063073636352e+18
14177.0	1.4988142843002875e+18
14178.0	1.498564983259136e+18
14179.0	1.4983132629434368e+18
14180.0	1.4980674549186557e+18
14181.0	1.497818489421824e+18
14182.0	1.497568644798873e+18
14183.0	1.4973191155875835e+18
14184.0	1.497063556644864e+18
14185.0	1.4968028236087296e+18
14186.0	1.4963964878258173e+18
14187.0	1.496261125891686e+18
14188.0	1.4960570428030976e+18
14189.0	1.495820742426624e+18
14190.0	1.4955788334268413e+18
14191.0	1.495329471987712e+18
14192.0	1.495068779216896e+18
14193.0	1.4948147872661504e+18
14194.0	1.4945855081545725e+18
14195.0	1.4943412671217664e+18
14196.0	1.4940938820386813e+18
14197.0	1.493845780568473e+18
14198.0	1.4935925654028285e+18
14199.0	1.4933395314311165e+18
14200.0	1.4929998213283837e+18
14201.0	1.492813453302169e+18
14202.0	1.4925998776647677e+18
14203.0	1.4923541602369536e+18
14204.0	1.4921067231444987e+18
14205.0	1.4918511105146875e+18
14206.0	1.4915094508994552e+18
14207.0	1.4913500958687232e+18
14208.0	1.4911110943604739e+18
14209.0	1.4907517532372987e+18
14210.0	1.490521811425689e+18
14211.0	1.4903652833558525e+18
14212.0	1.490132073342566e+18
14213.0	1.4898875168980987e+18
14214.0	1.4896392023572477e+18
14215.0	1.4893805396295675e+18
14216.0	1.4891463296942077e+18
14217.0	1.4889017816383485e+18
14218.0	1.4886419679936507e+18
14219.0	1.4884064544686077e+18
14220.0	1.4881587690733565e+18
14221.0	1.4879136472367104e+18
14222.0	1.4876579289104381e+18
14223.0	1.487414023421952e+18
14224.0	1.4871547063828477e+18
14225.0	1.4865243209465853e+18
14226.0	1.4866047559532544e+18
14227.0	1.4863803707555835e+18
14228.0	1.4849349079007232e+18
14229.0	1.485471706670694e+18
14230.0	1.4856746438754301e+18
14231.0	1.4854415915679744e+18
14232.0	1.4852018266963965e+18
14233.0	1.4849556646723581e+18
14234.0	1.4847117390512123e+18
14235.0	1.4844635033632768e+18
14236.0	1.4842182791856125e+18
14237.0	1.4839673306218493e+18
14238.0	1.483710400980582e+18
14239.0	1.483389986353971e+18
14240.0	1.4813155423158272e+18
14241.0	1.4828263004176376e+18
14242.0	1.4826931295879165e+18
14243.0	1.4823670073524216e+18
14244.0	1.4822425707413501e+18
14245.0	1.482001792525926e+18
14246.0	1.481760834794291e+18
14247.0	1.4815146761256957e+18
14248.0	1.4812557248299005e+18
14249.0	1.481026734286438e+18
14250.0	1.480784852130201e+18
14251.0	1.4805403829272576e+18
14252.0	1.4802930817302525e+18
14253.0	1.4800386284060667e+18
14254.0	1.4797875070369792e+18
14255.0	1.4794790713425915e+18
14256.0	1.478958192472883e+18
14257.0	1.4788826195034107e+18
14258.0	1.4787959265951741e+18
14259.0	1.4785456205987837e+18
14260.0	1.4783017620865021e+18
14261.0	1.478046651095449e+18
14262.0	1.4777948385050621e+18
14263.0	1.477082232966349e+18
14264.0	1.477023643572633e+18
14265.0	1.4770740121305085e+18
14266.0	1.4768674846015485e+18
14267.0	1.476632962609971e+18
14268.0	1.4763907834970107e+18
14269.0	1.4761396050853883e+18
14270.0	1.4759018014703613e+18
14271.0	1.4756491332419581e+18
14272.0	1.4753853366861821e+18
14273.0	1.475038514721587e+18
14274.0	1.474037812507443e+18
14275.0	1.4743738114899965e+18
14276.0	1.4743780242489341e+18
14277.0	1.474179496096563e+18
14278.0	1.4739510122250237e+18
14279.0	1.4737108832878587e+18
14280.0	1.4734678955130877e+18
14281.0	1.4732311035641856e+18
14282.0	1.472989142555033e+18
14283.0	1.4727461312921597e+18
14284.0	1.4724986690338813e+18
14285.0	1.4722535438417915e+18
14286.0	1.472007341552435e+18
14287.0	1.4717553259577341e+18
14288.0	1.4714481049337853e+18
14289.0	1.4700475613970422e+18
14290.0	1.4709674343399421e+18
14291.0	1.4707813515263997e+18
14292.0	1.470541432304435e+18
14293.0	1.4702932066828288e+18
14294.0	1.469945312654131e+18
14295.0	1.4697456973381632e+18
14296.0	1.4686390302277635e+18
14297.0	1.4691808319635453e+18
14298.0	1.4688621571342336e+18
14299.0	1.4688046381268987e+18
14300.0	1.468597632447283e+18
14301.0	1.4683644375334907e+18
14302.0	1.468123213044121e+18
14303.0	1.467843905952153e+18
14304.0	1.4676205542309885e+18
14305.0	1.4673927263485955e+18
14306.0	1.4671482454016e+18
14307.0	1.4669030463897595e+18
14308.0	1.4666612028211195e+18
14309.0	1.4664137741172736e+18
14310.0	1.4661598073323515e+18
14311.0	1.4658977220526075e+18
14312.0	1.4656377054035963e+18
14313.0	1.465225269424947e+18
14314.0	1.4652068581081085e+18
14315.0	1.4649607464157181e+18
14316.0	1.4646902020636672e+18
14317.0	1.4644818693062653e+18
14318.0	1.4642519274946552e+18
14319.0	1.464013806790246e+18
14320.0	1.4637731778920448e+18
14321.0	1.4635273161801725e+18
14322.0	1.463260347052851e+18
14323.0	1.4630272947453947e+18
14324.0	1.4628065300709373e+18
14325.0	1.4625570193145853e+18
14326.0	1.4623283760594944e+18
14327.0	1.4620748773588987e+18
14328.0	1.4618356527136765e+18
14329.0	1.461603164120678e+18
14330.0	1.4613627281604605e+18
14331.0	1.4611217939169277e+18
14332.0	1.4608802523381757e+18
14333.0	1.4606400546144253e+18
14334.0	1.4603988720680957e+18
14335.0	1.4601410280685565e+18
14336.0	1.4598798890237947e+18
14337.0	1.4596721971560445e+18
14338.0	1.4594346150002683e+18
14339.0	1.459185429721907e+18
14340.0	1.4589560784683008e+18
14341.0	1.4587140721606653e+18
14342.0	1.4584634490748925e+18
14343.0	1.4582353460461563e+18
14344.0	1.457968712463155e+18
14345.0	1.4577417200861181e+18
14346.0	1.4575112229486592e+18
14347.0	1.4572637959225344e+18
14348.0	1.4570310170836992e+18
14349.0	1.4567912455012347e+18
14350.0	1.456520137434726e+18
14351.0	1.4562751833702397e+18
14352.0	1.456053479171686e+18
14353.0	1.4558246060687357e+18
14354.0	1.4555863092035581e+18
14355.0	1.4553407813582848e+18
14356.0	1.455092426552115e+18
14357.0	1.4548593255907325e+18
14358.0	1.4546344706310141e+18
14359.0	1.454379574388326e+18
14360.0	1.4541510301188093e+18
14361.0	1.453914300245606e+18
14362.0	1.453674886017843e+18
14363.0	1.4534287692922877e+18
14364.0	1.4531097119424512e+18
14365.0	1.4529015385686013e+18
14366.0	1.4526927041724413e+18
14367.0	1.4524797039935485e+18
14368.0	1.4522381489930237e+18
14369.0	1.4520038652379136e+18
14370.0	1.451765123776512e+18
14371.0	1.4515281808326653e+18
14372.0	1.4512806799867901e+18
14373.0	1.4510464163643387e+18
14374.0	1.4508063545360381e+18
14375.0	1.4505587010174976e+18
14376.0	1.4503342235451392e+18
14377.0	1.450095844471603e+18
14378.0	1.4498556148711421e+18
14379.0	1.4496179941277693e+18
14380.0	1.449374910722867e+18
14381.0	1.4491255140515837e+18
14382.0	1.448897828775526e+18
14383.0	1.4486606190739453e+18
14384.0	1.448403504883302e+18
14385.0	1.4481851947155453e+18
14386.0	1.4479273070952445e+18
14387.0	1.447708387914547e+18
14388.0	1.4474676885520381e+18
14389.0	1.447231264024166e+18
14390.0	1.446992529273651e+18
14391.0	1.4467563832475648e+18
14392.0	1.4465166385086464e+18
14393.0	1.446279593223782e+18
14394.0	1.4459975648673787e+18
14395.0	1.4457929298083837e+18
14396.0	1.445560808636416e+18
14397.0	1.4453274409172992e+18
14398.0	1.4450881340637181e+18
14399.0	1.444842302550835e+18
14400.0	1.444586458395443e+18
14401.0	1.444349740266291e+18
14402.0	1.4440923140194301e+18
14403.0	1.443663844055449e+18
14404.0	1.440701787983052e+18
14405.0	1.4408932982259692e+18
14406.0	1.4430529168343037e+18
14407.0	1.4427765239447547e+18
14408.0	1.4426761039183872e+18
14409.0	1.4424452880138237e+18
14410.0	1.442228596847411e+18
14411.0	1.4420002304163837e+18
14412.0	1.4417610913349632e+18
14413.0	1.4415278695776253e+18
14414.0	1.4412901716590587e+18
14415.0	1.441054317556531e+18
14416.0	1.4408164065673213e+18
14417.0	1.4405791515672576e+18
14418.0	1.4403409050337277e+18
14419.0	1.4401051364950013e+18
14420.0	1.4398633013149693e+18
14421.0	1.4396290360147965e+18
14422.0	1.4393816895193085e+18
14423.0	1.439105583520153e+18
14424.0	1.438399183873638e+18
14425.0	1.4386288438280187e+18
14426.0	1.4384435931643901e+18
14427.0	1.4382120659058685e+18
14428.0	1.4379515643953147e+18
14429.0	1.4377355761942525e+18
14430.0	1.4374839682859008e+18
14431.0	1.4371031053500413e+18
14432.0	1.4370143706546173e+18
14433.0	1.4366796316409853e+18
14434.0	1.436536548832051e+18
14435.0	1.436309360161587e+18
14436.0	1.436090501378867e+18
14437.0	1.435857813136998e+18
14438.0	1.4356055089741821e+18
14439.0	1.4353768288092155e+18
14440.0	1.4351520191479803e+18
14441.0	1.4348994817818621e+18
14442.0	1.4346541737181181e+18
14443.0	1.4343781717377021e+18
14444.0	1.4341861229461504e+18
14445.0	1.4339343539765245e+18
14446.0	1.4327627523293184e+18
14447.0	1.433373010139545e+18
14448.0	1.433255093154611e+18
14449.0	1.4330274632433664e+18
14450.0	1.4327874215477245e+18
14451.0	1.4325566559748093e+18
14452.0	1.4323255112368125e+18
14453.0	1.4320899004039163e+18
14454.0	1.4318530816114685e+18
14455.0	1.4316109041762304e+18
14456.0	1.4313799943192573e+18
14457.0	1.431142942323507e+18
14458.0	1.4309085562273792e+18
14459.0	1.4306690228813821e+18
14460.0	1.4304295180566525e+18
14461.0	1.4301745177952253e+18
14462.0	1.4299391049334781e+18
14463.0	1.4297186523152381e+18
14464.0	1.429488968872755e+18
14465.0	1.4292310292430845e+18
14466.0	1.4290292463108093e+18
14467.0	1.4287807086329853e+18
14468.0	1.4285598500061181e+18
14469.0	1.4282796889538557e+18
14470.0	1.4280654422278141e+18
14471.0	1.4278528900005885e+18
14472.0	1.4276276609089536e+18
14473.0	1.4273992542126077e+18
14474.0	1.4271696764665853e+18
14475.0	1.426934797120307e+18
14476.0	1.4266965522644987e+18
14477.0	1.4264676170858493e+18
14478.0	1.4262317613055997e+18
14479.0	1.4259980983074813e+18
14480.0	1.4257453277380603e+18
14481.0	1.425532270516633e+18
14482.0	1.4252921784893437e+18
14483.0	1.4250531551707136e+18
14484.0	1.4248039564705792e+18
14485.0	1.4245194585079808e+18
14486.0	1.4240776556904445e+18
14487.0	1.4241050059079677e+18
14488.0	1.4238899219988477e+18
14489.0	1.4236491890819072e+18
14490.0	1.4234209904230397e+18
14491.0	1.4231929394036736e+18
14492.0	1.4229617309122557e+18
14493.0	1.4227179143430141e+18
14494.0	1.422466336633651e+18
14495.0	1.422237493729689e+18
14496.0	1.4219094253371392e+18
14497.0	1.4217804572000253e+18
14498.0	1.4215579225292797e+18
14499.0	1.421328078025523e+18
14500.0	1.421093792592691e+18
14501.0	1.4208224009912317e+18
14502.0	1.4203757445251072e+18
14503.0	1.4203710804590587e+18
14504.0	1.4201519180087293e+18
14505.0	1.4199231908675581e+18
14506.0	1.419656572384051e+18
14507.0	1.4192325668372477e+18
14508.0	1.4192099662495741e+18
14509.0	1.4189967127347197e+18
14510.0	1.4187619239854077e+18
14511.0	1.4185312305545213e+18
14512.0	1.4182878803918845e+18
14513.0	1.4180527175106557e+18
14514.0	1.417785090716467e+18
14515.0	1.4174715530706941e+18
14516.0	1.4141700402315272e+18
14517.0	1.4168046318911483e+18
14518.0	1.4168661136769021e+18
14519.0	1.4166356752596987e+18
14520.0	1.4164403230343165e+18
14521.0	1.4162140336226301e+18
14522.0	1.415982571795251e+18
14523.0	1.415743177700147e+18
14524.0	1.415512160468992e+18
14525.0	1.4152838275923965e+18
14526.0	1.4150505169158141e+18
14527.0	1.4147603901972475e+18
14528.0	1.414452271592243e+18
14529.0	1.414347464323891e+18
14530.0	1.4141147626602493e+18
14531.0	1.4138993331404797e+18
14532.0	1.4136656265215997e+18
14533.0	1.4134370637971453e+18
14534.0	1.413207980978995e+18
14535.0	1.412966028358451e+18
14536.0	1.4127414670000125e+18
14537.0	1.4125020812935165e+18
14538.0	1.4122838332014587e+18
14539.0	1.4120518093373437e+18
14540.0	1.411816668266496e+18
14541.0	1.4115568613326845e+18
14542.0	1.4113499294728187e+18
14543.0	1.4111021501251581e+18
14544.0	1.4108779511545853e+18
14545.0	1.4106195568623613e+18
14546.0	1.4093973761032184e+18
14547.0	1.4090901903114235e+18
14548.0	1.4098920665776125e+18
14549.0	1.4096046980333565e+18
14550.0	1.4094740085538813e+18
14551.0	1.4092708331126781e+18
14552.0	1.4090370543517693e+18
14553.0	1.4088003513221117e+18
14554.0	1.4085821317513213e+18
14555.0	1.4083494804193275e+18
14556.0	1.4081115358756864e+18
14557.0	1.4078650315964413e+18
14558.0	1.4075155764477947e+18
14559.0	1.4050336633257969e+18
14560.0	1.4070442054647803e+18
14561.0	1.406934862476083e+18
14562.0	1.4066973113581565e+18
14563.0	1.4065003627806717e+18
14564.0	1.4062339380740093e+18
14565.0	1.4060486152683517e+18
14566.0	1.4058198285680637e+18
14567.0	1.4055866428817405e+18
14568.0	1.4053477470699517e+18
14569.0	1.4050789869748221e+18
14570.0	1.4042502159925245e+18
14571.0	1.4046321962909693e+18
14572.0	1.4043924330971133e+18
14573.0	1.4041502539841536e+18
14574.0	1.403969439216435e+18
14575.0	1.4037461093056512e+18
14576.0	1.4035123842318333e+18
14577.0	1.403283997668147e+18
14578.0	1.40306144034816e+18
14579.0	1.402836872278835e+18
14580.0	1.4026078817353723e+18
14581.0	1.4023752874459133e+18
14582.0	1.402144401077043e+18
14583.0	1.4019177056567293e+18
14584.0	1.4016775406485501e+18
14585.0	1.4014576559390717e+18
14586.0	1.401229409465139e+18
14587.0	1.4010020169515005e+18
14588.0	1.4007738350698493e+18
14589.0	1.4005447245692925e+18
14590.0	1.4003150335770621e+18
14591.0	1.4000797926817787e+18
14592.0	1.399830772658995e+18
14593.0	1.3995183548923901e+18
14594.0	1.3993808119201787e+18
14595.0	1.3991541240496125e+18
14596.0	1.3988155430535165e+18
14597.0	1.398567962515865e+18
14598.0	1.3984538782859261e+18
14599.0	1.398247037023027e+18
14600.0	1.3980203885789181e+18
14601.0	1.397791825015603e+18
14602.0	1.3975581360127997e+18
14603.0	1.397329855984435e+18
14604.0	1.3970594131345405e+18
14605.0	1.3968209040375805e+18
14606.0	1.396522741871411e+18
14607.0	1.3964140942983165e+18
14608.0	1.3961579473141757e+18
14609.0	1.3959086294958077e+18
14610.0	1.395675966419763e+18
14611.0	1.395429559448371e+18
14612.0	1.3952800350273536e+18
14613.0	1.395054039216947e+18
14614.0	1.3947863620911101e+18
14615.0	1.3945704149942272e+18
14616.0	1.3943697586520061e+18
14617.0	1.3940565968158717e+18
14618.0	1.3938356324925435e+18
14619.0	1.3935253043281917e+18
14620.0	1.39322980302848e+18
14621.0	1.3932076243877885e+18
14622.0	1.3929938583289853e+18
14623.0	1.3927695578562557e+18
14624.0	1.3925008061497341e+18
14625.0	1.392309492200243e+18
14626.0	1.392059654288179e+18
14627.0	1.391834415969075e+18
14628.0	1.3916414335254525e+18
14629.0	1.391414285120307e+18
14630.0	1.3911568966221821e+18
14631.0	1.3909274958757885e+18
14632.0	1.3906247224918013e+18
14633.0	1.3904733441884157e+18
14634.0	1.3902741491417083e+18
14635.0	1.3900316730720253e+18
14636.0	1.389754270194073e+18
14637.0	1.3895939185967101e+18
14638.0	1.38935760060416e+18
14639.0	1.3891233906687997e+18
14640.0	1.3888928700432381e+18
14641.0	1.3885167517040637e+18
14642.0	1.3884381185703936e+18
14643.0	1.388226006745088e+18
14644.0	1.3879861898641408e+18
14645.0	1.3877222439911421e+18
14646.0	1.3875028240105472e+18
14647.0	1.3873072880746493e+18
