# Flux units: erg / (cm m2 s)
# Wavelength units: Angstrom
wave	flux
14000.0	2.0617868701859837e+18
14001.0	2.0612840201125883e+18
14002.0	2.0607960094867453e+18
14003.0	2.0603012208656381e+18
14004.0	2.0598065547182072e+18
14005.0	2.0593118315282427e+18
14006.0	2.0588162359230461e+18
14007.0	2.058322049603993e+18
14008.0	2.0578138157219837e+18
14009.0	2.0573343312773115e+18
14010.0	2.056838245777408e+18
14011.0	2.0562667366252544e+18
14012.0	2.0558526548017152e+18
14013.0	2.0553591781588987e+18
14014.0	2.0548646311297021e+18
14015.0	2.054359818122035e+18
14016.0	2.0538670159233024e+18
14017.0	2.0533739956207616e+18
14018.0	2.052880758892134e+18
14019.0	2.0523883845124093e+18
14020.0	2.0518956762660861e+18
14021.0	2.051403145858252e+18
14022.0	2.0509109409284093e+18
14023.0	2.0504174424752125e+18
14024.0	2.0499245983334397e+18
14025.0	2.0494349989052408e+18
14026.0	2.0489429785247736e+18
14027.0	2.0484516946640893e+18
14028.0	2.0479602782633981e+18
14029.0	2.047468647114342e+18
14030.0	2.0469427417907197e+18
14031.0	2.0464838731890683e+18
14032.0	2.0459923729022968e+18
14033.0	2.0454864861528061e+18
14034.0	2.0450024567603197e+18
14035.0	2.044512060414361e+18
14036.0	2.0440217445990392e+18
14037.0	2.0435315898449915e+18
14038.0	2.0430415625977853e+18
14039.0	2.0425516813123581e+18
14040.0	2.04206011056128e+18
14041.0	2.0415717190926328e+18
14042.0	2.0410814703861755e+18
14043.0	2.0405880340086776e+18
14044.0	2.0401030130827261e+18
14045.0	2.0396154067877883e+18
14046.0	2.0391265304575997e+18
14047.0	2.0386376524496896e+18
14048.0	2.038149145218252e+18
14049.0	2.037660765493657e+18
14050.0	2.0371724595888125e+18
14051.0	2.0366830061223933e+18
14052.0	2.0361877410283515e+18
14053.0	2.0356962390638587e+18
14054.0	2.0352086143139837e+18
14055.0	2.0347205701337083e+18
14056.0	2.034233509098291e+18
14057.0	2.0337461326512125e+18
14058.0	2.0332589860519933e+18
14059.0	2.032771936760627e+18
14060.0	2.0322850250424323e+18
14061.0	2.0317974002925565e+18
14062.0	2.0313116613017597e+18
14063.0	2.0308227983933437e+18
14064.0	2.0303341619773435e+18
14065.0	2.0298514982502397e+18
14066.0	2.029366455513907e+18
14067.0	2.028880649414246e+18
14068.0	2.028394876869017e+18
14069.0	2.0279090573475837e+18
14070.0	2.02742374114263e+18
14071.0	2.0269380373839872e+18
14072.0	2.0264532026851328e+18
14073.0	2.0259681331052544e+18
14074.0	2.025481211320729e+18
14075.0	2.024983884306841e+18
14076.0	2.0245018950238203e+18
14077.0	2.0240058296565755e+18
14078.0	2.023524392343961e+18
14079.0	2.023039829436006e+18
14080.0	2.0225567177572352e+18
14081.0	2.0220727672176635e+18
14082.0	2.021585321984e+18
14083.0	2.0211050439770107e+18
14084.0	2.020621732649369e+18
14085.0	2.0201006105100283e+18
14086.0	2.019654443938611e+18
14087.0	2.0191719899267064e+18
14088.0	2.01868738339799e+18
14089.0	2.0182059125309437e+18
14090.0	2.0177233595334653e+18
14091.0	2.0172409558532093e+18
14092.0	2.0167585588838397e+18
14093.0	2.0162762860658688e+18
14094.0	2.0157941575319544e+18
14095.0	2.0153121749598205e+18
14096.0	2.014828355282534e+18
14097.0	2.0143464230420477e+18
14098.0	2.0138656836616187e+18
14099.0	2.0133821659742203e+18
14100.0	2.0128910532411387e+18
14101.0	2.012411442967347e+18
14102.0	2.0119303009337344e+18
14103.0	2.011447717737267e+18
14104.0	2.0109687634526205e+18
14105.0	2.010487253997977e+18
14106.0	2.0100076487573501e+18
14107.0	2.0095247602155515e+18
14108.0	2.0090453059698688e+18
14109.0	2.0085663583961083e+18
14110.0	2.0080832416841725e+18
14111.0	2.0075993716752381e+18
14112.0	2.007127534285619e+18
14113.0	2.0066482360680443e+18
14114.0	2.0061667937222653e+18
14115.0	2.0056894836047864e+18
14116.0	2.0052009663070205e+18
14117.0	2.0046753109639165e+18
14118.0	2.0042526090067963e+18
14119.0	2.0037732537466877e+18
14120.0	2.003294727281049e+18
14121.0	2.0028153065897981e+18
14122.0	2.002337717970534e+18
14123.0	2.001858270435737e+18
14124.0	2.0013807019491325e+18
14125.0	2.0008388146495483e+18
14126.0	2.000427413825126e+18
14127.0	1.9999393662894077e+18
14128.0	1.999460698895155e+18
14129.0	1.998981838562918e+18
14130.0	1.9985040670719997e+18
14131.0	1.99802938762199e+18
14132.0	1.9975524818354173e+18
14133.0	1.9969983706562555e+18
14134.0	1.9965990880149501e+18
14135.0	1.9961207058333693e+18
14136.0	1.9956419444867064e+18
14137.0	1.99517003663278e+18
14138.0	1.9946932130545661e+18
14139.0	1.994218062164787e+18
14140.0	1.9937355628543997e+18
14141.0	1.993266557458841e+18
14142.0	1.9927834122256381e+18
14143.0	1.9923055350382587e+18
14144.0	1.9918405930844155e+18
14145.0	1.9913654992371707e+18
14146.0	1.9908902611058683e+18
14147.0	1.9904155682340861e+18
14148.0	1.989940915627622e+18
14149.0	1.9894664928690173e+18
14150.0	1.9889919677693947e+18
14151.0	1.9885174594469883e+18
14152.0	1.9880436608008187e+18
14153.0	1.9875696222404603e+18
14154.0	1.9870919027589115e+18
14155.0	1.986606901965619e+18
14156.0	1.986147793449779e+18
14157.0	1.985675008147456e+18
14158.0	1.9851975420018683e+18
14159.0	1.984716943550054e+18
14160.0	1.9842438193479677e+18
14161.0	1.983761850197606e+18
14162.0	1.9832829915430912e+18
14163.0	1.9828254449860603e+18
14164.0	1.9823495273775101e+18
14165.0	1.9818113696530432e+18
14166.0	1.981407852442419e+18
14167.0	1.980934198080307e+18
14168.0	1.980463877351014e+18
14169.0	1.9799925265006592e+18
14170.0	1.9795202780692475e+18
14171.0	1.9790488970199037e+18
14172.0	1.978577821315891e+18
14173.0	1.978075221223014e+18
14174.0	1.9776347807154173e+18
14175.0	1.9771643224129533e+18
14176.0	1.976693402737049e+18
14177.0	1.9762225635917821e+18
14178.0	1.9757512395849725e+18
14179.0	1.9752748639584253e+18
14180.0	1.9748112104947707e+18
14181.0	1.9743409887510528e+18
14182.0	1.9738708072726525e+18
14183.0	1.9734009445613563e+18
14184.0	1.972930405728256e+18
14185.0	1.9724614573752317e+18
14186.0	1.9719781393367035e+18
14187.0	1.971519024109977e+18
14188.0	1.971053085589504e+18
14189.0	1.9705832279113725e+18
14190.0	1.9701149607133181e+18
14191.0	1.9696460895354877e+18
14192.0	1.9691764013072381e+18
14193.0	1.9687073506131965e+18
14194.0	1.9682392260214781e+18
14195.0	1.967761159251558e+18
14196.0	1.9672914995445755e+18
14197.0	1.9668215948902397e+18
14198.0	1.9663529283944445e+18
14199.0	1.9658846125424637e+18
14200.0	1.9654117836193787e+18
14201.0	1.9649505494302715e+18
14202.0	1.9644832066568187e+18
14203.0	1.9640084483538941e+18
14204.0	1.963548294617497e+18
14205.0	1.9630813494640637e+18
14206.0	1.9625977428574205e+18
14207.0	1.9621481101131773e+18
14208.0	1.961681535736217e+18
14209.0	1.9611953404051453e+18
14210.0	1.9607367536607232e+18
14211.0	1.9602824031633403e+18
14212.0	1.9598162599608317e+18
14213.0	1.959350276141875e+18
14214.0	1.9588845439811584e+18
14215.0	1.9584169461940221e+18
14216.0	1.9579534269480955e+18
14217.0	1.9574880236208125e+18
14218.0	1.95702092243927e+18
14219.0	1.9565575910981627e+18
14220.0	1.956092602168115e+18
14221.0	1.9556276551811072e+18
14222.0	1.9551616143196155e+18
14223.0	1.9546983098220541e+18
14224.0	1.954233861118361e+18
14225.0	1.9537520261857277e+18
14226.0	1.9533052925444093e+18
14227.0	1.9528412498493437e+18
14228.0	1.952336972034867e+18
14229.0	1.9519081749151736e+18
14230.0	1.9514497878196221e+18
14231.0	1.9509846495723515e+18
14232.0	1.9505228063703035e+18
14233.0	1.950059515294515e+18
14234.0	1.9495963584364544e+18
14235.0	1.949120284799795e+18
14236.0	1.9486535946600443e+18
14237.0	1.9481909142749181e+18
14238.0	1.947728405017395e+18
14239.0	1.9472652263489528e+18
14240.0	1.946610560925696e+18
14241.0	1.9463412832534525e+18
14242.0	1.945879211881267e+18
14243.0	1.9453950600151035e+18
14244.0	1.944955352671846e+18
14245.0	1.9444912193798144e+18
14246.0	1.9440271397748733e+18
14247.0	1.9435703951687677e+18
14248.0	1.9431073423294461e+18
14249.0	1.9426476969426944e+18
14250.0	1.9421865567059965e+18
14251.0	1.9417259835391997e+18
14252.0	1.9412651620696061e+18
14253.0	1.940804375832166e+18
14254.0	1.940343569462067e+18
14255.0	1.93987934725079e+18
14256.0	1.9394079343247355e+18
14257.0	1.9389629086040061e+18
14258.0	1.9385030300139515e+18
14259.0	1.9380408311349243e+18
14260.0	1.9375829389672445e+18
14261.0	1.937120505207193e+18
14262.0	1.936668669614489e+18
14263.0	1.936186208891699e+18
14264.0	1.935745889180057e+18
14265.0	1.9352905739927547e+18
14266.0	1.9348319016845307e+18
14267.0	1.9343728887988221e+18
14268.0	1.933914297021235e+18
14269.0	1.9334553663438845e+18
14270.0	1.932997237617459e+18
14271.0	1.9325377885241341e+18
14272.0	1.9320806395871227e+18
14273.0	1.9316225175715837e+18
14274.0	1.9311306850959352e+18
14275.0	1.9307038341332987e+18
14276.0	1.9302415782117373e+18
14277.0	1.9297872310697981e+18
14278.0	1.929334058332979e+18
14279.0	1.9288767131025405e+18
14280.0	1.928418433381171e+18
14281.0	1.9279625007923197e+18
14282.0	1.9275056320348155e+18
14283.0	1.9270487263674363e+18
14284.0	1.9265813500395517e+18
14285.0	1.926124783271936e+18
14286.0	1.9256682030825472e+18
14287.0	1.925212057423052e+18
14288.0	1.924755822844313e+18
14289.0	1.9241765055758326e+18
14290.0	1.9238423638310912e+18
14291.0	1.923387942869401e+18
14292.0	1.9229324246777856e+18
14293.0	1.9224765877190653e+18
14294.0	1.9220019116244987e+18
14295.0	1.9215642276134907e+18
14296.0	1.9210109603282944e+18
14297.0	1.9206560114802683e+18
14298.0	1.920181603821158e+18
14299.0	1.919744309041561e+18
14300.0	1.919290409851289e+18
14301.0	1.9188361784721403e+18
14302.0	1.9183824000778237e+18
14303.0	1.917923251296665e+18
14304.0	1.91747262030807e+18
14305.0	1.9170194744147963e+18
14306.0	1.916550708933427e+18
14307.0	1.9161091896508416e+18
14308.0	1.9156589931921403e+18
14309.0	1.9152048155000827e+18
14310.0	1.9146822287097853e+18
14311.0	1.9142893214105597e+18
14312.0	1.9138407758299133e+18
14313.0	1.913384635203584e+18
14314.0	1.9129396564590587e+18
14315.0	1.9124871548108797e+18
14316.0	1.912027219178291e+18
14317.0	1.9115733803859965e+18
14318.0	1.9111298914582525e+18
14319.0	1.9106779870789632e+18
14320.0	1.910225814264217e+18
14321.0	1.9097739098849275e+18
14322.0	1.9093155026567165e+18
14323.0	1.9088683076419581e+18
14324.0	1.9084187420065787e+18
14325.0	1.907965673288499e+18
14326.0	1.9075159063265277e+18
14327.0	1.9070645321072635e+18
14328.0	1.906612671348736e+18
14329.0	1.906162583941939e+18
14330.0	1.9057117197500408e+18
14331.0	1.9052608756908032e+18
14332.0	1.904810373886771e+18
14333.0	1.9043598989262843e+18
14334.0	1.9039095430840315e+18
14335.0	1.9034557697228797e+18
14336.0	1.903004754536038e+18
14337.0	1.902559129868697e+18
14338.0	1.9021090542059515e+18
14339.0	1.901651786150707e+18
14340.0	1.901199425431142e+18
14341.0	1.9007497457106941e+18
14342.0	1.9003004787097597e+18
14343.0	1.8998480609476605e+18
14344.0	1.8994004683128827e+18
14345.0	1.898953160890777e+18
14346.0	1.8985039307997181e+18
14347.0	1.8980536504549373e+18
14348.0	1.8976067926622205e+18
14349.0	1.897158342711705e+18
14350.0	1.8967085203849208e+18
14351.0	1.8962601878749181e+18
14352.0	1.895813464299929e+18
14353.0	1.8953655042441213e+18
14354.0	1.8949172589756416e+18
14355.0	1.8944693240856573e+18
14356.0	1.8940218371473403e+18
14357.0	1.8935746320662528e+18
14358.0	1.89312729612288e+18
14359.0	1.8926775358717952e+18
14360.0	1.8922326661791736e+18
14361.0	1.8917857597325307e+18
14362.0	1.8913388650299387e+18
14363.0	1.8908920122703864e+18
14364.0	1.8904400911138813e+18
14365.0	1.8899981876330493e+18
14366.0	1.8895515982757888e+18
14367.0	1.889106069238579e+18
14368.0	1.888659810392473e+18
14369.0	1.8882138250149883e+18
14370.0	1.8877678731919355e+18
14371.0	1.8873220522311677e+18
14372.0	1.8868763201896443e+18
14373.0	1.8864307273990141e+18
14374.0	1.885985297347379e+18
14375.0	1.8855399511818237e+18
14376.0	1.88509473252311e+18
14377.0	1.884649533997056e+18
14378.0	1.8842042683621368e+18
14379.0	1.8837597828677627e+18
14380.0	1.8833149735731197e+18
14381.0	1.8828684999786493e+18
14382.0	1.882425581476249e+18
14383.0	1.88197664498647e+18
14384.0	1.8815338841899003e+18
14385.0	1.881093145047859e+18
14386.0	1.8806468291592187e+18
14387.0	1.880205184047513e+18
14388.0	1.87976108778455e+18
14389.0	1.8793177062309883e+18
14390.0	1.8788739069247483e+18
14391.0	1.8784306662998016e+18
14392.0	1.8779853100679165e+18
14393.0	1.8775443276562427e+18
14394.0	1.8770956596019197e+18
14395.0	1.8766550697771005e+18
14396.0	1.8762153859219453e+18
14397.0	1.8757727727648765e+18
14398.0	1.8753285724831741e+18
14399.0	1.874887645436313e+18
14400.0	1.8744418731294715e+18
14401.0	1.8740022177955837e+18
14402.0	1.8735608427970555e+18
14403.0	1.872059951375972e+18
14404.0	1.8698919609368568e+18
14405.0	1.8720505058033654e+18
14406.0	1.8717832430747645e+18
14407.0	1.8697575251050499e+18
14408.0	1.8708975855861752e+18
14409.0	1.8704562827296768e+18
14410.0	1.870016986428211e+18
14411.0	1.8695767338254328e+18
14412.0	1.8691354309689341e+18
14413.0	1.8686950575702016e+18
14414.0	1.8682539375853565e+18
14415.0	1.8678135037886461e+18
14416.0	1.867373207565107e+18
14417.0	1.8669303997923325e+18
14418.0	1.866485256631091e+18
14419.0	1.8660521075015677e+18
14420.0	1.8656115529089021e+18
14421.0	1.865172228086169e+18
14422.0	1.8647324603449341e+18
14423.0	1.8642917983780856e+18
14424.0	1.8574057511321554e+18
14425.0	1.8634127628566525e+18
14426.0	1.862974414467891e+18
14427.0	1.862535254061875e+18
14428.0	1.8620913775804413e+18
14429.0	1.861656748700467e+18
14430.0	1.8612182560276477e+18
14431.0	1.8607713948794875e+18
14432.0	1.8603354020118525e+18
14433.0	1.858718918927973e+18
14434.0	1.8594621361750008e+18
14435.0	1.859023098242662e+18
14436.0	1.8585872916021243e+18
14437.0	1.8581491848052733e+18
14438.0	1.857675899541913e+18
14439.0	1.8572651429625853e+18
14440.0	1.8568354348400635e+18
14441.0	1.856397207247257e+18
14442.0	1.8559589058347003e+18
14443.0	1.8555162624786432e+18
14444.0	1.8550849890418683e+18
14445.0	1.854648350251417e+18
14446.0	1.8529545158131712e+18
14447.0	1.853772349728358e+18
14448.0	1.8533375748866043e+18
14449.0	1.852900845499187e+18
14450.0	1.8524641530216445e+18
14451.0	1.8520276199276541e+18
14452.0	1.8515904476217341e+18
14453.0	1.8511307720359933e+18
14454.0	1.8507185508057083e+18
14455.0	1.850281880138547e+18
14456.0	1.8498414647967741e+18
14457.0	1.849402804351795e+18
14458.0	1.8489728512819197e+18
14459.0	1.8485353165881344e+18
14460.0	1.848103601910579e+18
14461.0	1.847665344118784e+18
14462.0	1.8472244908916733e+18
14463.0	1.8467968916652027e+18
14464.0	1.8463625312206843e+18
14465.0	1.8459248472096765e+18
14466.0	1.8454925017088e+18
14467.0	1.845039948051251e+18
14468.0	1.844621572938137e+18
14469.0	1.84418600788951e+18
14470.0	1.8437498204061696e+18
14471.0	1.8433168474374141e+18
14472.0	1.842884639509708e+18
14473.0	1.8424515591667702e+18
14474.0	1.8420175359442944e+18
14475.0	1.8415826788941821e+18
14476.0	1.8410728813756408e+18
14477.0	1.8407159679156221e+18
14478.0	1.840282055422771e+18
14479.0	1.8398482519818237e+18
14480.0	1.839412970468147e+18
14481.0	1.8389723722547192e+18
14482.0	1.838538573846937e+18
14483.0	1.8381043073548288e+18
14484.0	1.8376721178820605e+18
14485.0	1.837233610109747e+18
14486.0	1.8367642372931584e+18
14487.0	1.8363744354566136e+18
14488.0	1.8359398367756285e+18
14489.0	1.835508685812531e+18
14490.0	1.8350755635265533e+18
14491.0	1.8346445685915643e+18
14492.0	1.8342126156775421e+18
14493.0	1.8337803154751488e+18
14494.0	1.8333454349369341e+18
14495.0	1.8329166596276221e+18
14496.0	1.8324651579015163e+18
14497.0	1.8320504184111104e+18
14498.0	1.8316177759535104e+18
14499.0	1.831186680355225e+18
14500.0	1.8307552425017341e+18
14501.0	1.8302873158811643e+18
14502.0	1.8298296636276733e+18
14503.0	1.8294585398657021e+18
14504.0	1.829030019570073e+18
14505.0	1.8285658275577853e+18
14506.0	1.8280897304330237e+18
14507.0	1.8277033293381627e+18
14508.0	1.8273079960535037e+18
14509.0	1.8268774943686653e+18
14510.0	1.8264470866362363e+18
14511.0	1.826016774533939e+18
14512.0	1.825584130398617e+18
14513.0	1.8251564489637885e+18
14514.0	1.824715865849856e+18
14515.0	1.8242957257736187e+18
14516.0	1.8235652441112576e+18
14517.0	1.8234368799539197e+18
14518.0	1.8230072037081085e+18
14519.0	1.822577700267622e+18
14520.0	1.822148233737011e+18
14521.0	1.8217182320132093e+18
14522.0	1.821289533879091e+18
14523.0	1.820780326918553e+18
14524.0	1.820344983329177e+18
14525.0	1.8200014362771453e+18
14526.0	1.819573323667865e+18
14527.0	1.8191387283423227e+18
14528.0	1.81869643563008e+18
14529.0	1.8182855750320125e+18
14530.0	1.817856133667225e+18
14531.0	1.817429816220057e+18
14532.0	1.8168751782363133e+18
14533.0	1.81657322693591e+18
14534.0	1.8161452217008125e+18
14535.0	1.815715236754227e+18
14536.0	1.8152889461506043e+18
14537.0	1.8148592078290941e+18
14538.0	1.8144329960783864e+18
14539.0	1.8140054421504e+18
14540.0	1.8135777456160763e+18
14541.0	1.8131478277783547e+18
14542.0	1.8127225639403517e+18
14543.0	1.812242037630566e+18
14544.0	1.811867659088691e+18
14545.0	1.8114395397685243e+18
14546.0	1.8039866189152207e+18
14547.0	1.8043803516534723e+18
14548.0	1.8101570726002685e+18
14549.0	1.8097146708361213e+18
14550.0	1.8093051037614077e+18
14551.0	1.8088783752724477e+18
14552.0	1.8084506384728061e+18
14553.0	1.8080231180992507e+18
14554.0	1.8075983709995003e+18
14555.0	1.8071716089561085e+18
14556.0	1.8067432111341563e+18
14557.0	1.806319187132416e+18
14558.0	1.80589285123031e+18
14559.0	1.805243046166527e+18
14560.0	1.8050374833274875e+18
14561.0	1.8046136489082875e+18
14562.0	1.8041850245939192e+18
14563.0	1.8037627638775803e+18
14564.0	1.8033360286777344e+18
14565.0	1.8029111389716475e+18
14566.0	1.802485415437926e+18
14567.0	1.8020597221031933e+18
14568.0	1.8016314937311227e+18
14569.0	1.8012086172909563e+18
14570.0	1.8007205915656187e+18
14571.0	1.8003514307379195e+18
14572.0	1.7999167901138941e+18
14573.0	1.7994907679457277e+18
14574.0	1.7990697755869181e+18
14575.0	1.798646884047257e+18
14576.0	1.7982217577824253e+18
14577.0	1.79779587318743e+18
14578.0	1.7973716512145403e+18
14579.0	1.7969468974039037e+18
14580.0	1.7965221318492155e+18
14581.0	1.796094205467033e+18
14582.0	1.7956724967211005e+18
14583.0	1.7952477882089472e+18
14584.0	1.7948216469225464e+18
14585.0	1.7943984382935035e+18
14586.0	1.793973327128166e+18
14587.0	1.7935476002390013e+18
14588.0	1.7931258495500288e+18
14589.0	1.79271715824599e+18
14590.0	1.7923103627673597e+18
14591.0	1.7919034515259387e+18
14592.0	1.7914965788721147e+18
14593.0	1.7910730296655872e+18
14594.0	1.7906832362176507e+18
14595.0	1.7902755381247997e+18
14596.0	1.7898597483806715e+18
14597.0	1.7894584054972413e+18
14598.0	1.789055953639833e+18
14599.0	1.7886500758749181e+18
14600.0	1.7882433525383165e+18
14601.0	1.7878368556941307e+18
14602.0	1.7874279496417277e+18
14603.0	1.7870233234571261e+18
14604.0	1.7866108824453115e+18
14605.0	1.7862092593823741e+18
14606.0	1.785794578612224e+18
14607.0	1.785397076033536e+18
14608.0	1.784990314109337e+18
14609.0	1.7845763715366912e+18
14610.0	1.7841743290433533e+18
14611.0	1.7837689713721341e+18
14612.0	1.7833631003181053e+18
14613.0	1.7829566789713915e+18
14614.0	1.7825496469340155e+18
14615.0	1.7821431853219837e+18
14616.0	1.7817371230076925e+18
14617.0	1.7813305338888187e+18
14618.0	1.7809227703648256e+18
14619.0	1.780515139380838e+18
14620.0	1.780098663448576e+18
14621.0	1.7797043032424443e+18
14622.0	1.77929769231319e+18
14623.0	1.7788910612512768e+18
14624.0	1.7784757848899584e+18
14625.0	1.7780777034973181e+18
14626.0	1.777668856165171e+18
14627.0	1.7772595055165437e+18
14628.0	1.7768574563123197e+18
14629.0	1.7764506088243197e+18
14630.0	1.7760435851755517e+18
14631.0	1.7756359776796664e+18
14632.0	1.7747086422310912e+18
14633.0	1.774772779850137e+18
14634.0	1.774414618165248e+18
14635.0	1.7739949965049853e+18
14636.0	1.7735509639954432e+18
14637.0	1.7731916195168253e+18
14638.0	1.772780693487616e+18
14639.0	1.7723724417466363e+18
14640.0	1.771965721765478e+18
14641.0	1.7695665412898796e+18
14642.0	1.7711508926496765e+18
14643.0	1.7707441810571261e+18
14644.0	1.770334838797107e+18
14645.0	1.7699254092955648e+18
14646.0	1.769520095245107e+18
14647.0	1.769111271401062e+18
14648.0	1.768704762812825e+18
