# Flux units: erg / (cm m2 s)
# Wavelength units: Angstrom
wave	flux
14000.0	1.0954728192081916e+18
14001.0	1.09518495154176e+18
14002.0	1.0951942989676541e+18
14003.0	1.09505301970944e+18
14004.0	1.0949115139588095e+18
14005.0	1.0947700006584316e+18
14006.0	1.0946263373578239e+18
14007.0	1.0944830020517885e+18
14008.0	1.0942839202512893e+18
14009.0	1.0942034332352512e+18
14010.0	1.0940603252604928e+18
14011.0	1.0937463874781183e+18
14012.0	1.0937790736891903e+18
14013.0	1.0936390929874941e+18
14014.0	1.0934980242833405e+18
14015.0	1.0933565076275196e+18
14016.0	1.093215800472371e+18
14017.0	1.0930747401568255e+18
14018.0	1.0928923860795392e+18
14019.0	1.0927926404972541e+18
14020.0	1.0926515508215804e+18
14021.0	1.0925104905060351e+18
14022.0	1.0923696088678397e+18
14023.0	1.0922287347793919e+18
14024.0	1.092086568006451e+18
14025.0	1.0919471585689596e+18
14026.0	1.0918061091586047e+18
14027.0	1.0916656301735933e+18
14028.0	1.0915248852697087e+18
14029.0	1.0913840078258175e+18
14030.0	1.0911885884915711e+18
14031.0	1.0910984923250685e+18
14032.0	1.0909621011087359e+18
14033.0	1.0908152887246845e+18
14034.0	1.0906811842428924e+18
14035.0	1.0905408025657341e+18
14036.0	1.0903853775978495e+18
14037.0	1.0902554783252477e+18
14038.0	1.090119548482355e+18
14039.0	1.0899791936487421e+18
14040.0	1.089838865658675e+18
14041.0	1.0896985527681021e+18
14042.0	1.0895565294403583e+18
14043.0	1.0894086449922047e+18
14044.0	1.089251159782195e+18
14045.0	1.0891123534856188e+18
14046.0	1.0889975964893181e+18
14047.0	1.0888573423190013e+18
14048.0	1.0887165563109375e+18
14049.0	1.0885774144700413e+18
14050.0	1.0884374262185981e+18
14051.0	1.0882958684585983e+18
14052.0	1.0881574765592575e+18
14053.0	1.0880176493690877e+18
14054.0	1.0878777919799295e+18
14055.0	1.0877379647897597e+18
14056.0	1.0875981644431359e+18
14057.0	1.0874584102338557e+18
14058.0	1.0873186082095103e+18
14059.0	1.0871410792595455e+18
14060.0	1.087039310345011e+18
14061.0	1.0868977953669116e+18
14062.0	1.0867600300965887e+18
14063.0	1.0866178096365565e+18
14064.0	1.0864620961005565e+18
14065.0	1.0863392868794365e+18
14066.0	1.0862020123426813e+18
14067.0	1.0860625970331647e+18
14068.0	1.0859231951454205e+18
14069.0	1.0857836615565311e+18
14070.0	1.0856444693839872e+18
14071.0	1.0855043972464639e+18
14072.0	1.0853659181055997e+18
14073.0	1.0852266814734332e+18
14074.0	1.0850874867843072e+18
14075.0	1.0849456899489791e+18
14076.0	1.0848091175387133e+18
14077.0	1.0846577660788732e+18
14078.0	1.084530177028915e+18
14079.0	1.0843909320081408e+18
14080.0	1.0842403858546685e+18
14081.0	1.0841117658447872e+18
14082.0	1.083974989591347e+18
14083.0	1.0838357630255103e+18
14084.0	1.0836968569044991e+18
14085.0	1.0835113814261759e+18
14086.0	1.0834048981139452e+18
14087.0	1.0832544534626301e+18
14088.0	1.0831401075081213e+18
14089.0	1.0830033404821504e+18
14090.0	1.0828645450907645e+18
14091.0	1.0827260298788864e+18
14092.0	1.0825874265866239e+18
14093.0	1.0824488417492991e+18
14094.0	1.0823102904664063e+18
14095.0	1.0821717475721212e+18
14096.0	1.0820315001126911e+18
14097.0	1.0818923901485055e+18
14098.0	1.0817556793262079e+18
14099.0	1.0816179660652541e+18
14100.0	1.081476367201075e+18
14101.0	1.0813413424889852e+18
14102.0	1.081203003437875e+18
14103.0	1.0810596513546237e+18
14104.0	1.0809265635721215e+18
14105.0	1.0807883780325373e+18
14106.0	1.0806502042370047e+18
14107.0	1.0804795321352191e+18
14108.0	1.0803715170631677e+18
14109.0	1.0802350629322751e+18
14110.0	1.0800978034950141e+18
14111.0	1.0799593461645311e+18
14112.0	1.0798206178820095e+18
14113.0	1.0796839146094588e+18
14114.0	1.0795437258702847e+18
14115.0	1.0794070074982397e+18
14116.0	1.0792688286695421e+18
14117.0	1.0790333604429821e+18
14118.0	1.0789940455538687e+18
14119.0	1.07885587595264e+18
14120.0	1.0787178548297728e+18
14121.0	1.0785809351311357e+18
14122.0	1.0784419619012605e+18
14123.0	1.078305629405184e+18
14124.0	1.0781671435534333e+18
14125.0	1.0779406159052796e+18
14126.0	1.0778928931143679e+18
14127.0	1.0777560765956095e+18
14128.0	1.0776184220549119e+18
14129.0	1.0774794697965565e+18
14130.0	1.0773367292428285e+18
14131.0	1.0772002885337085e+18
14132.0	1.0770681276923901e+18
14133.0	1.0768257757741052e+18
14134.0	1.0767626103947264e+18
14135.0	1.0766551179329532e+18
14136.0	1.0765200932208639e+18
14137.0	1.0763829386412031e+18
14138.0	1.076245336109875e+18
14139.0	1.0761084499656701e+18
14140.0	1.0759715185229823e+18
14141.0	1.0758340292378623e+18
14142.0	1.0756932449075197e+18
14143.0	1.0755607191617533e+18
14144.0	1.0754238514724863e+18
14145.0	1.0752860434202621e+18
14146.0	1.0751497914548223e+18
14147.0	1.0750131091537919e+18
14148.0	1.0748763807154171e+18
14149.0	1.0747396917035008e+18
14150.0	1.0746029305495551e+18
14151.0	1.0744656904060928e+18
14152.0	1.0743295365873663e+18
14153.0	1.074192853447475e+18
14154.0	1.0740524205998079e+18
14155.0	1.0739137325826045e+18
14156.0	1.0737826790375421e+18
14157.0	1.073646536962867e+18
14158.0	1.0735093555396605e+18
14159.0	1.0733735414595583e+18
14160.0	1.0732355916398591e+18
14161.0	1.0730894687993856e+18
14162.0	1.0729445371412479e+18
14163.0	1.072802223567667e+18
14164.0	1.0726880369967101e+18
14165.0	1.0725534610751484e+18
14166.0	1.0724191561056252e+18
14167.0	1.0722808195710973e+18
14168.0	1.0721465984876541e+18
14169.0	1.0720106728390652e+18
14170.0	1.0718738043109375e+18
14171.0	1.0717375993217023e+18
14172.0	1.0716023816716285e+18
14173.0	1.0714632859680767e+18
14174.0	1.071329351775027e+18
14175.0	1.0711944159821821e+18
14176.0	1.0710585012387839e+18
14177.0	1.0709226141777919e+18
14178.0	1.0707867262779388e+18
14179.0	1.0706501161189375e+18
14180.0	1.0705150981177341e+18
14181.0	1.0703793217863679e+18
14182.0	1.070243387749171e+18
14183.0	1.0701078504931328e+18
14184.0	1.0699712109740031e+18
14185.0	1.0698363599060991e+18
14186.0	1.069664724792115e+18
14187.0	1.0695602371297279e+18
14188.0	1.069423602643763e+18
14189.0	1.069292081853235e+18
14190.0	1.0691585721237503e+18
14191.0	1.0690230768107519e+18
14192.0	1.0688862862966781e+18
14193.0	1.0687501802930173e+18
14194.0	1.0686168064589821e+18
14195.0	1.0684817389649919e+18
14196.0	1.068346387936051e+18
14197.0	1.068211104854835e+18
14198.0	1.0680745584492541e+18
14199.0	1.067940299617075e+18
14200.0	1.0677946029178879e+18
14201.0	1.0676687914139647e+18
14202.0	1.0675351894097919e+18
14203.0	1.0673992503394303e+18
14204.0	1.0672641979449344e+18
14205.0	1.0671287538024447e+18
14206.0	1.0669717710700541e+18
14207.0	1.0668595818266623e+18
14208.0	1.0667249169858559e+18
14209.0	1.0665647272886268e+18
14210.0	1.0664369864048637e+18
14211.0	1.0663201792327676e+18
14212.0	1.0661854934204415e+18
14213.0	1.0660509409869823e+18
14214.0	1.0659158726541307e+18
14215.0	1.0657776887922687e+18
14216.0	1.0656468097302524e+18
14217.0	1.0655121675386879e+18
14218.0	1.0653757662560255e+18
14219.0	1.0652429099991039e+18
14220.0	1.0651083709874173e+18
14221.0	1.064973743056486e+18
14222.0	1.0648392543764477e+18
14223.0	1.0647047690518527e+18
14224.0	1.0645702292013056e+18
14225.0	1.0643946422140927e+18
14226.0	1.0643007434915837e+18
14227.0	1.0641519186804736e+18
14228.0	1.0638642775064576e+18
14229.0	1.063872743289651e+18
14230.0	1.0637641368207357e+18
14231.0	1.0636300893814783e+18
14232.0	1.0634959253405693e+18
14233.0	1.0633617663328255e+18
14234.0	1.0632276266188797e+18
14235.0	1.0630929106075648e+18
14236.0	1.0629593866174464e+18
14237.0	1.0628249264586751e+18
14238.0	1.0626908421095421e+18
14239.0	1.0625541891686396e+18
14240.0	1.0619294828199937e+18
14241.0	1.0622854542393341e+18
14242.0	1.0621543428128765e+18
14243.0	1.0619917799784447e+18
14244.0	1.0618876437987327e+18
14245.0	1.0617537691648001e+18
14246.0	1.0616197645074431e+18
14247.0	1.0614865987108863e+18
14248.0	1.0613469837524991e+18
14249.0	1.0612188175663103e+18
14250.0	1.0610851786522623e+18
14251.0	1.0609520095002621e+18
14252.0	1.0608179050184701e+18
14253.0	1.0606811438645245e+18
14254.0	1.0605493672214527e+18
14255.0	1.0604083144556544e+18
14256.0	1.060248835273523e+18
14257.0	1.0601445279662077e+18
14258.0	1.0600174061617151e+18
14259.0	1.0598818026356733e+18
14260.0	1.0597456186179583e+18
14261.0	1.059615231128371e+18
14262.0	1.0594984348614652e+18
14263.0	1.0593128033550336e+18
14264.0	1.0592181404303357e+18
14265.0	1.0590988846235648e+18
14266.0	1.0589659570634751e+18
14267.0	1.0588329238069247e+18
14268.0	1.0586998343467005e+18
14269.0	1.0585661459398655e+18
14270.0	1.0584336814309375e+18
14271.0	1.0583006255251455e+18
14272.0	1.0581675058659327e+18
14273.0	1.058033551540224e+18
14274.0	1.05782043475968e+18
14275.0	1.0577594546126847e+18
14276.0	1.0576356244979711e+18
14277.0	1.0575024318578685e+18
14278.0	1.0573702886326272e+18
14279.0	1.0572373350678527e+18
14280.0	1.057103426040627e+18
14281.0	1.0569721191596031e+18
14282.0	1.0568395086888957e+18
14283.0	1.0567068436922365e+18
14284.0	1.0565741971505151e+18
14285.0	1.056441539703603e+18
14286.0	1.0563088025649151e+18
14287.0	1.056175599019622e+18
14288.0	1.0560420632854528e+18
14289.0	1.0555961517277175e+18
14290.0	1.0557772567412732e+18
14291.0	1.0556460840779775e+18
14292.0	1.0555140138336256e+18
14293.0	1.0553809914822655e+18
14294.0	1.0552223721324541e+18
14295.0	1.0551137061044223e+18
14296.0	1.0547349990408192e+18
14297.0	1.0548485321392124e+18
14298.0	1.0546769054138368e+18
14299.0	1.0545870650998783e+18
14300.0	1.0544560987963388e+18
14301.0	1.0543240486846463e+18
14302.0	1.0541910229778431e+18
14303.0	1.0540537912229885e+18
14304.0	1.0539241805185023e+18
14305.0	1.0537952811679741e+18
14306.0	1.0536632084070396e+18
14307.0	1.053531028271923e+18
14308.0	1.0533996593151996e+18
14309.0	1.0532674640805887e+18
14310.0	1.0531332757127165e+18
14311.0	1.0529936213278719e+18
14312.0	1.0528635618328575e+18
14313.0	1.0526107870691327e+18
14314.0	1.0526083820552192e+18
14315.0	1.052476395696947e+18
14316.0	1.0523347909607423e+18
14317.0	1.0522120488484863e+18
14318.0	1.0520821453815805e+18
14319.0	1.051950664856371e+18
14320.0	1.051818955322163e+18
14321.0	1.0516873540009983e+18
14322.0	1.0515485930029052e+18
14323.0	1.0514208051429375e+18
14324.0	1.051292079436595e+18
14325.0	1.0511596593872895e+18
14326.0	1.0510292492484608e+18
14327.0	1.0508978173771775e+18
14328.0	1.0507659098718205e+18
14329.0	1.050636161594163e+18
14330.0	1.0505048924618748e+18
14331.0	1.0503735755145213e+18
14332.0	1.0502424137564157e+18
14333.0	1.0501112285102077e+18
14334.0	1.0499800600412157e+18
14335.0	1.0498453473853437e+18
14336.0	1.0497142149873664e+18
14337.0	1.049586629292851e+18
14338.0	1.0494552955682813e+18
14339.0	1.0493241900138495e+18
14340.0	1.0491935902924799e+18
14341.0	1.0490623647809533e+18
14342.0	1.0489232548167677e+18
14343.0	1.0488006829932541e+18
14344.0	1.048650356621312e+18
14345.0	1.048528066655027e+18
14346.0	1.0484075156471805e+18
14347.0	1.0482745327222783e+18
14348.0	1.048146473910272e+18
14349.0	1.0480158649614333e+18
14350.0	1.0478823309049855e+18
14351.0	1.0477516053544959e+18
14352.0	1.0476198689767423e+18
14353.0	1.0474903287365631e+18
14354.0	1.0473619343802365e+18
14355.0	1.0472311341711357e+18
14356.0	1.0470921231925248e+18
14357.0	1.0469613364051967e+18
14358.0	1.0468407929470975e+18
14359.0	1.0467084123242493e+18
14360.0	1.0465788628566013e+18
14361.0	1.0464494501232639e+18
14362.0	1.0463191901405181e+18
14363.0	1.0461887028264959e+18
14364.0	1.0460499116294141e+18
14365.0	1.0459261536567295e+18
14366.0	1.0457958089490431e+18
14367.0	1.0456676444405759e+18
14368.0	1.0455360817070079e+18
14369.0	1.0454063921496064e+18
14370.0	1.0452759383900157e+18
14371.0	1.0451471053094911e+18
14372.0	1.0450161666883583e+18
14373.0	1.044885228906086e+18
14374.0	1.0447519280529405e+18
14375.0	1.0446166491660285e+18
14376.0	1.0444970158718975e+18
14377.0	1.0443669337276413e+18
14378.0	1.0442365797924863e+18
14379.0	1.0441072937271293e+18
14380.0	1.0439773877436413e+18
14381.0	1.0438470648463357e+18
14382.0	1.0437174499475456e+18
14383.0	1.0435878384041981e+18
14384.0	1.0434556398141439e+18
14385.0	1.0433286362890239e+18
14386.0	1.0431966901960701e+18
14387.0	1.0430692194254847e+18
14388.0	1.0429393553850365e+18
14389.0	1.0428097723629567e+18
14390.0	1.0426797355171837e+18
14391.0	1.0425507606691837e+18
14392.0	1.0424198270812157e+18
14393.0	1.042290901726003e+18
14394.0	1.0421556035452924e+18
14395.0	1.0420310595600383e+18
14396.0	1.0418991017230332e+18
14397.0	1.0417740586156031e+18
14398.0	1.0416446693703677e+18
14399.0	1.0415109574754303e+18
14400.0	1.0413804240240637e+18
14401.0	1.0412551586185213e+18
14402.0	1.041126500021043e+18
14403.0	1.0409810507857919e+18
14404.0	1.040076638047436e+18
14405.0	1.040212999064779e+18
14406.0	1.0406077938008063e+18
14407.0	1.0404547721691133e+18
14408.0	1.0403518003281919e+18
14409.0	1.0402176505479165e+18
14410.0	1.0400937944285183e+18
14411.0	1.0399653363187711e+18
14412.0	1.0398356098514941e+18
14413.0	1.0397078974889983e+18
14414.0	1.0395785552199679e+18
14415.0	1.0394499033333759e+18
14416.0	1.0393213101670399e+18
14417.0	1.0391922078121981e+18
14418.0	1.0390627355197439e+18
14419.0	1.0389342765711359e+18
14420.0	1.038804659155763e+18
14421.0	1.0386756373315581e+18
14422.0	1.0385479593623548e+18
14423.0	1.0384176951853055e+18
14424.0	1.0382000259071999e+18
14425.0	1.0381599065505791e+18
14426.0	1.0380340614922237e+18
14427.0	1.0379042427502588e+18
14428.0	1.0377730063335423e+18
14429.0	1.0376448225312765e+18
14430.0	1.037519910286131e+18
14431.0	1.0373750826467327e+18
14432.0	1.037263042720563e+18
14433.0	1.0371139477962751e+18
14434.0	1.0370035436486655e+18
14435.0	1.0368742131236863e+18
14436.0	1.0367494317408255e+18
14437.0	1.0366215356678141e+18
14438.0	1.0364914157748225e+18
14439.0	1.0363649960968192e+18
14440.0	1.0362368894697472e+18
14441.0	1.0361033889677311e+18
14442.0	1.035970932847411e+18
14443.0	1.0358345231761408e+18
14444.0	1.035722751685427e+18
14445.0	1.0355955560611837e+18
14446.0	1.0352169832153089e+18
14447.0	1.0353359538094077e+18
14448.0	1.0352122100973565e+18
14449.0	1.0350843668725759e+18
14450.0	1.0349564112404477e+18
14451.0	1.0348285428498428e+18
14452.0	1.0347007407292415e+18
14453.0	1.0345726768840701e+18
14454.0	1.034445020725248e+18
14455.0	1.0343158579724285e+18
14456.0	1.0341887286181885e+18
14457.0	1.0340609810235391e+18
14458.0	1.0339328559415293e+18
14459.0	1.03380447920128e+18
14460.0	1.033678158508851e+18
14461.0	1.0335459481747455e+18
14462.0	1.0334146496823295e+18
14463.0	1.0332943394275328e+18
14464.0	1.033168048095232e+18
14465.0	1.033029438092083e+18
14466.0	1.0329127533936639e+18
14467.0	1.0327823155724285e+18
14468.0	1.0326583814389757e+18
14469.0	1.0325078646456317e+18
14470.0	1.0323956267483133e+18
14471.0	1.0322731354554365e+18
14472.0	1.0321491065307136e+18
14473.0	1.032021801854566e+18
14474.0	1.0318945777090559e+18
14475.0	1.0317672889712639e+18
14476.0	1.0316388786765821e+18
14477.0	1.031512766021632e+18
14478.0	1.0313857289420799e+18
14479.0	1.0312584032944127e+18
14480.0	1.0311280267100157e+18
14481.0	1.031004335007334e+18
14482.0	1.0308764179628031e+18
14483.0	1.0307479825022973e+18
14484.0	1.0306207390629885e+18
14485.0	1.0304879029387263e+18
14486.0	1.0303014627704831e+18
14487.0	1.0302416159244285e+18
14488.0	1.0301151400427517e+18
14489.0	1.029986868998963e+18
14490.0	1.0298609341825023e+18
14491.0	1.029734360154112e+18
14492.0	1.0296078784004095e+18
14493.0	1.0294810250313727e+18
14494.0	1.029350206367334e+18
14495.0	1.0292269877821437e+18
14496.0	1.0290715116437501e+18
14497.0	1.0289730537127933e+18
14498.0	1.0288458429890559e+18
14499.0	1.028720222745395e+18
14500.0	1.0285942099148799e+18
14501.0	1.0284666569359359e+18
14502.0	1.0282734194786303e+18
14503.0	1.028211683518054e+18
14504.0	1.0280868996186111e+18
14505.0	1.0279613565501437e+18
14506.0	1.0278337867939837e+18
14507.0	1.027653023196774e+18
14508.0	1.0275802176290815e+18
14509.0	1.0274561333395455e+18
14510.0	1.0273285090574333e+18
14511.0	1.0272033669644285e+18
14512.0	1.0270741714960381e+18
14513.0	1.0269505066369021e+18
14514.0	1.0268177711759357e+18
14515.0	1.0266950768787455e+18
14516.0	1.0257097568550916e+18
14517.0	1.0264371221495804e+18
14518.0	1.0263189946105853e+18
14519.0	1.02617040551936e+18
14520.0	1.0260669093904384e+18
14521.0	1.0259417370984447e+18
14522.0	1.0258158383529983e+18
14523.0	1.025688328155955e+18
14524.0	1.0255627750211583e+18
14525.0	1.0254367437357055e+18
14526.0	1.0253119875186687e+18
14527.0	1.0251794131189759e+18
14528.0	1.0250179399647231e+18
14529.0	1.0249317788942333e+18
14530.0	1.0248050589040639e+18
14531.0	1.0246822773653503e+18
14532.0	1.0245554835554301e+18
14533.0	1.0244301929840639e+18
14534.0	1.0243047732281341e+18
14535.0	1.0241779232145405e+18
14536.0	1.0240539026784256e+18
14537.0	1.0239252541472765e+18
14538.0	1.0238027896979456e+18
14539.0	1.0236772248190975e+18
14540.0	1.023551489651507e+18
14541.0	1.023422031619686e+18
14542.0	1.0233005100498941e+18
14543.0	1.0231722171957247e+18
14544.0	1.0230476170067967e+18
14545.0	1.0229234706415613e+18
14546.0	1.0225955540828157e+18
14547.0	1.0224529636851707e+18
14548.0	1.0225431848419328e+18
14549.0	1.0223947710726141e+18
14550.0	1.0222967199891455e+18
14551.0	1.022171899179827e+18
14552.0	1.0220453343789053e+18
14553.0	1.0219160659296253e+18
14554.0	1.021796216209408e+18
14555.0	1.0216709675810815e+18
14556.0	1.0215442459131901e+18
14557.0	1.0214199871406076e+18
14558.0	1.0212919182622717e+18
14559.0	1.0205400733319154e+18
14560.0	1.0210413790625791e+18
14561.0	1.0209176538054653e+18
14562.0	1.0207902434328575e+18
14563.0	1.020670129471488e+18
14564.0	1.0205122927788031e+18
14565.0	1.0204204635258877e+18
14566.0	1.0202955655413757e+18
14567.0	1.0201705928982527e+18
14568.0	1.0200455648903165e+18
14569.0	1.0199196401401855e+18
14570.0	1.0196256102023165e+18
14571.0	1.0196698005504e+18
14572.0	1.0195375113633791e+18
14573.0	1.0194106496057344e+18
14574.0	1.0192951820943357e+18
14575.0	1.019172032295731e+18
14576.0	1.0190472576237564e+18
14577.0	1.0189228503728127e+18
14578.0	1.0187970925559805e+18
14579.0	1.0186736365731837e+18
14580.0	1.0185490934267901e+18
14581.0	1.0184238775140351e+18
14582.0	1.0182999190536191e+18
14583.0	1.01817545392128e+18
14584.0	1.0180485258936317e+18
14585.0	1.0179264590643199e+18
14586.0	1.0178013807247357e+18
14587.0	1.0176772360372223e+18
14588.0	1.017553295192883e+18
14589.0	1.0174290934628348e+18
14590.0	1.0173048976048127e+18
14591.0	1.0171805775953919e+18
14592.0	1.0170558515773437e+18
14593.0	1.0169062063603712e+18
14594.0	1.0168079472394237e+18
14595.0	1.0166829116817405e+18
14596.0	1.0165480329314301e+18
14597.0	1.0164233798942719e+18
14598.0	1.0163105766047741e+18
14599.0	1.0161881490653183e+18
14600.0	1.016064157889331e+18
14601.0	1.0159402623434748e+18
14602.0	1.0158158584479744e+18
14603.0	1.0156919813570557e+18
14604.0	1.0155528596488188e+18
14605.0	1.0154076696215551e+18
14606.0	1.0152929713455103e+18
14607.0	1.0151951132000255e+18
14608.0	1.015051971670835e+18
14609.0	1.0149146677739519e+18
14610.0	1.0147883420483583e+18
14611.0	1.0146533768953856e+18
14612.0	1.0145785127632892e+18
14613.0	1.0144551331168253e+18
14614.0	1.0143057278140415e+18
14615.0	1.0141911419453437e+18
14616.0	1.014084354126643e+18
14617.0	1.0139076329996287e+18
14618.0	1.0138001002725375e+18
14619.0	1.013704790586163e+18
14620.0	1.0135682643132413e+18
14621.0	1.0134666749149183e+18
14622.0	1.0133433606995967e+18
14623.0	1.0132198594183165e+18
14624.0	1.0130843322286077e+18
14625.0	1.0129729919123453e+18
14626.0	1.012827602236211e+18
14627.0	1.0127037436002301e+18
14628.0	1.0126032690479104e+18
14629.0	1.0124800001310719e+18
14630.0	1.0123367914930175e+18
14631.0	1.0122132876951548e+18
14632.0	1.0120631920099324e+18
14633.0	1.0119766668738557e+18
14634.0	1.0118633443295231e+18
14635.0	1.011733702587187e+18
14636.0	1.01159474865111e+18
14637.0	1.0114943470796799e+18
14638.0	1.0113707442962431e+18
14639.0	1.0112451534127103e+18
14640.0	1.011124152775475e+18
14641.0	1.0109720882839548e+18
14642.0	1.0108778531782655e+18
14643.0	1.0107560396849148e+18
14644.0	1.0106329989382144e+18
14645.0	1.010482025804595e+18
