# Flux units: erg / (cm m2 s)
# Wavelength units: Angstrom
wave	flux
14000.0	1.7364265249800187e+18
14001.0	1.7359524931305472e+18
14002.0	1.7358441592913917e+18
14003.0	1.7355407768944637e+18
14004.0	1.7352365438926843e+18
14005.0	1.7349321548627965e+18
14006.0	1.7346173857693693e+18
14007.0	1.7343121763336187e+18
14008.0	1.7338960644669437e+18
14009.0	1.733711011774464e+18
14010.0	1.7333926825558013e+18
14011.0	1.7322484797800448e+18
14012.0	1.7327992321605627e+18
14013.0	1.7324993964670976e+18
14014.0	1.7321889223409661e+18
14015.0	1.7318895580872704e+18
14016.0	1.7315889271537661e+18
14017.0	1.7312855565008893e+18
14018.0	1.7309820482748413e+18
14019.0	1.7306787111763965e+18
14020.0	1.7303744429424637e+18
14021.0	1.7300703324143616e+18
14022.0	1.7297672838840315e+18
14023.0	1.7294525164683261e+18
14024.0	1.7291456846757885e+18
14025.0	1.7288592304898043e+18
14026.0	1.728554286134067e+18
14027.0	1.728253712243097e+18
14028.0	1.7279432112734205e+18
14029.0	1.727643316859699e+18
14030.0	1.7269291560730621e+18
14031.0	1.7270096766435328e+18
14032.0	1.726738303497011e+18
14033.0	1.726386196709376e+18
14034.0	1.726134665976217e+18
14035.0	1.7258332867788797e+18
14036.0	1.7255312281042941e+18
14037.0	1.7252291392307197e+18
14038.0	1.7249269832482816e+18
14039.0	1.724619861209907e+18
14040.0	1.724317544166195e+18
14041.0	1.7240188744892413e+18
14042.0	1.7237054542839805e+18
14043.0	1.7233638785548288e+18
14044.0	1.7230983556235261e+18
14045.0	1.7228086651125757e+18
14046.0	1.7225072204840957e+18
14047.0	1.7222012745285627e+18
14048.0	1.7219079601389563e+18
14049.0	1.7216082016206848e+18
14050.0	1.7213068895322107e+18
14051.0	1.720994563201433e+18
14052.0	1.720699654976307e+18
14053.0	1.7204032217022461e+18
14054.0	1.7201023844089853e+18
14055.0	1.7198014045093888e+18
14056.0	1.719500459841945e+18
14057.0	1.7191996611362813e+18
14058.0	1.71889887585239e+18
14059.0	1.7185981694214144e+18
14060.0	1.7182974915117053e+18
14061.0	1.7179875928440832e+18
14062.0	1.717696180990771e+18
14063.0	1.7173761539178493e+18
14064.0	1.717010789774131e+18
14065.0	1.7167835457388541e+18
14066.0	1.7164949826568187e+18
14067.0	1.7161948684615675e+18
14068.0	1.7158947257450493e+18
14069.0	1.7155931519320061e+18
14070.0	1.7152944285679616e+18
14071.0	1.7149907542474747e+18
14072.0	1.7146948427448315e+18
14073.0	1.7143950674493435e+18
14074.0	1.7140954179829757e+18
14075.0	1.7137741326188541e+18
14076.0	1.7134937735954427e+18
14077.0	1.7131043744120832e+18
14078.0	1.7128899985014781e+18
14079.0	1.712585102799667e+18
14080.0	1.7122984070217723e+18
14081.0	1.7119991971184637e+18
14082.0	1.7116984118345725e+18
14083.0	1.711398701970227e+18
14084.0	1.7111000373264381e+18
14085.0	1.7104711148634112e+18
14086.0	1.7104930410070013e+18
14087.0	1.7102045483892733e+18
14088.0	1.7098917707513853e+18
14089.0	1.709607482503987e+18
14090.0	1.7093066619879421e+18
14091.0	1.7090103629316093e+18
14092.0	1.7087119113584637e+18
14093.0	1.7084134513967096e+18
14094.0	1.7081149914349563e+18
14095.0	1.7078163821559805e+18
14096.0	1.707499643417395e+18
14097.0	1.7072006365183997e+18
14098.0	1.7069142091759613e+18
14099.0	1.7066236965814267e+18
14100.0	1.7063092764540923e+18
14101.0	1.706028130579251e+18
14102.0	1.7057299675742205e+18
14103.0	1.705410963911475e+18
14104.0	1.705131089749606e+18
14105.0	1.7048369415323643e+18
14106.0	1.7045393137205243e+18
14107.0	1.7042413805633533e+18
14108.0	1.7039301111971837e+18
14109.0	1.703640689121689e+18
14110.0	1.7033471599837184e+18
14111.0	1.7030409623699453e+18
14112.0	1.7027448159862781e+18
14113.0	1.7024574944182272e+18
14114.0	1.7021439836159997e+18
14115.0	1.7018606298595325e+18
14116.0	1.7015473874927613e+18
14117.0	1.700534570450944e+18
14118.0	1.7009690047152125e+18
14119.0	1.7006584165040123e+18
14120.0	1.700369787990835e+18
14121.0	1.7000681135144957e+18
14122.0	1.6997725996318715e+18
14123.0	1.6994817884028923e+18
14124.0	1.6991809662091261e+18
14125.0	1.6982943440306168e+18
14126.0	1.6985968271687677e+18
14127.0	1.69830362686423e+18
14128.0	1.6980061399810043e+18
14129.0	1.697697043264307e+18
14130.0	1.697389453141606e+18
14131.0	1.6971193600966653e+18
14132.0	1.6968125769580541e+18
14133.0	1.695823160777112e+18
14134.0	1.6962273272659963e+18
14135.0	1.6959194183761912e+18
14136.0	1.695634225836851e+18
14137.0	1.6953434196410363e+18
14138.0	1.6950427048214525e+18
14139.0	1.694753671977369e+18
14140.0	1.69445564654551e+18
14141.0	1.6941560792875005e+18
14142.0	1.693819570277581e+18
14143.0	1.693570332989849e+18
14144.0	1.693278142673715e+18
14145.0	1.692980833628979e+18
14146.0	1.6926861552517115e+18
14147.0	1.6923921177640957e+18
14148.0	1.6920977229217787e+18
14149.0	1.691803898504806e+18
14150.0	1.6915091026870272e+18
14151.0	1.6912111376531453e+18
14152.0	1.6909174306766843e+18
14153.0	1.690625111175987e+18
14154.0	1.690299054371635e+18
14155.0	1.6900128921092093e+18
14156.0	1.6897389939916797e+18
14157.0	1.6894474898636797e+18
14158.0	1.689148070245171e+18
14159.0	1.688858931704627e+18
14160.0	1.6885554654216184e+18
14161.0	1.6881932050628605e+18
14162.0	1.687839579937177e+18
14163.0	1.6876788156203003e+18
14164.0	1.6873555220234235e+18
14165.0	1.6870544381050877e+18
14166.0	1.686799728089497e+18
14167.0	1.686489854587699e+18
14168.0	1.6862100039139325e+18
14169.0	1.6859208267857912e+18
14170.0	1.6856233885564925e+18
14171.0	1.685329807409152e+18
14172.0	1.685040420565811e+18
14173.0	1.684711771681587e+18
14174.0	1.684447656358707e+18
14175.0	1.6841608649506816e+18
14176.0	1.6838678743613435e+18
14177.0	1.6835748921606144e+18
14178.0	1.683281342889984e+18
14179.0	1.682982003802112e+18
14180.0	1.6826961670176763e+18
14181.0	1.682403384465817e+18
14182.0	1.6821095684374525e+18
14183.0	1.6818179099590653e+18
14184.0	1.6815186027479037e+18
14185.0	1.6812316754444288e+18
14186.0	1.6807889414914048e+18
14187.0	1.6806134300016637e+18
14188.0	1.6803500864307195e+18
14189.0	1.6800618203054075e+18
14190.0	1.6797696517996544e+18
14191.0	1.679477203114393e+18
14192.0	1.6791756578226176e+18
14193.0	1.678873599148032e+18
14194.0	1.6786005549907965e+18
14195.0	1.6783109215223805e+18
14196.0	1.678018736239411e+18
14197.0	1.6777269603205115e+18
14198.0	1.6774282302455805e+18
14199.0	1.6771412308000763e+18
14200.0	1.676769803370496e+18
14201.0	1.6765558821224448e+18
14202.0	1.676266864377856e+18
14203.0	1.675969474802483e+18
14204.0	1.6756823998595072e+18
14205.0	1.6753906524618747e+18
14206.0	1.674939860412006e+18
14207.0	1.674810571830067e+18
14208.0	1.6745207856889853e+18
14209.0	1.6740540989046776e+18
14210.0	1.6738168791367672e+18
14211.0	1.6736389383061504e+18
14212.0	1.6733565962158077e+18
14213.0	1.67306704495575e+18
14214.0	1.672775159984947e+18
14215.0	1.6724680027144187e+18
14216.0	1.672195586025062e+18
14217.0	1.6719050952409085e+18
14218.0	1.6715996559572987e+18
14219.0	1.6713240381751293e+18
14220.0	1.6710338812575741e+18
14221.0	1.6707429509103613e+18
14222.0	1.670441264689971e+18
14223.0	1.6701627108950013e+18
14224.0	1.6698723392290813e+18
14225.0	1.6693217177108483e+18
14226.0	1.6692892605087741e+18
14227.0	1.6690019943055357e+18
14228.0	1.667985971137741e+18
14229.0	1.668300288924057e+18
14230.0	1.6681331677200381e+18
14231.0	1.6678410663231485e+18
14232.0	1.6675412574732285e+18
14233.0	1.6672293220515837e+18
14234.0	1.6669429936947195e+18
14235.0	1.6666500047831037e+18
14236.0	1.6663637770895357e+18
14237.0	1.666072335037235e+18
14238.0	1.6657833927901181e+18
14239.0	1.6654826762928123e+18
14240.0	1.6629427651739653e+18
14241.0	1.6649051776745467e+18
14242.0	1.6646234664075267e+18
14243.0	1.6641359976857597e+18
14244.0	1.66404908164055e+18
14245.0	1.6637477309644797e+18
14246.0	1.6634574834499584e+18
14247.0	1.6631775371460605e+18
14248.0	1.66287090164695e+18
14249.0	1.6626002834751488e+18
14250.0	1.6623034072825853e+18
14251.0	1.6619970267971581e+18
14252.0	1.6617082338672637e+18
14253.0	1.6614185416785915e+18
14254.0	1.6611274905354237e+18
14255.0	1.6607945634611197e+18
14256.0	1.6602854621970432e+18
14257.0	1.6602380095193085e+18
14258.0	1.6599768201428987e+18
14259.0	1.6596642975186941e+18
14260.0	1.6593855876956157e+18
14261.0	1.6590873861029885e+18
14262.0	1.658847361184563e+18
14263.0	1.6581643791761405e+18
14264.0	1.65817542026199e+18
14265.0	1.6579786084188157e+18
14266.0	1.657696930706227e+18
14267.0	1.6574106979794944e+18
14268.0	1.6571231213977597e+18
14269.0	1.6568237588217853e+18
14270.0	1.6565334827859965e+18
14271.0	1.6562277616451581e+18
14272.0	1.6559398495191037e+18
14273.0	1.6556468505411581e+18
14274.0	1.6547535493529597e+18
14275.0	1.6550124536725504e+18
14276.0	1.654773700467097e+18
14277.0	1.654490133639987e+18
14278.0	1.6542159016558587e+18
14279.0	1.6539275919097853e+18
14280.0	1.653632472291737e+18
14281.0	1.653355003982643e+18
14282.0	1.6530684457779197e+18
14283.0	1.652781466465075e+18
14284.0	1.652494503929446e+18
14285.0	1.6522073836879872e+18
14286.0	1.6519197349642235e+18
14287.0	1.6516331549491197e+18
14288.0	1.6513418135601147e+18
14289.0	1.649604881809405e+18
14290.0	1.6507684001939453e+18
14291.0	1.6504853551382525e+18
14292.0	1.6501977399689213e+18
14293.0	1.6498927201157115e+18
14294.0	1.6494146348908541e+18
14295.0	1.649288641354137e+18
14296.0	1.647852962971649e+18
14297.0	1.6487251802324987e+18
14298.0	1.6482102589521915e+18
14299.0	1.648143983915827e+18
14300.0	1.6478678275850235e+18
14301.0	1.647587802428211e+18
14302.0	1.6473033380200443e+18
14303.0	1.6469753216368637e+18
14304.0	1.6467107315187707e+18
14305.0	1.6464467554467837e+18
14306.0	1.646152254908006e+18
14307.0	1.645869360847257e+18
14308.0	1.6455892719370235e+18
14309.0	1.6452996149805053e+18
14310.0	1.6449672365211643e+18
14311.0	1.6446588629024768e+18
14312.0	1.6443666960744443e+18
14313.0	1.6439311461253123e+18
14314.0	1.6438384150970365e+18
14315.0	1.6435556787421184e+18
14316.0	1.6432038085132285e+18
14317.0	1.6429785945210875e+18
14318.0	1.642693157034393e+18
14319.0	1.642387845257625e+18
14320.0	1.6421021863116797e+18
14321.0	1.6418139503853565e+18
14322.0	1.6414803388006397e+18
14323.0	1.6412228320231421e+18
14324.0	1.640963258292633e+18
14325.0	1.6406666840899584e+18
14326.0	1.640393936889446e+18
14327.0	1.640100739940352e+18
14328.0	1.6398154953916413e+18
14329.0	1.6395399447183357e+18
14330.0	1.6392554064904187e+18
14331.0	1.6389704958083072e+18
14332.0	1.6386863501672443e+18
14333.0	1.6384019847446525e+18
14334.0	1.638117607578009e+18
14335.0	1.6378160354426877e+18
14336.0	1.6375224308072443e+18
14337.0	1.6372609746731005e+18
14338.0	1.636976708236083e+18
14339.0	1.636682053346918e+18
14340.0	1.6364121817612285e+18
14341.0	1.636126908691251e+18
14342.0	1.6358413185318907e+18
14343.0	1.6355579245101053e+18
14344.0	1.6352712773861376e+18
14345.0	1.6349928896856061e+18
14346.0	1.6346896213737467e+18
14347.0	1.6343762934431744e+18
14348.0	1.6341102135083005e+18
14349.0	1.6338275593617403e+18
14350.0	1.6335229253844992e+18
14351.0	1.633231198119526e+18
14352.0	1.632963403553177e+18
14353.0	1.6326905288458237e+18
14354.0	1.6324061617455104e+18
14355.0	1.632118930774425e+18
14356.0	1.6318375298859005e+18
14357.0	1.6315604457750528e+18
14358.0	1.6312772514021368e+18
14359.0	1.63097523299287e+18
14360.0	1.6307086547746813e+18
14361.0	1.6304271112798203e+18
14362.0	1.630144906762649e+18
14363.0	1.6298613634236416e+18
14364.0	1.629512826827571e+18
14365.0	1.629281631757926e+18
14366.0	1.6289985950908416e+18
14367.0	1.6287307753586685e+18
14368.0	1.628447476967014e+18
14369.0	1.6281655459184637e+18
14370.0	1.6278830176010235e+18
14371.0	1.6276005631033341e+18
14372.0	1.6273109749334016e+18
14373.0	1.627035216222617e+18
14374.0	1.626752463090483e+18
14375.0	1.626466842732134e+18
14376.0	1.6261886043488253e+18
14377.0	1.6259054619852797e+18
14378.0	1.6256081244192765e+18
14379.0	1.6253117800644605e+18
14380.0	1.6250284799950848e+18
14381.0	1.624731738020249e+18
14382.0	1.6244630760718333e+18
14383.0	1.6241795914530813e+18
14384.0	1.6238776250531837e+18
14385.0	1.6236190814437376e+18
14386.0	1.623314177353318e+18
14387.0	1.6230547009306624e+18
14388.0	1.622770600588083e+18
14389.0	1.6224907750801403e+18
14390.0	1.6222064230793213e+18
14391.0	1.621927780365107e+18
14392.0	1.6216447789301752e+18
14393.0	1.6213645860012032e+18
14394.0	1.621032699114291e+18
14395.0	1.6207876141875195e+18
14396.0	1.6205197642563581e+18
14397.0	1.6202382694154237e+18
14398.0	1.6199563635326976e+18
14399.0	1.6196749525778424e+18
14400.0	1.6193660186001403e+18
14401.0	1.6191023126413307e+18
14402.0	1.6188217824903165e+18
14403.0	1.617868964128357e+18
14404.0	1.6135638583607265e+18
14405.0	1.6156133697781696e+18
14406.0	1.6176939224006653e+18
14407.0	1.6164552638988288e+18
14408.0	1.617127652773068e+18
14409.0	1.616833826678374e+18
14410.0	1.6165769842786304e+18
14411.0	1.616300804459724e+18
14412.0	1.6160164524589056e+18
14413.0	1.6157414789218301e+18
14414.0	1.6154574557544443e+18
14415.0	1.6151591383990272e+18
14416.0	1.6148692885045248e+18
14417.0	1.614585273725747e+18
14418.0	1.6142975629262843e+18
14419.0	1.614024877801472e+18
14420.0	1.6137389286096893e+18
14421.0	1.6134644114128893e+18
14422.0	1.613176942205337e+18
14423.0	1.6128744708112381e+18
14424.0	1.6087259518337e+18
14425.0	1.6123161133187072e+18
14426.0	1.6120613731041272e+18
14427.0	1.611782054268108e+18
14428.0	1.6114739406962685e+18
14429.0	1.6112192759791616e+18
14430.0	1.6109436984623101e+18
14431.0	1.610547106886451e+18
14432.0	1.6103777257914365e+18
14433.0	1.6093585350852603e+18
14434.0	1.609800207040512e+18
14435.0	1.609517942125363e+18
14436.0	1.6092644518133752e+18
14437.0	1.6089854701993981e+18
14438.0	1.6086790712590333e+18
14439.0	1.6084196669784067e+18
14440.0	1.6081454870036475e+18
14441.0	1.6078524964143101e+18
14442.0	1.6075622841319421e+18
14443.0	1.6072252265070587e+18
14444.0	1.6070192979247101e+18
14445.0	1.6067440358195197e+18
14446.0	1.604685303644161e+18
14447.0	1.6061635911221248e+18
14448.0	1.605909337446809e+18
14449.0	1.605631260124774e+18
14450.0	1.605344503948902e+18
14451.0	1.6050678342352893e+18
14452.0	1.6047923473154043e+18
14453.0	1.6045034134568957e+18
14454.0	1.6042346978213885e+18
14455.0	1.6039435829247995e+18
14456.0	1.6036542564794363e+18
14457.0	1.6033648612474875e+18
14458.0	1.6030874315259904e+18
14459.0	1.602805409880473e+18
14460.0	1.6025245794172925e+18
14461.0	1.6022136741167104e+18
14462.0	1.601908513334886e+18
14463.0	1.6016795479572477e+18
14464.0	1.6014115822632957e+18
14465.0	1.6010977510162424e+18
14466.0	1.6008530049892347e+18
14467.0	1.6005447907540992e+18
14468.0	1.6002937130057725e+18
14469.0	1.599986304077004e+18
14470.0	1.599697680596992e+18
14471.0	1.5994486110814205e+18
14472.0	1.5991774912708603e+18
14473.0	1.598904343094886e+18
14474.0	1.5986291531317243e+18
14475.0	1.59834846527488e+18
14476.0	1.5980261548228605e+18
14477.0	1.5977939799638016e+18
14478.0	1.5975123894927352e+18
14479.0	1.597234030313472e+18
14480.0	1.5969341174448125e+18
14481.0	1.5966815616237563e+18
14482.0	1.5963978169581565e+18
14483.0	1.5961099853627392e+18
14484.0	1.5958306380054525e+18
14485.0	1.5955102200233981e+18
14486.0	1.5948595022790653e+18
14487.0	1.5950102069772285e+18
14488.0	1.594730663326515e+18
14489.0	1.5944458281418755e+18
14490.0	1.594172022299033e+18
14491.0	1.5938984127496187e+18
14492.0	1.5936229040193533e+18
14493.0	1.593335845853593e+18
14494.0	1.5930375754743805e+18
14495.0	1.592786516180992e+18
14496.0	1.5923184033333248e+18
14497.0	1.5922310628245504e+18
14498.0	1.5919557906530301e+18
14499.0	1.591678250201907e+18
14500.0	1.591399879278592e+18
14501.0	1.591092438473113e+18
14502.0	1.5905152552665088e+18
14503.0	1.5905426809815035e+18
14504.0	1.5902785253933053e+18
14505.0	1.5899866370670592e+18
14506.0	1.589662766333952e+18
14507.0	1.5890730488692733e+18
14508.0	1.5891490983116797e+18
14509.0	1.588873098008985e+18
14510.0	1.588547512644403e+18
14511.0	1.5882670026260477e+18
14512.0	1.5879681047789565e+18
14513.0	1.5877110660857853e+18
14514.0	1.5873880744787965e+18
14515.0	1.5871479371530235e+18
14516.0	1.5831070305943575e+18
14517.0	1.5865777282351104e+18
14518.0	1.5863230148640765e+18
14519.0	1.5860478215454715e+18
14520.0	1.5857694388781053e+18
14521.0	1.5854935711154176e+18
14522.0	1.5852164551278587e+18
14523.0	1.584888717246464e+18
14524.0	1.5846147855745021e+18
14525.0	1.584377220195942e+18
14526.0	1.584104561914675e+18
14527.0	1.583800142685798e+18
14528.0	1.5833485621067776e+18
14529.0	1.5832605991632893e+18
14530.0	1.5829734202015744e+18
14531.0	1.5827191933698048e+18
14532.0	1.582383357126246e+18
14533.0	1.5821673806692347e+18
14534.0	1.5818924910182397e+18
14535.0	1.581600549004902e+18
14536.0	1.581333130248192e+18
14537.0	1.5810414029832187e+18
14538.0	1.5807846578913277e+18
14539.0	1.5805079361683453e+18
14540.0	1.5802308889673723e+18
14541.0	1.5799228626370557e+18
14542.0	1.579673627027046e+18
14543.0	1.5793549538754557e+18
14544.0	1.5791196584542203e+18
14545.0	1.5788295971667965e+18
14546.0	1.5731065448562652e+18
14547.0	1.5731835036237778e+18
14548.0	1.577984790521446e+18
14549.0	1.5775604410417147e+18
14550.0	1.577447527022592e+18
14551.0	1.5771851565301757e+18
14552.0	1.5769072755015677e+18
14553.0	1.576618240979763e+18
14554.0	1.5763558637764603e+18
14555.0	1.5760789390491643e+18
14556.0	1.5758010127220733e+18
14557.0	1.5755242775773181e+18
14558.0	1.5752389273321472e+18
14559.0	1.5721837660995528e+18
14560.0	1.5746833481465853e+18
14561.0	1.5744069821005821e+18
14562.0	1.5740826986479613e+18
14563.0	1.5738343270645757e+18
14564.0	1.5735524044046333e+18
14565.0	1.5732846920466432e+18
14566.0	1.5730081162854397e+18
14567.0	1.5727306580426755e+18
14568.0	1.5724446501306363e+18
14569.0	1.5721738658643963e+18
14570.0	1.5711268870553595e+18
14571.0	1.5716172213256187e+18
14572.0	1.571292261751193e+18
14573.0	1.5710011401437181e+18
14574.0	1.5707753154609147e+18
14575.0	1.570513907980697e+18
14576.0	1.5702344851259387e+18
14577.0	1.5699548810772477e+18
14578.0	1.5696846118715387e+18
14579.0	1.5694113630322685e+18
14580.0	1.5691348946452477e+18
14581.0	1.5688535927422968e+18
14582.0	1.5685808388308992e+18
14583.0	1.5683045214388221e+18
14584.0	1.5680111449735165e+18
14585.0	1.5677507374153728e+18
14586.0	1.5674694472564733e+18
14587.0	1.567196285658726e+18
14588.0	1.566920708141875e+18
14589.0	1.5666468821663744e+18
14590.0	1.5663728330539003e+18
14591.0	1.5660974031765501e+18
14592.0	1.5658121418506237e+18
14593.0	1.5653795665018875e+18
14594.0	1.5652743565803515e+18
14595.0	1.5649896136703997e+18
14596.0	1.564616097477427e+18
14597.0	1.5643165335748603e+18
14598.0	1.5641117324214267e+18
14599.0	1.5638466977071101e+18
14600.0	1.5635715496869885e+18
14601.0	1.5632977404887037e+18
14602.0	1.5630176935215101e+18
14603.0	1.5627486104649723e+18
14604.0	1.5624128228753403e+18
14605.0	1.5621876223049725e+18
14606.0	1.5618112791511037e+18
14607.0	1.5616404954808315e+18
14608.0	1.5613715869073403e+18
14609.0	1.5610975310839803e+18
14610.0	1.5608116339015675e+18
14611.0	1.5605462619652093e+18
14612.0	1.5602799773483005e+18
14613.0	1.5600069550014464e+18
14614.0	1.5597256312881147e+18
14615.0	1.559457110268313e+18
14616.0	1.5591842691153915e+18
14617.0	1.5589074836389888e+18
14618.0	1.558631375962112e+18
14619.0	1.5583116844335104e+18
14620.0	1.5579217852891139e+18
14621.0	1.557810592612352e+18
14622.0	1.557532105926246e+18
14623.0	1.557261338437222e+18
14624.0	1.5569028965728253e+18
14625.0	1.5567066316668925e+18
14626.0	1.5564320406503421e+18
14627.0	1.5561314550153213e+18
14628.0	1.5558601254895613e+18
14629.0	1.555584959014502e+18
14630.0	1.5553071534833667e+18
14631.0	1.555032471869849e+18
14632.0	1.5544254671618048e+18
14633.0	1.5544411907686397e+18
14634.0	1.554204935690649e+18
14635.0	1.5539040665206781e+18
14636.0	1.5535726561067003e+18
14637.0	1.553382123975475e+18
14638.0	1.5531006123573243e+18
14639.0	1.5528130693300221e+18
14640.0	1.552544261419827e+18
14641.0	1.5510184323448822e+18
14642.0	1.551990326401433e+18
14643.0	1.5517260349177853e+18
14644.0	1.5514352975085565e+18
14645.0	1.5511404731695101e+18
14646.0	1.5508877495762941e+18
14647.0	1.5506066993315837e+18
