# Flux units: erg / (cm m2 s)
# Wavelength units: Angstrom
wave	flux
14000.0	1.1879699756089341e+18
14001.0	1.1877247287820285e+18
14002.0	1.1876380878831613e+18
14003.0	1.187465817751552e+18
14004.0	1.187293385719808e+18
14005.0	1.1871208211480573e+18
14006.0	1.186946984863334e+18
14007.0	1.1867730655313917e+18
14008.0	1.1865614402453501e+18
14009.0	1.186428229989171e+18
14010.0	1.1862541042974717e+18
14011.0	1.1859744130072573e+18
14012.0	1.1859085540458493e+18
14013.0	1.185741744898048e+18
14014.0	1.1855702414852093e+18
14015.0	1.1853981995237373e+18
14016.0	1.1852264528412667e+18
14017.0	1.1850545417420797e+18
14018.0	1.1848529047715837e+18
14019.0	1.184710712832819e+18
14020.0	1.1845387732123645e+18
14021.0	1.1843668587577341e+18
14022.0	1.1841951221415933e+18
14023.0	1.1840231355449341e+18
14024.0	1.1838509467828224e+18
14025.0	1.1836799433310205e+18
14026.0	1.183508189098803e+18
14027.0	1.1833366479372285e+18
14028.0	1.1831649708802048e+18
14029.0	1.182992688165683e+18
14030.0	1.1827937741373437e+18
14031.0	1.182642785065369e+18
14032.0	1.1824787156369403e+18
14033.0	1.1823033006161917e+18
14034.0	1.1821366961504256e+18
14035.0	1.1819655081492475e+18
14036.0	1.1817828227219453e+18
14037.0	1.181619619836723e+18
14038.0	1.1814519433068544e+18
14039.0	1.1812808140259325e+18
14040.0	1.1811097082331136e+18
14041.0	1.180938557141811e+18
14042.0	1.1807661938966525e+18
14043.0	1.1805907746815997e+18
14044.0	1.1804069861523453e+18
14045.0	1.1802367183814653e+18
14046.0	1.1800839735738365e+18
14047.0	1.179913100145459e+18
14048.0	1.179741607637811e+18
14049.0	1.1795716485677056e+18
14050.0	1.1794009328451581e+18
14051.0	1.1792293933613053e+18
14052.0	1.1790594569404413e+18
14053.0	1.178889084311961e+18
14054.0	1.1787185548165117e+18
14055.0	1.1785480530034685e+18
14056.0	1.1783775813894141e+18
14057.0	1.1782071575904253e+18
14058.0	1.178036732113715e+18
14059.0	1.1778392055611392e+18
14060.0	1.1776960489324541e+18
14061.0	1.1775246067564541e+18
14062.0	1.1773553162584061e+18
14063.0	1.1771833699270653e+18
14064.0	1.177004577652736e+18
14065.0	1.1768435734216701e+18
14066.0	1.1766749498179581e+18
14067.0	1.1765049748094973e+18
14068.0	1.1763349737963517e+18
14069.0	1.176164952650547e+18
14070.0	1.1759950724333565e+18
14071.0	1.1758247098712064e+18
14072.0	1.17565535813632e+18
14073.0	1.175485559288627e+18
14074.0	1.175315782251315e+18
14075.0	1.1751439768485885e+18
14076.0	1.174976106541875e+18
14077.0	1.1747999457738752e+18
14078.0	1.174635940098867e+18
14079.0	1.1744668198895613e+18
14080.0	1.174288148411187e+18
14081.0	1.174126676095795e+18
14082.0	1.1739588645093373e+18
14083.0	1.1737890413346813e+18
14084.0	1.1736184707350525e+18
14085.0	1.173422225961779e+18
14086.0	1.1732682664837117e+18
14087.0	1.1730931341590525e+18
14088.0	1.1729414547046397e+18
14089.0	1.1727738142457853e+18
14090.0	1.172604689842176e+18
14091.0	1.1724356300308477e+18
14092.0	1.1722665794469885e+18
14093.0	1.172097547318067e+18
14094.0	1.1719285369995261e+18
14095.0	1.1717594998374397e+18
14096.0	1.1715899845246973e+18
14097.0	1.1714196320288765e+18
14098.0	1.171252621554483e+18
14099.0	1.1710839258087424e+18
14100.0	1.1709132872613885e+18
14101.0	1.1707465980706813e+18
14102.0	1.1705778360549373e+18
14103.0	1.1704060650455037e+18
14104.0	1.1702406425346045e+18
14105.0	1.1700721313382397e+18
14106.0	1.1699035974926333e+18
14107.0	1.1697118297194493e+18
14108.0	1.1695645433790464e+18
14109.0	1.1693977124208637e+18
14110.0	1.1692296525316093e+18
14111.0	1.1690611547570173e+18
14112.0	1.1688919724720125e+18
14113.0	1.1687246574911485e+18
14114.0	1.168554488705843e+18
14115.0	1.1683867853324285e+18
14116.0	1.1682149287591933e+18
14117.0	1.1679972502536192e+18
14118.0	1.1678811754070016e+18
14119.0	1.1677147949170685e+18
14120.0	1.167546647786291e+18
14121.0	1.1673790358487037e+18
14122.0	1.1672110271299581e+18
14123.0	1.1670427675918333e+18
14124.0	1.1668708128718845e+18
14125.0	1.1666518576201725e+18
14126.0	1.1665369253019645e+18
14127.0	1.166372142002995e+18
14128.0	1.1662047355863037e+18
14129.0	1.1660359416938496e+18
14130.0	1.1658639718744061e+18
14131.0	1.1656966065618944e+18
14132.0	1.165529741210419e+18
14133.0	1.1653009779982336e+18
14134.0	1.165172566864691e+18
14135.0	1.1650301735993341e+18
14136.0	1.1648646017712128e+18
14137.0	1.1646974260412413e+18
14138.0	1.1645301311930365e+18
14139.0	1.1643630217330683e+18
14140.0	1.164195760439296e+18
14141.0	1.1640278431563773e+18
14142.0	1.1638599711719421e+18
14143.0	1.1636942097612797e+18
14144.0	1.163527359509299e+18
14145.0	1.1633597266001917e+18
14146.0	1.1631932169256957e+18
14147.0	1.163026337313587e+18
14148.0	1.1628594736398333e+18
14149.0	1.1626926082883584e+18
14150.0	1.1625257068658685e+18
14151.0	1.1623586183774205e+18
14152.0	1.1621921372241917e+18
14153.0	1.1620253784080381e+18
14154.0	1.1618556626075645e+18
14155.0	1.1616902828785664e+18
14156.0	1.161525242049331e+18
14157.0	1.1613586174509053e+18
14158.0	1.1611916917014525e+18
14159.0	1.1610253405716477e+18
14160.0	1.1608562874712061e+18
14161.0	1.160685798241075e+18
14162.0	1.1605138082889725e+18
14163.0	1.160340334392115e+18
14164.0	1.1601911572594688e+18
14165.0	1.160025920975667e+18
14166.0	1.159860837364531e+18
14167.0	1.1596930291335165e+18
14168.0	1.1595284622606333e+18
14169.0	1.1593624441585664e+18
14170.0	1.159195822076723e+18
14171.0	1.1590296873730045e+18
14172.0	1.1588641172226045e+18
14173.0	1.158696657118822e+18
14174.0	1.1585311867928573e+18
14175.0	1.1583662692761597e+18
14176.0	1.1582004441120765e+18
14177.0	1.1580346063650813e+18
14178.0	1.1578687585517565e+18
14179.0	1.1577025391230973e+18
14180.0	1.15753724411904e+18
14181.0	1.1573715464617981e+18
14182.0	1.1572057649184765e+18
14183.0	1.157040167924531e+18
14184.0	1.1568739535290365e+18
14185.0	1.1567084001558525e+18
14186.0	1.156520585933619e+18
14187.0	1.156373235000934e+18
14188.0	1.156207653106483e+18
14189.0	1.1560454996361213e+18
14190.0	1.155881713742643e+18
14191.0	1.1557162669047805e+18
14192.0	1.1555501221347328e+18
14193.0	1.1553848170643453e+18
14194.0	1.1552205177880573e+18
14195.0	1.1550555230961661e+18
14196.0	1.1548903740538875e+18
14197.0	1.154725239272243e+18
14198.0	1.1545594392739837e+18
14199.0	1.1543946039656445e+18
14200.0	1.1542247405256701e+18
14201.0	1.1540628336803837e+18
14202.0	1.1539000191877117e+18
14203.0	1.1537347023732733e+18
14204.0	1.153569666577203e+18
14205.0	1.1534038976167936e+18
14206.0	1.153226568315699e+18
14207.0	1.1530741749907453e+18
14208.0	1.1529103328935933e+18
14209.0	1.1527306514268159e+18
14210.0	1.1525681481515005e+18
14211.0	1.1524165970427901e+18
14212.0	1.1522526383439871e+18
14213.0	1.1520883608780796e+18
14214.0	1.1519236404936703e+18
14215.0	1.1517572365156348e+18
14216.0	1.1515951040167933e+18
14217.0	1.1514307820912639e+18
14218.0	1.1512650525573116e+18
14219.0	1.151102128173875e+18
14220.0	1.1509378540634111e+18
14221.0	1.1507735640145919e+18
14222.0	1.1506093310083071e+18
14223.0	1.1504450560589821e+18
14224.0	1.1502804120109055e+18
14225.0	1.1500945573675005e+18
14226.0	1.149949986419507e+18
14227.0	1.1497768061239293e+18
14228.0	1.149539477304115e+18
14229.0	1.1494353939726332e+18
14230.0	1.1492961749565439e+18
14231.0	1.1491329435500541e+18
14232.0	1.1489692818079741e+18
14233.0	1.1488055177248765e+18
14234.0	1.148641687371776e+18
14235.0	1.1484775558676479e+18
14236.0	1.1483140182769661e+18
14237.0	1.148149748360806e+18
14238.0	1.1479849944219644e+18
14239.0	1.1478135254024188e+18
14240.0	1.147345264915251e+18
14241.0	1.1474790120423423e+18
14242.0	1.14732757417984e+18
14243.0	1.1471509394554877e+18
14244.0	1.1470047998377983e+18
14245.0	1.1468424542683133e+18
14246.0	1.1466793872785405e+18
14247.0	1.1465160266874879e+18
14248.0	1.1463493173641213e+18
14249.0	1.1461894950879231e+18
14250.0	1.1460264356478975e+18
14251.0	1.1458635473354751e+18
14252.0	1.1456999946452991e+18
14253.0	1.1455341904527357e+18
14254.0	1.145372381754163e+18
14255.0	1.1452039846428671e+18
14256.0	1.1450286862237695e+18
14257.0	1.1448756134215681e+18
14258.0	1.1447215868346367e+18
14259.0	1.1445574360367103e+18
14260.0	1.1443934186176511e+18
14261.0	1.1442317332316157e+18
14262.0	1.144082384971366e+18
14263.0	1.143892724416512e+18
14264.0	1.1437421723910141e+18
14265.0	1.1435949867139068e+18
14266.0	1.1434336872038396e+18
14267.0	1.1432714691411965e+18
14268.0	1.1431090312970239e+18
14269.0	1.1429462075768831e+18
14270.0	1.1427839609929725e+18
14271.0	1.1426213545377791e+18
14272.0	1.1424582556712957e+18
14273.0	1.1422920479866876e+18
14274.0	1.142085788054323e+18
14275.0	1.1419589330075647e+18
14276.0	1.1418082627026943e+18
14277.0	1.1416470126854141e+18
14278.0	1.1414854246072319e+18
14279.0	1.1413232031891455e+18
14280.0	1.1411607947051004e+18
14281.0	1.1409994951950333e+18
14282.0	1.1408375338237951e+18
14283.0	1.1406755221209088e+18
14284.0	1.1405134961573885e+18
14285.0	1.1403514165067773e+18
14286.0	1.1401891976052736e+18
14287.0	1.1400264015675391e+18
14288.0	1.1398577016274941e+18
14289.0	1.1395032770674684e+18
14290.0	1.1395347561578495e+18
14291.0	1.1393790954700797e+18
14292.0	1.1392181726085119e+18
14293.0	1.1390556483616767e+18
14294.0	1.1388789389787136e+18
14295.0	1.138726242825011e+18
14296.0	1.1384181435138048e+18
14297.0	1.1383943450329085e+18
14298.0	1.1382218123378687e+18
14299.0	1.1380841770909693e+18
14300.0	1.1379265752793088e+18
14301.0	1.1377655567876093e+18
14302.0	1.1376038579798012e+18
14303.0	1.1374383532605437e+18
14304.0	1.1372798102470652e+18
14305.0	1.1371203436478461e+18
14306.0	1.1369590441377791e+18
14307.0	1.1367975995047936e+18
14308.0	1.1366366170841085e+18
14309.0	1.1364751623847936e+18
14310.0	1.1363131917860861e+18
14311.0	1.1361504351748095e+18
14312.0	1.135983486776115e+18
14313.0	1.1357639552270333e+18
14314.0	1.135670201627443e+18
14315.0	1.135508720923443e+18
14316.0	1.135342983000883e+18
14317.0	1.1351871251808255e+18
14318.0	1.135027834742374e+18
14319.0	1.1348672868515839e+18
14320.0	1.1347065904824319e+18
14321.0	1.1345458286821373e+18
14322.0	1.13438135156736e+18
14323.0	1.1342217692053503e+18
14324.0	1.1340632404525055e+18
14325.0	1.1339021288472575e+18
14326.0	1.1337424827318272e+18
14327.0	1.133581924774707e+18
14328.0	1.1334214624477183e+18
14329.0	1.1332620226920447e+18
14330.0	1.1331017205874685e+18
14331.0	1.1329413840895996e+18
14332.0	1.1327811516104701e+18
14333.0	1.1326209099038719e+18
14334.0	1.1324606681972733e+18
14335.0	1.1322983536656383e+18
14336.0	1.1321382579208192e+18
14337.0	1.1319801628590077e+18
14338.0	1.1318200067162111e+18
14339.0	1.1316599403315197e+18
14340.0	1.1315001885196287e+18
14341.0	1.1313402496417792e+18
14342.0	1.1311744446103551e+18
14343.0	1.1310204868100093e+18
14344.0	1.1308467839041533e+18
14345.0	1.1306927438954493e+18
14346.0	1.1305403849637887e+18
14347.0	1.1303797716418556e+18
14348.0	1.1302210994438143e+18
14349.0	1.1300615330201597e+18
14350.0	1.1299002729365501e+18
14351.0	1.1297407241289728e+18
14352.0	1.1295799405182975e+18
14353.0	1.1294212985192445e+18
14354.0	1.1292633787793405e+18
14355.0	1.1291037418913791e+18
14356.0	1.1289380811440125e+18
14357.0	1.1287783150714877e+18
14358.0	1.1286261658550268e+18
14359.0	1.1284652815810559e+18
14360.0	1.1283066580369405e+18
14361.0	1.1281481737437183e+18
14362.0	1.1279889705467899e+18
14363.0	1.1278295173693437e+18
14364.0	1.1276660292714495e+18
14365.0	1.1275089190322175e+18
14366.0	1.127351138543206e+18
14367.0	1.1271931751825407e+18
14368.0	1.1270330299449341e+18
14369.0	1.1268745464905725e+18
14370.0	1.1267153651040255e+18
14371.0	1.1265573539282941e+18
14372.0	1.1263976767750143e+18
14373.0	1.1262384341516285e+18
14374.0	1.1260773930106879e+18
14375.0	1.1259154056347647e+18
14376.0	1.1257632421576703e+18
14377.0	1.1256044189646847e+18
14378.0	1.1254454699425792e+18
14379.0	1.1252871399997437e+18
14380.0	1.1251284174700541e+18
14381.0	1.1249685423456252e+18
14382.0	1.1248111410216959e+18
14383.0	1.1246527934627839e+18
14384.0	1.1244922917093375e+18
14385.0	1.1243359775490047e+18
14386.0	1.1241757584916477e+18
14387.0	1.1240191003983872e+18
14388.0	1.1238606731476991e+18
14389.0	1.1237023004229631e+18
14390.0	1.1235438673002495e+18
14391.0	1.1233858997452796e+18
14392.0	1.1232266629939197e+18
14393.0	1.1230686660788221e+18
14394.0	1.1229058843017215e+18
14395.0	1.1227516169617405e+18
14396.0	1.1225917074440191e+18
14397.0	1.1224366557691901e+18
14398.0	1.122278475982438e+18
14399.0	1.1221171110412285e+18
14400.0	1.1219586955345919e+18
14401.0	1.121801852891955e+18
14402.0	1.1216427344199677e+18
14403.0	1.1214704919707647e+18
14404.0	1.1208543302582267e+18
14405.0	1.1207783739293688e+18
14406.0	1.121002158502707e+18
14407.0	1.1208441397772285e+18
14408.0	1.1206974423171072e+18
14409.0	1.1205380847697916e+18
14410.0	1.1203840086900732e+18
14411.0	1.1202270393794557e+18
14412.0	1.1200692471463933e+18
14413.0	1.1199125764702207e+18
14414.0	1.119754940265267e+18
14415.0	1.1195976521875455e+18
14416.0	1.1194404303798272e+18
14417.0	1.1192829871128573e+18
14418.0	1.1191254943531005e+18
14419.0	1.118968096384614e+18
14420.0	1.1188101959385085e+18
14421.0	1.1186524380987391e+18
14422.0	1.1184956759867391e+18
14423.0	1.1183366204293119e+18
14424.0	1.1181497876742141e+18
14425.0	1.1180215795449855e+18
14426.0	1.117867701436416e+18
14427.0	1.1177101398900732e+18
14428.0	1.1175506523193343e+18
14429.0	1.1173943549362171e+18
14430.0	1.1172391648493565e+18
14431.0	1.1170741122760701e+18
14432.0	1.1169253763842048e+18
14433.0	1.1167608137056255e+18
14434.0	1.1166098237947903e+18
14435.0	1.116453540672307e+18
14436.0	1.1162986567696383e+18
14437.0	1.1161423115714557e+18
14438.0	1.1159846862716927e+18
14439.0	1.115828711011123e+18
14440.0	1.1156723230310396e+18
14441.0	1.115512129139507e+18
14442.0	1.1153533604724736e+18
14443.0	1.1151914905370621e+18
14444.0	1.1150433359757311e+18
14445.0	1.1148857912066047e+18
14446.0	1.1145814399254528e+18
14447.0	1.1145631452102656e+18
14448.0	1.114419227734835e+18
14449.0	1.1142640208707579e+18
14450.0	1.1141080254775293e+18
14451.0	1.1139519050940415e+18
14452.0	1.1137957427675132e+18
14453.0	1.1136393321381887e+18
14454.0	1.1134831404515327e+18
14455.0	1.1133263145861119e+18
14456.0	1.1131704307613695e+18
14457.0	1.1130143481266176e+18
14458.0	1.112857914848051e+18
14459.0	1.1127013406408701e+18
14460.0	1.1125459920093183e+18
14461.0	1.1123877870567421e+18
14462.0	1.1122327630643197e+18
14463.0	1.1120777105506303e+18
14464.0	1.1119222880993277e+18
14465.0	1.1117603737042941e+18
14466.0	1.1116112267706367e+18
14467.0	1.1114537759539196e+18
14468.0	1.1113000312242173e+18
14469.0	1.1111283248070655e+18
14470.0	1.1109841640620031e+18
14471.0	1.1108315157233661e+18
14472.0	1.1106780973105151e+18
14473.0	1.1105227067359231e+18
14474.0	1.1103672574410748e+18
14475.0	1.110211744392806e+18
14476.0	1.110055931032371e+18
14477.0	1.1099008676134911e+18
14478.0	1.1097455768633341e+18
14479.0	1.1095901527343103e+18
14480.0	1.1094327354720255e+18
14481.0	1.1092794479214591e+18
14482.0	1.1091233870970877e+18
14483.0	1.1089675091443711e+18
14484.0	1.1088106488856573e+18
14485.0	1.1086500447911933e+18
14486.0	1.1084625065541631e+18
14487.0	1.1083460609310719e+18
14488.0	1.1081929520578556e+18
14489.0	1.1080375245733885e+18
14490.0	1.1078829342719996e+18
14491.0	1.1077281099284479e+18
14492.0	1.1075734323855357e+18
14493.0	1.1074184721465341e+18
14494.0	1.1072603317862397e+18
14495.0	1.1071063605641213e+18
14496.0	1.1069367982751741e+18
14497.0	1.106797963457331e+18
14498.0	1.1066430669717504e+18
14499.0	1.1064896133267455e+18
14500.0	1.1063347604619261e+18
14501.0	1.1061767811629056e+18
14502.0	1.105983903576883e+18
14503.0	1.1058685786718205e+18
14504.0	1.1057153011875837e+18
14505.0	1.1055614071406591e+18
14506.0	1.1054035578650623e+18
14507.0	1.105219411981107e+18
14508.0	1.1050954065444864e+18
14509.0	1.104943988814643e+18
14510.0	1.1047888649977856e+18
14511.0	1.1046350221213693e+18
14512.0	1.1044791643013119e+18
14513.0	1.1043250051743741e+18
14514.0	1.104166092223283e+18
14515.0	1.1040038766772223e+18
14516.0	1.1033238197764096e+18
14517.0	1.1036723135905792e+18
14518.0	1.103551378384486e+18
14519.0	1.1033842253037567e+18
14520.0	1.1032470573023231e+18
14521.0	1.1030940256043005e+18
14522.0	1.1029402036994048e+18
14523.0	1.1027858868666365e+18
14524.0	1.1026320037249021e+18
14525.0	1.1024779335172095e+18
14526.0	1.1023244681281536e+18
14527.0	1.102161855800934e+18
14528.0	1.1019937371914239e+18
14529.0	1.1018613909618685e+18
14530.0	1.1017078450421757e+18
14531.0	1.1015557528682493e+18
14532.0	1.1014019838115839e+18
14533.0	1.1012479966511103e+18
14534.0	1.1010946461859839e+18
14535.0	1.1009403075428351e+18
14536.0	1.1007879377059839e+18
14537.0	1.1006326326951936e+18
14538.0	1.1004810983636991e+18
14539.0	1.100327758803763e+18
14540.0	1.1001741852016639e+18
14541.0	1.1000177401790464e+18
14542.0	1.0998673743806461e+18
14543.0	1.0997123000565757e+18
14544.0	1.0995592683585532e+18
14545.0	1.0994057283108861e+18
14546.0	1.099175545746227e+18
14547.0	1.0990056051310588e+18
14548.0	1.0989416092794879e+18
14549.0	1.0987770038190076e+18
14550.0	1.0986397234102272e+18
14551.0	1.0984882595430397e+18
14552.0	1.098334050923315e+18
14553.0	1.0981795008872447e+18
14554.0	1.0980293758418941e+18
14555.0	1.0978761847603197e+18
14556.0	1.0977216364019711e+18
14557.0	1.0975678019141631e+18
14558.0	1.0974019725557757e+18
14559.0	1.0968655135244283e+18
14560.0	1.0970951718010879e+18
14561.0	1.0969553395777533e+18
14562.0	1.096801922003763e+18
14563.0	1.0966534746800127e+18
14564.0	1.0964782232371197e+18
14565.0	1.0963487148736511e+18
14566.0	1.096196160487424e+18
14567.0	1.0960434316181501e+18
14568.0	1.0958903177117693e+18
14569.0	1.0957329356816381e+18
14570.0	1.0954786467741693e+18
14571.0	1.0954294542991357e+18
14572.0	1.0952746735763455e+18
14573.0	1.0951211041685501e+18
14574.0	1.0949757052649468e+18
14575.0	1.0948238823653375e+18
14576.0	1.0946716643622911e+18
14577.0	1.0945196929843197e+18
14578.0	1.0943671780245503e+18
14579.0	1.09421531234304e+18
14580.0	1.0940631362830333e+18
14581.0	1.0939104585842687e+18
14582.0	1.0937586113576959e+18
14583.0	1.0936064260702208e+18
14584.0	1.0934531418750973e+18
14585.0	1.0933022551441405e+18
14586.0	1.0931500941836285e+18
14587.0	1.0929982385684477e+18
14588.0	1.0928465247207421e+18
14589.0	1.0926946481340413e+18
14590.0	1.0925427539312637e+18
14591.0	1.0923907154444285e+18
14592.0	1.092237328069427e+18
14593.0	1.0920717050707968e+18
14594.0	1.0919342241742845e+18
14595.0	1.091783110950912e+18
14596.0	1.0916253531111421e+18
14597.0	1.091473377538867e+18
14598.0	1.0913279803129855e+18
14599.0	1.0911776858177533e+18
14600.0	1.0910262437609472e+18
14601.0	1.0908747144626175e+18
14602.0	1.0907231281217532e+18
14603.0	1.0905713849139197e+18
14604.0	1.0904106768007167e+18
14605.0	1.0902425649020928e+18
14606.0	1.0900973463535615e+18
14607.0	1.0899654430425084e+18
14608.0	1.089799133016883e+18
14609.0	1.0896369367646208e+18
14610.0	1.0894853713952767e+18
14611.0	1.0893241339609085e+18
14612.0	1.0892099633283068e+18
14613.0	1.089059018715955e+18
14614.0	1.0888889531105277e+18
14615.0	1.088743804187443e+18
14616.0	1.0886057453158397e+18
14617.0	1.0884139758649341e+18
14618.0	1.0882747199389692e+18
14619.0	1.0881436848488447e+18
14620.0	1.0879895575986173e+18
14621.0	1.0878500399480831e+18
14622.0	1.0876997102206973e+18
14623.0	1.087548494656307e+18
14624.0	1.0873912535547903e+18
14625.0	1.0872465215455228e+18
14626.0	1.0870798633926656e+18
14627.0	1.0869289489793023e+18
14628.0	1.0867952387620863e+18
14629.0	1.0866446036893693e+18
14630.0	1.0864789387476991e+18
14631.0	1.0863280260120575e+18
14632.0	1.0861603117334528e+18
14633.0	1.086033830818611e+18
14634.0	1.0858913486340095e+18
14635.0	1.0857394217156605e+18
14636.0	1.0855839497715711e+18
14637.0	1.0854398896898047e+18
14638.0	1.0852889912147965e+18
14639.0	1.0851371456659456e+18
14640.0	1.0849872521461757e+18
14641.0	1.0848277385707519e+18
14642.0	1.0846865683644413e+18
14643.0	1.0845372050046973e+18
14644.0	1.0843869071540221e+18
14645.0	1.0842165924069373e+18
