# Flux units: erg / (cm m2 s)
# Wavelength units: Angstrom
wave	flux
14000.0	1.6411605667414008e+18
14001.0	1.6410037282930685e+18
14002.0	1.6409503884902397e+18
14003.0	1.6406761145630715e+18
14004.0	1.6403946146889728e+18
14005.0	1.6401093449744381e+18
14006.0	1.6398157772488704e+18
14007.0	1.6395236926291965e+18
14008.0	1.6391667170934781e+18
14009.0	1.6389372819537915e+18
14010.0	1.638625514304307e+18
14011.0	1.6378543629926397e+18
14012.0	1.6380395465474043e+18
14013.0	1.637817199781478e+18
14014.0	1.6375345557012475e+18
14015.0	1.6372565555544061e+18
14016.0	1.6369731682435072e+18
14017.0	1.6366891199102968e+18
14018.0	1.6363736025530368e+18
14019.0	1.636119286802022e+18
14020.0	1.6358337385857021e+18
14021.0	1.635548220568371e+18
14022.0	1.6352629558870008e+18
14023.0	1.6349674017390592e+18
14024.0	1.634685177089228e+18
14025.0	1.6344074504110077e+18
14026.0	1.6341216857686013e+18
14027.0	1.6338351409856507e+18
14028.0	1.6335380668219392e+18
14029.0	1.6332265323757563e+18
14030.0	1.6325822503714816e+18
14031.0	1.632523810294988e+18
14032.0	1.632392745005875e+18
14033.0	1.6320870507085824e+18
14034.0	1.63184618021847e+18
14035.0	1.631562984167833e+18
14036.0	1.6312670609211387e+18
14037.0	1.6309926661980157e+18
14038.0	1.630715256609177e+18
14039.0	1.6304276447952893e+18
14040.0	1.6301467086356475e+18
14041.0	1.6298628012310525e+18
14042.0	1.629569706622976e+18
14043.0	1.6292651431100413e+18
14044.0	1.6289857806532605e+18
14045.0	1.6287072771899392e+18
14046.0	1.6284428649103352e+18
14047.0	1.628156929140326e+18
14048.0	1.6278787276668923e+18
14049.0	1.6275979156586493e+18
14050.0	1.6273145199591421e+18
14051.0	1.627025423361638e+18
14052.0	1.626743542644736e+18
14053.0	1.626466007226777e+18
14054.0	1.6261834738761725e+18
14055.0	1.6259007710756861e+18
14056.0	1.625618054853427e+18
14057.0	1.6253353889628157e+18
14058.0	1.6250526526078968e+18
14059.0	1.624742190225817e+18
14060.0	1.6244869181734904e+18
14061.0	1.6241987174793213e+18
14062.0	1.6239183014133757e+18
14063.0	1.623618146952806e+18
14064.0	1.6232362958389243e+18
14065.0	1.6230634737369085e+18
14066.0	1.6227902014095352e+18
14067.0	1.6225115201077243e+18
14068.0	1.6222297635422205e+18
14069.0	1.6219476328448e+18
14070.0	1.6216659601653757e+18
14071.0	1.6213820510830587e+18
14072.0	1.6211024940105728e+18
14073.0	1.6208207760326653e+18
14074.0	1.6205385698377728e+18
14075.0	1.6202383180693501e+18
14076.0	1.6199659030577147e+18
14077.0	1.6195988360265725e+18
14078.0	1.619383856136192e+18
14079.0	1.619120259229286e+18
14080.0	1.6188351405096952e+18
14081.0	1.618565424952115e+18
14082.0	1.618285352819097e+18
14083.0	1.6179990865379328e+18
14084.0	1.617696777882828e+18
14085.0	1.617270223876915e+18
14086.0	1.6171046428213243e+18
14087.0	1.6168538486079485e+18
14088.0	1.616588505192857e+18
14089.0	1.6163214572126203e+18
14090.0	1.6160418514862077e+18
14091.0	1.6157620612104187e+18
14092.0	1.6154819051913208e+18
14093.0	1.6152014035615741e+18
14094.0	1.6149204153925632e+18
14095.0	1.614638321605017e+18
14096.0	1.6143522381955072e+18
14097.0	1.6140582275514363e+18
14098.0	1.6137956590878715e+18
14099.0	1.6135171841458176e+18
14100.0	1.613230429647667e+18
14101.0	1.6129604121001981e+18
14102.0	1.6126784542081021e+18
14103.0	1.6123875943251965e+18
14104.0	1.612118736083353e+18
14105.0	1.6118427643019261e+18
14106.0	1.611563182063616e+18
14107.0	1.611259806377574e+18
14108.0	1.6109903642886144e+18
14109.0	1.6107212980092925e+18
14110.0	1.610442308006707e+18
14111.0	1.6101587948666875e+18
14112.0	1.6098725722062843e+18
14113.0	1.60959823955886e+18
14114.0	1.6092998735495168e+18
14115.0	1.6090101511618557e+18
14116.0	1.608584716196249e+18
14117.0	1.6077017715834877e+18
14118.0	1.6081020256256e+18
14119.0	1.6078920638005243e+18
14120.0	1.6076322837102592e+18
14121.0	1.6073514230480893e+18
14122.0	1.6070816554811387e+18
14123.0	1.606796551861043e+18
14124.0	1.6064678979436541e+18
14125.0	1.6059574914121725e+18
14126.0	1.6059296932429821e+18
14127.0	1.6056907286446075e+18
14128.0	1.605419335365427e+18
14129.0	1.6051322654556157e+18
14130.0	1.604836041896755e+18
14131.0	1.604570389780889e+18
14132.0	1.6042413768310781e+18
14133.0	1.6036852825849853e+18
14134.0	1.603666908178022e+18
14135.0	1.6034585083117565e+18
14136.0	1.6031954835079163e+18
14137.0	1.602921048519475e+18
14138.0	1.6026434778693632e+18
14139.0	1.6023678231773184e+18
14140.0	1.6020882476498941e+18
14141.0	1.6018023437565947e+18
14142.0	1.601519766785228e+18
14143.0	1.6012558108459003e+18
14144.0	1.6009841810079741e+18
14145.0	1.6007068972482557e+18
14146.0	1.6004300698288125e+18
14147.0	1.6001568444776448e+18
14148.0	1.599880777066086e+18
14149.0	1.5996045704036347e+18
14150.0	1.5993276641312763e+18
14151.0	1.5990501438128125e+18
14152.0	1.5987731033227261e+18
14153.0	1.5984985374719995e+18
14154.0	1.5981967841427453e+18
14155.0	1.597931935655526e+18
14156.0	1.597667894152396e+18
14157.0	1.597391138874982e+18
14158.0	1.597112793117491e+18
14159.0	1.5968351956238333e+18
14160.0	1.596539820992102e+18
14161.0	1.596240396340428e+18
14162.0	1.5959414129295357e+18
14163.0	1.5956955025637368e+18
14164.0	1.5954351738585085e+18
14165.0	1.5951716943921147e+18
14166.0	1.594904534004531e+18
14167.0	1.594617230891417e+18
14168.0	1.5943542446751741e+18
14169.0	1.5940816887349248e+18
14170.0	1.5938037674409981e+18
14171.0	1.593525852857958e+18
14172.0	1.593254226375475e+18
14173.0	1.5929716275937275e+18
14174.0	1.5926983686881275e+18
14175.0	1.5924292285890557e+18
14176.0	1.592155018415308e+18
14177.0	1.5918801287643133e+18
14178.0	1.5916046435221501e+18
14179.0	1.5913276583968765e+18
14180.0	1.5910547283247104e+18
14181.0	1.590779536683827e+18
14182.0	1.5905035363811323e+18
14183.0	1.590227146847027e+18
14184.0	1.5899457493139453e+18
14185.0	1.5896569043746819e+18
14186.0	1.5892790697263104e+18
14187.0	1.589069374658969e+18
14188.0	1.5888373558280187e+18
14189.0	1.5885742353940475e+18
14190.0	1.5883048604139515e+18
14191.0	1.588029536233062e+18
14192.0	1.5877456825155581e+18
14193.0	1.5874698382409725e+18
14194.0	1.5872075986108413e+18
14195.0	1.5869370827800576e+18
14196.0	1.586663791997747e+18
14197.0	1.5863895365255168e+18
14198.0	1.5861111354032123e+18
14199.0	1.585830044893184e+18
14200.0	1.585493118130585e+18
14201.0	1.5852561718312957e+18
14202.0	1.5850126824177664e+18
14203.0	1.5847421347102715e+18
14204.0	1.5844683288674304e+18
14205.0	1.5841853945413632e+18
14206.0	1.5838465065222144e+18
14207.0	1.5836307330695165e+18
14208.0	1.5833647974187005e+18
14209.0	1.5830091556716544e+18
14210.0	1.5827479830724603e+18
14211.0	1.5825431416537085e+18
14212.0	1.5822855224688637e+18
14213.0	1.582015462978355e+18
14214.0	1.5817416403582976e+18
14215.0	1.581460712587264e+18
14216.0	1.5811970955476987e+18
14217.0	1.580926680380211e+18
14218.0	1.5806420297449472e+18
14219.0	1.5803800434507776e+18
14220.0	1.5801061453332475e+18
14221.0	1.5798346732011523e+18
14222.0	1.579552997166284e+18
14223.0	1.5792822581985275e+18
14224.0	1.5789922036219904e+18
14225.0	1.5784446993104893e+18
14226.0	1.578386358219571e+18
14227.0	1.578142239660441e+18
14228.0	1.57700772069376e+18
14229.0	1.577224359850803e+18
14230.0	1.577356188503244e+18
14231.0	1.5771023509028867e+18
14232.0	1.5768376316002301e+18
14233.0	1.5765661024255997e+18
14234.0	1.576296187219149e+18
14235.0	1.5760225827028987e+18
14236.0	1.575750251577344e+18
14237.0	1.5754724225581053e+18
14238.0	1.575185238563225e+18
14239.0	1.5748204196790267e+18
14240.0	1.5731987037814781e+18
14241.0	1.574190039275929e+18
14242.0	1.5740611869016064e+18
14243.0	1.5737520029433853e+18
14244.0	1.5735652960174083e+18
14245.0	1.5733020195553277e+18
14246.0	1.5730373287739392e+18
14247.0	1.5727643013939197e+18
14248.0	1.5724849859133437e+18
14249.0	1.5722255648555005e+18
14250.0	1.5719577719668733e+18
14251.0	1.571687334989004e+18
14252.0	1.571413871401369e+18
14253.0	1.5711340341493757e+18
14254.0	1.570852733924147e+18
14255.0	1.5705211104395264e+18
14256.0	1.5700718702821376e+18
14257.0	1.5698950954680312e+18
14258.0	1.5697447380582397e+18
14259.0	1.5694740779433984e+18
14260.0	1.5692092042903547e+18
14261.0	1.5689203878723581e+18
14262.0	1.568633517611417e+18
14263.0	1.568052616573747e+18
14264.0	1.5678856883077115e+18
14265.0	1.5678383513927677e+18
14266.0	1.567618932251033e+18
14267.0	1.5673627508736e+18
14268.0	1.5670957632913405e+18
14269.0	1.5668200414904315e+18
14270.0	1.5665544262844413e+18
14271.0	1.5662733206749181e+18
14272.0	1.5659765636005888e+18
14273.0	1.5655945044492288e+18
14274.0	1.5648440696438784e+18
14275.0	1.5649190084345853e+18
14276.0	1.5648554580180992e+18
14277.0	1.5646418941247485e+18
14278.0	1.564391638460006e+18
14279.0	1.564128570035404e+18
14280.0	1.563862245153177e+18
14281.0	1.5635991414964221e+18
14282.0	1.563332043184537e+18
14283.0	1.5630637419462656e+18
14284.0	1.5627947142545403e+18
14285.0	1.5625245037690877e+18
14286.0	1.5622518740090875e+18
14287.0	1.561971063678566e+18
14288.0	1.5616216613781504e+18
14289.0	1.5605088907165688e+18
14290.0	1.561090863818342e+18
14291.0	1.5608947968835581e+18
14292.0	1.5606327015374848e+18
14293.0	1.560357206228992e+18
14294.0	1.5600154157514747e+18
14295.0	1.5597486949269501e+18
14296.0	1.5588533334966275e+18
14297.0	1.5591137477656573e+18
14298.0	1.5588457736830973e+18
14299.0	1.558707880067072e+18
14300.0	1.5584779751653373e+18
14301.0	1.5582205153640443e+18
14302.0	1.557955363209216e+18
14303.0	1.557653410231091e+18
14304.0	1.5574099795378173e+18
14305.0	1.5571539575439357e+18
14306.0	1.5568855724195835e+18
14307.0	1.556616158851891e+18
14308.0	1.556348850824806e+18
14309.0	1.55607852122112e+18
14310.0	1.555804883150438e+18
14311.0	1.5555234789064701e+18
14312.0	1.5552336994762747e+18
14313.0	1.5548597755969539e+18
14314.0	1.5547419693416443e+18
14315.0	1.5544698596753403e+18
14316.0	1.5541853751345147e+18
14317.0	1.553941011628032e+18
14318.0	1.5536811493294077e+18
14319.0	1.5534115914776576e+18
14320.0	1.5531455903956992e+18
14321.0	1.5528741266522107e+18
14322.0	1.5525901286506493e+18
14323.0	1.5523290969800701e+18
14324.0	1.5520780745965568e+18
14325.0	1.5518048324681723e+18
14326.0	1.5515499211259904e+18
14327.0	1.551276365263667e+18
14328.0	1.5510127868116992e+18
14329.0	1.5507532416024568e+18
14330.0	1.5504876716949504e+18
14331.0	1.5502216085372923e+18
14332.0	1.5499557651611648e+18
14333.0	1.549689626506035e+18
14334.0	1.5494225583931387e+18
14335.0	1.5491424426393597e+18
14336.0	1.5488634224377853e+18
14337.0	1.5486201695830013e+18
14338.0	1.548358243686809e+18
14339.0	1.5480845603176443e+18
14340.0	1.5478293369192448e+18
14341.0	1.5475625590521856e+18
14342.0	1.5472906154803197e+18
14343.0	1.5470330147504125e+18
14344.0	1.5467425508098043e+18
14345.0	1.5464861613948923e+18
14346.0	1.546226171589427e+18
14347.0	1.5459562731601915e+18
14348.0	1.5456949965422587e+18
14349.0	1.5454288914415616e+18
14350.0	1.5451412527841275e+18
14351.0	1.5448712385921021e+18
14352.0	1.544621241296486e+18
14353.0	1.5443678818467835e+18
14354.0	1.544104429223936e+18
14355.0	1.543836133018828e+18
14356.0	1.5435664979918843e+18
14357.0	1.543305969637785e+18
14358.0	1.543050977764966e+18
14359.0	1.5427720045395965e+18
14360.0	1.5425189051367421e+18
14361.0	1.542255860200243e+18
14362.0	1.5419901946626043e+18
14363.0	1.5417174541729792e+18
14364.0	1.5413983733350397e+18
14365.0	1.5411506459967485e+18
14366.0	1.5409119984877565e+18
14367.0	1.5406698059530235e+18
14368.0	1.5404052795883515e+18
14369.0	1.540145528019353e+18
14370.0	1.539882102240051e+18
14371.0	1.5396181781774333e+18
14372.0	1.5393400740118525e+18
14373.0	1.539080867702374e+18
14374.0	1.5388167121141757e+18
14375.0	1.5385466845003773e+18
14376.0	1.5382930935250941e+18
14377.0	1.5380289295482877e+18
14378.0	1.5377641917906944e+18
14379.0	1.537502170264371e+18
14380.0	1.5372380633300987e+18
14381.0	1.5369645963870203e+18
14382.0	1.5367110523879421e+18
14383.0	1.536448703705907e+18
14384.0	1.536167848076902e+18
14385.0	1.5359230970167293e+18
14386.0	1.5356416659292157e+18
14387.0	1.5353964820168701e+18
14388.0	1.5351311637676032e+18
14389.0	1.534869548249907e+18
14390.0	1.5346061258260477e+18
14391.0	1.5343444733984763e+18
14392.0	1.5340814066515965e+18
14393.0	1.5338186788044795e+18
14394.0	1.5335146488070144e+18
14395.0	1.533281927010713e+18
14396.0	1.5330256869130237e+18
14397.0	1.5327648733462523e+18
14398.0	1.5325000550580221e+18
14399.0	1.532230305946009e+18
14400.0	1.531951000531763e+18
14401.0	1.5316821188018176e+18
14402.0	1.5313901063241728e+18
14403.0	1.5309304408047613e+18
14404.0	1.5285866385637368e+18
14405.0	1.5285619878002678e+18
14406.0	1.5302156357730304e+18
14407.0	1.5299761527586813e+18
14408.0	1.529821008809164e+18
14409.0	1.529576923804467e+18
14410.0	1.529333503177523e+18
14411.0	1.5290802527797243e+18
14412.0	1.5288206991818747e+18
14413.0	1.5285638165168125e+18
14414.0	1.5283022647525376e+18
14415.0	1.5280415367495677e+18
14416.0	1.5277788122578941e+18
14417.0	1.5275175423508475e+18
14418.0	1.527255346341478e+18
14419.0	1.5269935227863037e+18
14420.0	1.5267287917395965e+18
14421.0	1.5264678909313021e+18
14422.0	1.5261932495831037e+18
14423.0	1.525885281973043e+18
14424.0	1.5252802049671168e+18
14425.0	1.5253557829697536e+18
14426.0	1.5251543976574973e+18
14427.0	1.5249010163974141e+18
14428.0	1.5246181709905923e+18
14429.0	1.5243760573087744e+18
14430.0	1.5240958895456253e+18
14431.0	1.523739088492953e+18
14432.0	1.5235742456348672e+18
14433.0	1.5232465480187904e+18
14434.0	1.5230556014903293e+18
14435.0	1.522806755111731e+18
14436.0	1.5225587140395003e+18
14437.0	1.5223005462396925e+18
14438.0	1.522029282145075e+18
14439.0	1.521772095812403e+18
14440.0	1.5215192832999421e+18
14441.0	1.521238395794227e+18
14442.0	1.520970628071424e+18
14443.0	1.5206797128237053e+18
14444.0	1.5204443469381632e+18
14445.0	1.520157859197747e+18
14446.0	1.5192147816873981e+18
14447.0	1.519540033185382e+18
14448.0	1.5194124206473213e+18
14449.0	1.5191676947529725e+18
14450.0	1.5189060188372992e+18
14451.0	1.5186508440928253e+18
14452.0	1.5183952432070653e+18
14453.0	1.5181354245292032e+18
14454.0	1.5178742301196288e+18
14455.0	1.5176089991118843e+18
14456.0	1.517353304273715e+18
14457.0	1.5170924084985856e+18
14458.0	1.516833227354931e+18
14459.0	1.5165707595546621e+18
14460.0	1.516308315242496e+18
14461.0	1.5160374571565053e+18
14462.0	1.515779551081267e+18
14463.0	1.5155274817994747e+18
14464.0	1.5152678610927616e+18
14465.0	1.5149934361706493e+18
14466.0	1.5147565083262976e+18
14467.0	1.5144860562489341e+18
14468.0	1.514237580646809e+18
14469.0	1.5139499470225405e+18
14470.0	1.5137020871442432e+18
14471.0	1.513459743614566e+18
14472.0	1.5132069814337528e+18
14473.0	1.5129543585038336e+18
14474.0	1.5127000494637053e+18
14475.0	1.5124410126041085e+18
14476.0	1.5121794608398336e+18
14477.0	1.5119248095444987e+18
14478.0	1.5116644456071165e+18
14479.0	1.511406207343001e+18
14480.0	1.5111322555383803e+18
14481.0	1.5108892778299387e+18
14482.0	1.5106182167396347e+18
14483.0	1.5103545493684221e+18
14484.0	1.5100812015435776e+18
14485.0	1.5097731550806013e+18
14486.0	1.5093832676802557e+18
14487.0	1.5093012405157885e+18
14488.0	1.5090660306583547e+18
14489.0	1.5088068176379901e+18
14490.0	1.5085549949812736e+18
14491.0	1.508303588399513e+18
14492.0	1.5080475580170237e+18
14493.0	1.507779771839283e+18
14494.0	1.5075048620556288e+18
14495.0	1.507248851805798e+18
14496.0	1.5069317406130176e+18
14497.0	1.5067432100036603e+18
14498.0	1.5064974321778688e+18
14499.0	1.506243423449907e+18
14500.0	1.5059832709054464e+18
14501.0	1.5056842086416381e+18
14502.0	1.5052824530386941e+18
14503.0	1.505190406520832e+18
14504.0	1.5049451303337981e+18
14505.0	1.504689697220198e+18
14506.0	1.5043969582891003e+18
14507.0	1.5040174979284987e+18
14508.0	1.5039013391958013e+18
14509.0	1.5036659665993725e+18
14510.0	1.5034084061347837e+18
14511.0	1.5031526911639547e+18
14512.0	1.502887183332147e+18
14513.0	1.5026222174044157e+18
14514.0	1.502331001844531e+18
14515.0	1.5019559102709757e+18
14516.0	1.4994564272095237e+18
14517.0	1.5012121309872123e+18
14518.0	1.501303145706291e+18
14519.0	1.5010718097080315e+18
14520.0	1.5008426044162043e+18
14521.0	1.5005930131292157e+18
14522.0	1.5003382527819773e+18
14523.0	1.5000781975453693e+18
14524.0	1.4998223013806075e+18
14525.0	1.4995685191450627e+18
14526.0	1.4993090611773435e+18
14527.0	1.4990018317647867e+18
14528.0	1.4986997445689341e+18
14529.0	1.4985357204389885e+18
14530.0	1.498281082565427e+18
14531.0	1.4980332562415616e+18
14532.0	1.4977730416214016e+18
14533.0	1.4975194003144704e+18
14534.0	1.4972658747703293e+18
14535.0	1.4970001857445888e+18
14536.0	1.4967507269976064e+18
14537.0	1.496490722092646e+18
14538.0	1.4962441943252992e+18
14539.0	1.4959883585585147e+18
14540.0	1.495733477415321e+18
14541.0	1.495452922098483e+18
14542.0	1.4952175847342075e+18
14543.0	1.4949468558327805e+18
14544.0	1.4946966270115837e+18
14545.0	1.4944033847640064e+18
14546.0	1.4933422073970685e+18
14547.0	1.4930370264825853e+18
14548.0	1.493602104927846e+18
14549.0	1.4933299684179963e+18
14550.0	1.4931452797911037e+18
14551.0	1.4929195087953915e+18
14552.0	1.4926637384597501e+18
14553.0	1.492406062232371e+18
14554.0	1.4921596703604736e+18
14555.0	1.491902212236902e+18
14556.0	1.491638907253555e+18
14557.0	1.491361650337382e+18
14558.0	1.490957836170035e+18
14559.0	1.4890708221558776e+18
14560.0	1.4904368717365245e+18
14561.0	1.4903370171023357e+18
14562.0	1.4900831929237507e+18
14563.0	1.4898623091310592e+18
14564.0	1.4895902967726075e+18
14565.0	1.489362448757555e+18
14566.0	1.4891093426438144e+18
14567.0	1.4888519583399936e+18
14568.0	1.4885874185535488e+18
14569.0	1.4882844253880315e+18
14570.0	1.487603943184793e+18
14571.0	1.4877924989599741e+18
14572.0	1.4875455467290621e+18
14573.0	1.4872826175553536e+18
14574.0	1.4870712279891965e+18
14575.0	1.486823015789363e+18
14576.0	1.4865641685123067e+18
14577.0	1.4863116848332797e+18
14578.0	1.486065692259123e+18
14579.0	1.485815934877696e+18
14580.0	1.4855629696925693e+18
14581.0	1.4853075919437816e+18
14582.0	1.4850520900435963e+18
14583.0	1.4848009065988093e+18
14584.0	1.4845410644328445e+18
14585.0	1.4842935669424128e+18
14586.0	1.4840417845510141e+18
14587.0	1.4837885777739776e+18
14588.0	1.483528440329011e+18
14589.0	1.483275263750963e+18
14590.0	1.4830213842075645e+18
14591.0	1.482761880941363e+18
14592.0	1.4824882965577723e+18
14593.0	1.482184001480294e+18
14594.0	1.4819889495670781e+18
14595.0	1.4817395260522493e+18
14596.0	1.481405760117145e+18
14597.0	1.481142116234035e+18
14598.0	1.480976281842483e+18
14599.0	1.4807429829099515e+18
14600.0	1.480493559395123e+18
14601.0	1.4802416411082747e+18
14602.0	1.4799847030783997e+18
14603.0	1.479731979485184e+18
14604.0	1.4794529727053816e+18
14605.0	1.4791958803251195e+18
14606.0	1.4788743047151616e+18
14607.0	1.4787224541331453e+18
14608.0	1.4784544079085565e+18
14609.0	1.4781903697608701e+18
14610.0	1.4779360204554235e+18
14611.0	1.4776724956905467e+18
14612.0	1.4774690937569277e+18
14613.0	1.4772183330979837e+18
14614.0	1.4769413546835965e+18
14615.0	1.476695950989721e+18
14616.0	1.4764607646203904e+18
14617.0	1.4761532734832635e+18
14618.0	1.4758957499285504e+18
14619.0	1.4755735955046397e+18
14620.0	1.4752842640261115e+18
14621.0	1.4751734689693693e+18
14622.0	1.4749401213829115e+18
14623.0	1.4746930148016128e+18
14624.0	1.4744172460244992e+18
14625.0	1.4741874837291003e+18
14626.0	1.473926693650432e+18
14627.0	1.4736786576113664e+18
14628.0	1.4734491352301563e+18
14629.0	1.4731984668459005e+18
14630.0	1.472928796586803e+18
14631.0	1.4726747996028925e+18
14632.0	1.4723716285988867e+18
14633.0	1.4721686779723776e+18
14634.0	1.4719402511433725e+18
14635.0	1.4716799375376381e+18
14636.0	1.4713969310695421e+18
14637.0	1.4711886184447997e+18
14638.0	1.4709305345310715e+18
14639.0	1.4706736904536064e+18
14640.0	1.470412469200486e+18
14641.0	1.470054653126246e+18
14642.0	1.4699109193613307e+18
14643.0	1.4696775667417085e+18
14644.0	1.4694158253948928e+18
14645.0	1.4691461484249083e+18
14646.0	1.4688996743446525e+18
14647.0	1.468668564838809e+18
