# Flux units: erg / (cm m2 s)
# Wavelength units: Angstrom
wave	flux
14000.0	1.847441294465433e+18
14001.0	1.8471882823041024e+18
14002.0	1.846997345841971e+18
14003.0	1.8466644070236155e+18
14004.0	1.8463287200972797e+18
14005.0	1.8459917262258176e+18
14006.0	1.845647092010188e+18
14007.0	1.845306647065395e+18
14008.0	1.8448938017226747e+18
14009.0	1.8446259148816381e+18
14010.0	1.8442799150006272e+18
14011.0	1.84334220787712e+18
14012.0	1.8436099235905533e+18
14013.0	1.843294600848998e+18
14014.0	1.8429544578940928e+18
14015.0	1.8426228226654203e+18
14016.0	1.8422882296135675e+18
14017.0	1.8419524554457083e+18
14018.0	1.8416105777266688e+18
14019.0	1.8412800162398203e+18
14020.0	1.8409430810886141e+18
14021.0	1.8406062164017152e+18
14022.0	1.8402695362641917e+18
14023.0	1.8399222378266621e+18
14024.0	1.8395868965109755e+18
14025.0	1.8392625006510077e+18
14026.0	1.838925875878297e+18
14027.0	1.8385906218041336e+18
14028.0	1.8382464439287805e+18
14029.0	1.837902089892659e+18
14030.0	1.8369232551018496e+18
14031.0	1.8371237478662141e+18
14032.0	1.836904969614131e+18
14033.0	1.8365348944281597e+18
14034.0	1.836242695723417e+18
14035.0	1.8359096277204987e+18
14036.0	1.835575470876262e+18
14037.0	1.8352410221084664e+18
14038.0	1.8349064777105403e+18
14039.0	1.8345675611701243e+18
14040.0	1.8342347213373435e+18
14041.0	1.8339014469746685e+18
14042.0	1.833557656653004e+18
14043.0	1.8331960321507325e+18
14044.0	1.8328844456951805e+18
14045.0	1.8325583553363963e+18
14046.0	1.832226357719859e+18
14047.0	1.8318886793379837e+18
14048.0	1.8315625101262845e+18
14049.0	1.8312295142653947e+18
14050.0	1.8308956325675003e+18
14051.0	1.8305548202016763e+18
14052.0	1.8302230255894523e+18
14053.0	1.8298946904391675e+18
14054.0	1.8295613389012987e+18
14055.0	1.8292279101882365e+18
14056.0	1.8288945099964413e+18
14057.0	1.8285612289228792e+18
14058.0	1.8282279595933696e+18
14059.0	1.827889660454502e+18
14060.0	1.82756146455511e+18
14061.0	1.8272217192202237e+18
14062.0	1.8268940786466813e+18
14063.0	1.826544745132851e+18
14064.0	1.8260853480488955e+18
14065.0	1.8258871554408443e+18
14066.0	1.8255620633264125e+18
14067.0	1.8252301026197496e+18
14068.0	1.8248994824126461e+18
14069.0	1.8245660033679355e+18
14070.0	1.8242343463288827e+18
14071.0	1.8238997297889275e+18
14072.0	1.823570366195302e+18
14073.0	1.8232382226169853e+18
14074.0	1.8229059699867643e+18
14075.0	1.8225552422862845e+18
14076.0	1.8222357822832637e+18
14077.0	1.821757906773606e+18
14078.0	1.821557638823936e+18
14079.0	1.8212356421058555e+18
14080.0	1.820914442305536e+18
14081.0	1.820583447966515e+18
14082.0	1.8202512490233853e+18
14083.0	1.8199174042353667e+18
14084.0	1.819577066664755e+18
14085.0	1.8189902768242685e+18
14086.0	1.818893195463884e+18
14087.0	1.8185884910223355e+18
14088.0	1.8182517873967104e+18
14089.0	1.8179323223605243e+18
14090.0	1.817602749051699e+18
14091.0	1.8172731589656576e+18
14092.0	1.816942783705907e+18
14093.0	1.8166120980676605e+18
14094.0	1.816281026553446e+18
14095.0	1.8159483796586493e+18
14096.0	1.8156003514122235e+18
14097.0	1.8152647936704507e+18
14098.0	1.814949808150937e+18
14099.0	1.8146276637933565e+18
14100.0	1.8142877909516285e+18
14101.0	1.813970136177049e+18
14102.0	1.8136382442569725e+18
14103.0	1.8132952340758525e+18
14104.0	1.8129778645139453e+18
14105.0	1.8126513866014715e+18
14106.0	1.8123217310842877e+18
14107.0	1.8119876463820792e+18
14108.0	1.8116503320657917e+18
14109.0	1.8113287598112763e+18
14110.0	1.8110014732369915e+18
14111.0	1.8106668818628605e+18
14112.0	1.810334857402777e+18
14113.0	1.810013164352307e+18
14114.0	1.8096679026687997e+18
14115.0	1.809342746800947e+18
14116.0	1.8089343188991997e+18
14117.0	1.8074559961890816e+18
14118.0	1.8083239537147904e+18
14119.0	1.808010374125977e+18
14120.0	1.8076945514233853e+18
14121.0	1.807365660947251e+18
14122.0	1.8070427096055803e+18
14123.0	1.8067134953291776e+18
14124.0	1.8063636132003837e+18
14125.0	1.805639490102886e+18
14126.0	1.8057228040798205e+18
14127.0	1.805411195813888e+18
14128.0	1.8050847967543293e+18
14129.0	1.8047466167336952e+18
14130.0	1.8044079770173437e+18
14131.0	1.8040998684786685e+18
14132.0	1.80374410929111e+18
14133.0	1.802945354425958e+18
14134.0	1.803089373403545e+18
14135.0	1.8027765387231227e+18
14136.0	1.8024599509794813e+18
14137.0	1.8021332969062397e+18
14138.0	1.8018033863753725e+18
14139.0	1.8014822251626493e+18
14140.0	1.801152328053555e+18
14141.0	1.80080411190231e+18
14142.0	1.8004496814702587e+18
14143.0	1.8001692570157053e+18
14144.0	1.799849421203046e+18
14145.0	1.7995223661543421e+18
14146.0	1.799194660149657e+18
14147.0	1.7988709236342781e+18
14148.0	1.798544620204851e+18
14149.0	1.7982189090111485e+18
14150.0	1.7978935518167035e+18
14151.0	1.7975654263816187e+18
14152.0	1.797239478629171e+18
14153.0	1.7969153394606075e+18
14154.0	1.7965626521812987e+18
14155.0	1.796245717149286e+18
14156.0	1.7959352128241661e+18
14157.0	1.79561076663255e+18
14158.0	1.7952819667533821e+18
14159.0	1.794958495318016e+18
14160.0	1.7946153676963832e+18
14161.0	1.7942556524412923e+18
14162.0	1.793884221656268e+18
14163.0	1.793640864782745e+18
14164.0	1.7932961013825533e+18
14165.0	1.792985789995417e+18
14166.0	1.7926783676448763e+18
14167.0	1.7923414157164541e+18
14168.0	1.7920289300021248e+18
14169.0	1.7917074617663485e+18
14170.0	1.7913798497140739e+18
14171.0	1.7910549220163581e+18
14172.0	1.7907325931094013e+18
14173.0	1.7903915324407803e+18
14174.0	1.7900758590554112e+18
14175.0	1.789759365264179e+18
14176.0	1.789435387156889e+18
14177.0	1.7891111255146493e+18
14178.0	1.7887863773331456e+18
14179.0	1.788458793802137e+18
14180.0	1.7881383288438781e+18
14181.0	1.7878141410213885e+18
14182.0	1.787489162992025e+18
14183.0	1.7871650640887805e+18
14184.0	1.7868348935110656e+18
14185.0	1.786504684345753e+18
14186.0	1.7859827602554875e+18
14187.0	1.7858165869641728e+18
14188.0	1.7855390716788733e+18
14189.0	1.7852206904508413e+18
14190.0	1.784897712265625e+18
14191.0	1.7845732190978048e+18
14192.0	1.7842417415749627e+18
14193.0	1.7838982784090107e+18
14194.0	1.7836038818889725e+18
14195.0	1.7832842155261947e+18
14196.0	1.7829615577858043e+18
14197.0	1.7826385544347648e+18
14198.0	1.7823107628662784e+18
14199.0	1.781985207700684e+18
14200.0	1.781543633053286e+18
14201.0	1.7813181321707512e+18
14202.0	1.7810210999500797e+18
14203.0	1.7806973802119165e+18
14204.0	1.7803766031974397e+18
14205.0	1.7800508047622136e+18
14206.0	1.7796194440839165e+18
14207.0	1.7794031119499267e+18
14208.0	1.7790860628328448e+18
14209.0	1.7786434261876733e+18
14210.0	1.7783450601783293e+18
14211.0	1.7781141268332536e+18
14212.0	1.7778021712789496e+18
14213.0	1.7774818975809533e+18
14214.0	1.7771592851390461e+18
14215.0	1.7768265929457661e+18
14216.0	1.7765178602946555e+18
14217.0	1.77619659170775e+18
14218.0	1.7758625338490875e+18
14219.0	1.7755536401367037e+18
14220.0	1.7752304606248955e+18
14221.0	1.7749099587567616e+18
14222.0	1.7745772766298112e+18
14223.0	1.7742661817466877e+18
14224.0	1.77393813684224e+18
14225.0	1.7731916195168256e+18
14226.0	1.7732644510892027e+18
14227.0	1.772969415357235e+18
14228.0	1.7715009375174659e+18
14229.0	1.7720241601642488e+18
14230.0	1.772014228052377e+18
14231.0	1.771696880300851e+18
14232.0	1.7713813730099197e+18
14233.0	1.7710600440250365e+18
14234.0	1.7707413020868608e+18
14235.0	1.7704187164884995e+18
14236.0	1.7700846938619904e+18
14237.0	1.769745589416755e+18
14238.0	1.7694217237168125e+18
14239.0	1.7690701957431293e+18
14240.0	1.7671325296361472e+18
14241.0	1.7683991758897147e+18
14242.0	1.7681224675885053e+18
14243.0	1.7676876491259904e+18
14244.0	1.7675036718530552e+18
14245.0	1.7671810627665917e+18
14246.0	1.766863694882406e+18
14247.0	1.7665459411222525e+18
14248.0	1.7662151632093181e+18
14249.0	1.7659080462041085e+18
14250.0	1.7655917688389632e+18
14251.0	1.7652743606894587e+18
14252.0	1.764954467834265e+18
14253.0	1.76463277981696e+18
14254.0	1.764294274318336e+18
14255.0	1.7639085912883195e+18
14256.0	1.7632292700684285e+18
14257.0	1.7631821948780541e+18
14258.0	1.762993360601088e+18
14259.0	1.7626615945101307e+18
14260.0	1.762344974889779e+18
14261.0	1.7620187083702272e+18
14262.0	1.761720726559129e+18
14263.0	1.7608203588075517e+18
14264.0	1.7608066115567613e+18
14265.0	1.7607694701559805e+18
14266.0	1.7604753705926653e+18
14267.0	1.7601619822641147e+18
14268.0	1.759845315667558e+18
14269.0	1.7595180576145403e+18
14270.0	1.759207919032729e+18
14271.0	1.7588867074883581e+18
14272.0	1.7585584545464317e+18
14273.0	1.7581834418257915e+18
14274.0	1.7568846319714304e+18
14275.0	1.757351550281318e+18
14276.0	1.7572308029800443e+18
14277.0	1.7569375791874048e+18
14278.0	1.756631509080473e+18
14279.0	1.7563148592611325e+18
14280.0	1.7559952532963325e+18
14281.0	1.755684436914995e+18
14282.0	1.7553679531900928e+18
14283.0	1.7550509007175677e+18
14284.0	1.75473362510807e+18
14285.0	1.7544159351013376e+18
14286.0	1.7540975370960893e+18
14287.0	1.7537775033122813e+18
14288.0	1.753435090400051e+18
14289.0	1.752083756115557e+18
14290.0	1.7528035876012027e+18
14291.0	1.7525089763327997e+18
14292.0	1.7521929036496893e+18
14293.0	1.7518733060734976e+18
14294.0	1.7514379759058936e+18
14295.0	1.7512033062748157e+18
14296.0	1.750096015051981e+18
14297.0	1.750523626022502e+18
14298.0	1.750031093936947e+18
14299.0	1.7499150778105853e+18
14300.0	1.7496211510525952e+18
14301.0	1.7493111148118016e+18
14302.0	1.7489974630809597e+18
14303.0	1.748644691915571e+18
14304.0	1.7483495269990397e+18
14305.0	1.7480481897447421e+18
14306.0	1.7477265386373115e+18
14307.0	1.7474085265080317e+18
14308.0	1.7470954032594941e+18
14309.0	1.7467729669783547e+18
14310.0	1.746434151101235e+18
14311.0	1.7461027725639677e+18
14312.0	1.745791179397529e+18
14313.0	1.7453893013209088e+18
14314.0	1.7452003949019133e+18
14315.0	1.7448862331437053e+18
14316.0	1.7445320946352125e+18
14317.0	1.744254446809907e+18
14318.0	1.743950145021542e+18
14319.0	1.743638368983449e+18
14320.0	1.7433240511971325e+18
14321.0	1.7430060189351933e+18
14322.0	1.7426491977498624e+18
14323.0	1.7423220101611515e+18
14324.0	1.742030843255193e+18
14325.0	1.7417071570714621e+18
14326.0	1.741403377054515e+18
14327.0	1.7410815581749243e+18
14328.0	1.7407686043762685e+18
14329.0	1.7404606518657021e+18
14330.0	1.7401466008371197e+18
14331.0	1.7398322041978875e+18
14332.0	1.739518312552857e+18
14333.0	1.7392041994485757e+18
14334.0	1.7388897960984576e+18
14335.0	1.7385616354312187e+18
14336.0	1.738217616939417e+18
14337.0	1.7379438899494907e+18
14338.0	1.7376316525379581e+18
14339.0	1.7373088823902203e+18
14340.0	1.7370064344842237e+18
14341.0	1.736692391844249e+18
14342.0	1.7363774969217021e+18
14343.0	1.7360656386752507e+18
14344.0	1.7357464118755325e+18
14345.0	1.7354378587406328e+18
14346.0	1.7351223430610941e+18
14347.0	1.73479897899991e+18
14348.0	1.7344963951984637e+18
14349.0	1.7341848573968384e+18
14350.0	1.7338152922382333e+18
14351.0	1.733480915612467e+18
14352.0	1.733199595254579e+18
14353.0	1.732896469549056e+18
14354.0	1.7325808582393853e+18
14355.0	1.732260237253017e+18
14356.0	1.731948431015936e+18
14357.0	1.7316468840464381e+18
14358.0	1.7313363008684027e+18
14359.0	1.7310075546763261e+18
14360.0	1.7307083447730176e+18
14361.0	1.730396729796198e+18
14362.0	1.7300854386196472e+18
14363.0	1.7297694380785661e+18
14364.0	1.7293572638244861e+18
14365.0	1.7290981078466552e+18
14366.0	1.7288117610348541e+18
14367.0	1.7285249192951803e+18
14368.0	1.7282136566398976e+18
14369.0	1.7279025500127227e+18
14370.0	1.7275909820121088e+18
14371.0	1.7272794458882043e+18
14372.0	1.7269619202981885e+18
14373.0	1.7266546338430976e+18
14374.0	1.7263441127407613e+18
14375.0	1.726030288204595e+18
14376.0	1.7257214582456315e+18
14377.0	1.7254093063979005e+18
14378.0	1.7250960153772027e+18
14379.0	1.7247870361010176e+18
14380.0	1.724474770168217e+18
14381.0	1.7241522114134008e+18
14382.0	1.7238353015472128e+18
14383.0	1.7235044028383227e+18
14384.0	1.7231750056902656e+18
14385.0	1.7228835737042936e+18
14386.0	1.7225529937625085e+18
14387.0	1.7222610366496765e+18
14388.0	1.7219469604552704e+18
14389.0	1.7216384945618941e+18
14390.0	1.7213266430263293e+18
14391.0	1.721017771124326e+18
14392.0	1.7207065269239803e+18
14393.0	1.720396499071795e+18
14394.0	1.720043615499059e+18
14395.0	1.71976395105239e+18
14396.0	1.7194642277662712e+18
14397.0	1.7191534516502525e+18
14398.0	1.7188422074499067e+18
14399.0	1.7185305404637181e+18
14400.0	1.7181999353561088e+18
14401.0	1.7178957191315453e+18
14402.0	1.7175748162879485e+18
14403.0	1.716947772873113e+18
14404.0	1.7141351195869169e+18
14405.0	1.7146983441498079e+18
14406.0	1.7163014205603837e+18
14407.0	1.7156803582230525e+18
14408.0	1.715703532591513e+18
14409.0	1.7154057000976384e+18
14410.0	1.7151115300700157e+18
14411.0	1.7148102397919227e+18
14412.0	1.7145001951625216e+18
14413.0	1.714195200475136e+18
14414.0	1.713883892521369e+18
14415.0	1.713575413206221e+18
14416.0	1.7132662946791424e+18
14417.0	1.7129523845791741e+18
14418.0	1.712640011272192e+18
14419.0	1.7123108339056635e+18
14420.0	1.7119854146355197e+18
14421.0	1.7116786163974136e+18
14422.0	1.7113567908069376e+18
14423.0	1.710994671376793e+18
14424.0	1.7093115961671675e+18
14425.0	1.710372954728038e+18
14426.0	1.7101269453766656e+18
14427.0	1.7098251685593085e+18
14428.0	1.709493702780518e+18
14429.0	1.7092075824611325e+18
14430.0	1.7088899981508605e+18
14431.0	1.7083987008684027e+18
14432.0	1.7082681036636157e+18
14433.0	1.7076928934576123e+18
14434.0	1.7076403421839357e+18
14435.0	1.7073370721943547e+18
14436.0	1.7070509803962365e+18
14437.0	1.7067454941364221e+18
14438.0	1.7064153134923776e+18
14439.0	1.7061200445571067e+18
14440.0	1.705821866452582e+18
14441.0	1.7055038727782397e+18
14442.0	1.705188959400755e+18
14443.0	1.7048400637722624e+18
14444.0	1.7045772268732408e+18
14445.0	1.7042629879398397e+18
14446.0	1.7029458355552256e+18
14447.0	1.7035946658627581e+18
14448.0	1.7033534631837693e+18
14449.0	1.7030512367370237e+18
14450.0	1.702738440644198e+18
14451.0	1.702433836865945e+18
14452.0	1.7021296290299896e+18
14453.0	1.7018202303234043e+18
14454.0	1.7015145561587707e+18
14455.0	1.7011983391916027e+18
14456.0	1.7008964885544957e+18
14457.0	1.7005880696373243e+18
14458.0	1.7002810381959163e+18
14459.0	1.6999697084317693e+18
14460.0	1.69963045299159e+18
14461.0	1.6992849446830077e+18
14462.0	1.69897137012736e+18
14463.0	1.698687754646323e+18
14464.0	1.69839360475136e+18
14465.0	1.6980681703817216e+18
14466.0	1.6977859222437885e+18
14467.0	1.6974629323145213e+18
14468.0	1.6971715154280443e+18
14469.0	1.696838153823846e+18
14470.0	1.6965323907399677e+18
14471.0	1.696249805379993e+18
14472.0	1.6959486744854523e+18
14473.0	1.6956472466341885e+18
14474.0	1.695344632633753e+18
14475.0	1.695036341223424e+18
14476.0	1.6947163628044288e+18
14477.0	1.6944254542675965e+18
14478.0	1.694117641007923e+18
14479.0	1.6938115910336512e+18
14480.0	1.693488470242099e+18
14481.0	1.6932024405196797e+18
14482.0	1.6928907164909565e+18
14483.0	1.6925798548111357e+18
14484.0	1.6922628828692477e+18
14485.0	1.6919210353491963e+18
14486.0	1.6913714707955712e+18
14487.0	1.6913555458621437e+18
14488.0	1.6910551867195387e+18
14489.0	1.6907389261316093e+18
14490.0	1.690444294730547e+18
14491.0	1.6901446687522816e+18
14492.0	1.6898413115211776e+18
14493.0	1.6895252371603453e+18
14494.0	1.6892050993577981e+18
14495.0	1.6889116138405885e+18
14496.0	1.6884886870687741e+18
14497.0	1.688307967931187e+18
14498.0	1.6880091237711867e+18
14499.0	1.687704491471667e+18
14500.0	1.687398072398643e+18
14501.0	1.6870674958123005e+18
14502.0	1.686558513666457e+18
14503.0	1.686460975965798e+18
14504.0	1.6861645477249021e+18
14505.0	1.6858595647815677e+18
14506.0	1.6855338519101437e+18
14507.0	1.6850132951629821e+18
14508.0	1.684946515132416e+18
14509.0	1.6846434330476541e+18
14510.0	1.684305914049331e+18
14511.0	1.6840029611491325e+18
14512.0	1.6836858298236925e+18
14513.0	1.683387881567027e+18
14514.0	1.6830524748201981e+18
14515.0	1.6827358921097213e+18
14516.0	1.6797429995143178e+18
14517.0	1.6820432699129853e+18
14518.0	1.6818585108217856e+18
14519.0	1.6815628476219387e+18
14520.0	1.6812636125528061e+18
14521.0	1.6809615622668285e+18
14522.0	1.680656232035123e+18
14523.0	1.6803300678565885e+18
14524.0	1.6800305660297213e+18
14525.0	1.679740128932659e+18
14526.0	1.6794383420489725e+18
14527.0	1.6790960147005437e+18
14528.0	1.678700654572339e+18
14529.0	1.6785170900189181e+18
14530.0	1.6782090133569533e+18
14531.0	1.6779209770795e+18
14532.0	1.6776015053324285e+18
14533.0	1.6773153078378493e+18
14534.0	1.6770146265726976e+18
14535.0	1.6766986478419963e+18
14536.0	1.6764022028238843e+18
14537.0	1.676090327800217e+18
14538.0	1.6758000702193661e+18
14539.0	1.675497268314112e+18
14540.0	1.6751935419842557e+18
14541.0	1.6748645256790013e+18
14542.0	1.6745819738734587e+18
14543.0	1.6742571485167613e+18
14544.0	1.6739704762269696e+18
14545.0	1.6736400170811384e+18
14546.0	1.6712711765229555e+18
14547.0	1.670990763812453e+18
14548.0	1.6727110341099515e+18
14549.0	1.6723302684819453e+18
14550.0	1.672139675952742e+18
14551.0	1.6718566812286976e+18
14552.0	1.6715539850199035e+18
14553.0	1.6712443799535616e+18
14554.0	1.6709510118768637e+18
14555.0	1.6706475774705661e+18
14556.0	1.6703427253895165e+18
14557.0	1.6700338199330813e+18
14558.0	1.669684704523059e+18
14559.0	1.6673995050975206e+18
14560.0	1.6690745540870141e+18
14561.0	1.668815799084646e+18
14562.0	1.6684968239431683e+18
14563.0	1.6682204377645053e+18
14564.0	1.6679126748364797e+18
14565.0	1.6676233165144061e+18
14566.0	1.6672907350507515e+18
14567.0	1.6669817054429181e+18
14568.0	1.6666711625302013e+18
14569.0	1.666357529254297e+18
14570.0	1.665515510982246e+18
14571.0	1.665756586154393e+18
14572.0	1.6654282174496765e+18
14573.0	1.665111260607283e+18
14574.0	1.6648488448163837e+18
14575.0	1.6645563223113725e+18
14576.0	1.6642519366369275e+18
14577.0	1.663951968403456e+18
14578.0	1.6636577715322877e+18
14579.0	1.663359643759411e+18
14580.0	1.6630582041640957e+18
14581.0	1.6627525165776893e+18
14582.0	1.662449915999027e+18
14583.0	1.6621517211172861e+18
14584.0	1.6618361098076157e+18
14585.0	1.661546986366566e+18
14586.0	1.6612448924598272e+18
14587.0	1.6609458939494397e+18
14588.0	1.6606449861918715e+18
14589.0	1.660344538130022e+18
14590.0	1.6600438367322107e+18
14591.0	1.6597393940152315e+18
14592.0	1.659424908456755e+18
14593.0	1.6590237434118141e+18
14594.0	1.6588315100708861e+18
14595.0	1.6585295168274432e+18
14596.0	1.6581236357070843e+18
14597.0	1.6578008571707392e+18
14598.0	1.657620366203289e+18
14599.0	1.6573384871641088e+18
14600.0	1.65703847027671e+18
14601.0	1.6567382185082877e+18
14602.0	1.656434139856896e+18
14603.0	1.6561350155173885e+18
14604.0	1.6557929029173243e+18
14605.0	1.6555173052678144e+18
14606.0	1.6551433780330493e+18
14607.0	1.654930701654425e+18
14608.0	1.654630617658163e+18
14609.0	1.6543278845394941e+18
14610.0	1.6540213882912765e+18
14611.0	1.6537225944629243e+18
14612.0	1.6534386384044032e+18
14613.0	1.6531412018528253e+18
14614.0	1.6528343767711741e+18
14615.0	1.6525373579722747e+18
14616.0	1.652243250020352e+18
14617.0	1.6519320511184893e+18
14618.0	1.65162408518615e+18
14619.0	1.6511987978600443e+18
14620.0	1.6507835869298688e+18
14621.0	1.6507345420943357e+18
14622.0	1.6504405901705208e+18
14623.0	1.650144314602291e+18
14624.0	1.6497924812832765e+18
14625.0	1.6495404120014843e+18
14626.0	1.6492435425198075e+18
14627.0	1.648945102690713e+18
14628.0	1.64865204331479e+18
14629.0	1.6483526857719805e+18
14630.0	1.6480485769216e+18
14631.0	1.6477173577678848e+18
14632.0	1.6472927096537085e+18
14633.0	1.64708752597975e+18
14634.0	1.646815223375462e+18
14635.0	1.6465007411724285e+18
14636.0	1.6461579440619515e+18
14637.0	1.645921430614835e+18
14638.0	1.6456130200862715e+18
14639.0	1.6453046615670781e+18
14640.0	1.6450010510000128e+18
14641.0	1.6442649254821885e+18
14642.0	1.6444004702879741e+18
14643.0	1.6441202320605184e+18
14644.0	1.6438091690541053e+18
14645.0	1.6434996378075133e+18
14646.0	1.6432093533831165e+18
14647.0	1.6429092794531837e+18
14648.0	1.642618969862963e+18
