# Flux units: erg / (cm m2 s)
# Wavelength units: Angstrom
wave	flux
14000.0	2.517764520961638e+18
14001.0	2.517231109511577e+18
14002.0	2.516708898530918e+18
14003.0	2.5161616978870267e+18
14004.0	2.515614071101849e+18
14005.0	2.51506628493312e+18
14006.0	2.5145151231885307e+18
14007.0	2.513965035185766e+18
14008.0	2.513374054396722e+18
14009.0	2.5128695500898304e+18
14010.0	2.5123175360626683e+18
14011.0	2.511492461101056e+18
14012.0	2.5112301493288955e+18
14013.0	2.510688850909593e+18
14014.0	2.51013930984407e+18
14015.0	2.5095956374487035e+18
14016.0	2.5090505423454203e+18
14017.0	2.5085047040114683e+18
14018.0	2.5079587247489024e+18
14019.0	2.507413018954957e+18
14020.0	2.5068669356736507e+18
14021.0	2.5063210319085563e+18
14022.0	2.505775992170086e+18
14023.0	2.5052230369411067e+18
14024.0	2.504678371334553e+18
14025.0	2.504140894765055e+18
14026.0	2.5035953382883323e+18
14027.0	2.5030513773248507e+18
14028.0	2.502506721784627e+18
14029.0	2.5019605160296443e+18
14030.0	2.5012418153283584e+18
14031.0	2.5008441986646016e+18
14032.0	2.5003282506186747e+18
14033.0	2.4997602965585915e+18
14034.0	2.499242690923725e+18
14035.0	2.498699479901798e+18
14036.0	2.4981562269368315e+18
14037.0	2.4976130561802235e+18
14038.0	2.497069987764633e+18
14039.0	2.496527040144998e+18
14040.0	2.495980804191026e+18
14041.0	2.4954399788892155e+18
14042.0	2.4948928034111483e+18
14043.0	2.49433739535319e+18
14044.0	2.4938093324795904e+18
14045.0	2.49327023858647e+18
14046.0	2.4927263094996987e+18
14047.0	2.492184110143897e+18
14048.0	2.4916461302579195e+18
14049.0	2.491105075108249e+18
14050.0	2.49056361227223e+18
14051.0	2.4900180104970235e+18
14052.0	2.4894775710711803e+18
14053.0	2.4889400391368704e+18
14054.0	2.488399368185446e+18
14055.0	2.487858645224653e+18
14056.0	2.487318029638041e+18
14057.0	2.486777596923085e+18
14058.0	2.4862372648714235e+18
14059.0	2.485697078781542e+18
14060.0	2.485156981610905e+18
14061.0	2.4846139517829115e+18
14062.0	2.484076931553689e+18
14063.0	2.4835290631766006e+18
14064.0	2.4829719455203323e+18
14065.0	2.4824545563115515e+18
14066.0	2.4819195577368576e+18
14067.0	2.4813785126535163e+18
14068.0	2.4808416048316416e+18
14069.0	2.480302334777753e+18
14070.0	2.479764054579609e+18
14071.0	2.479224306375065e+18
14072.0	2.4786872525914107e+18
14073.0	2.4781490076254203e+18
14074.0	2.4776108851331067e+18
14075.0	2.477061669545574e+18
14076.0	2.476532195708108e+18
14077.0	2.4759563513233403e+18
14078.0	2.4754555262599163e+18
14079.0	2.4749186536701947e+18
14080.0	2.4743848278228987e+18
14081.0	2.4738477220298747e+18
14082.0	2.47330917842944e+18
14083.0	2.4727724719341563e+18
14084.0	2.4722336951304187e+18
14085.0	2.4715620125769723e+18
14086.0	2.4711540812808187e+18
14087.0	2.4706267817705467e+18
14088.0	2.4700846763671547e+18
14089.0	2.4695556035051515e+18
14090.0	2.469019615074713e+18
14091.0	2.4684841551265787e+18
14092.0	2.4679485928374267e+18
14093.0	2.467413064102707e+18
14094.0	2.466877535367986e+18
14095.0	2.466341709676543e+18
14096.0	2.4658006276833275e+18
14097.0	2.4652609801420795e+18
14098.0	2.4647345731796987e+18
14099.0	2.464202319357542e+18
14100.0	2.46366273053655e+18
14101.0	2.4631341509246976e+18
14102.0	2.462599838538137e+18
14103.0	2.4620595148750843e+18
14104.0	2.461531943573913e+18
14105.0	2.4609979348549627e+18
14106.0	2.4604643774431227e+18
14107.0	2.459930231151001e+18
14108.0	2.459389451147673e+18
14109.0	2.458861418473062e+18
14110.0	2.4583278979710976e+18
14111.0	2.4577924917100544e+18
14112.0	2.4572588470566907e+18
14113.0	2.4567315475464187e+18
14114.0	2.4561899874025467e+18
14115.0	2.455663910951321e+18
14116.0	2.455113489081958e+18
14117.0	2.4542853422120955e+18
14118.0	2.454062815929958e+18
14119.0	2.4535287954669563e+18
14120.0	2.4530018013020155e+18
14121.0	2.452465494104473e+18
14122.0	2.4519403940872187e+18
14123.0	2.451406509519667e+18
14124.0	2.4508676169531387e+18
14125.0	2.450103369465856e+18
14126.0	2.4498114542960635e+18
14127.0	2.4492861797957627e+18
14128.0	2.4487557144248315e+18
14129.0	2.4482184240824315e+18
14130.0	2.447681140450918e+18
14131.0	2.4471640884641787e+18
14132.0	2.4466227262914555e+18
14133.0	2.4458178947186683e+18
14134.0	2.4455656408875003e+18
14135.0	2.4450359086809083e+18
14136.0	2.4445111509188603e+18
14137.0	2.443984502364569e+18
14138.0	2.4434545335992315e+18
14139.0	2.442926653597286e+18
14140.0	2.4423942806568955e+18
14141.0	2.4418624160661504e+18
14142.0	2.4413246324735995e+18
14143.0	2.4408077566476283e+18
14144.0	2.4402835441451003e+18
14145.0	2.4397556641431547e+18
14146.0	2.4392269050150907e+18
14147.0	2.4386992716382203e+18
14148.0	2.4381716147732475e+18
14149.0	2.437644107225497e+18
14150.0	2.437116363119001e+18
14151.0	2.436587642578534e+18
14152.0	2.4360614654640123e+18
14153.0	2.4355340736790523e+18
14154.0	2.4349903224307707e+18
14155.0	2.43447650844672e+18
14156.0	2.4339522053472256e+18
14157.0	2.433425776574464e+18
14158.0	2.4328971348869115e+18
14159.0	2.4323723217600507e+18
14160.0	2.431837727516262e+18
14161.0	2.4312894363533307e+18
14162.0	2.430736460991693e+18
14163.0	2.4302631371407355e+18
14164.0	2.429726922217881e+18
14165.0	2.429180468160102e+18
14166.0	2.4286847148490747e+18
14167.0	2.4281552946987003e+18
14168.0	2.4276392795439104e+18
14169.0	2.427114929468211e+18
14170.0	2.42658856444887e+18
14171.0	2.426063640592384e+18
14172.0	2.425539644515942e+18
14173.0	2.424994275944038e+18
14174.0	2.4244852937981947e+18
14175.0	2.4239665842225147e+18
14176.0	2.423442651899494e+18
14177.0	2.4229185920696315e+18
14178.0	2.422393656469094e+18
14179.0	2.421866601906176e+18
14180.0	2.421347076957798e+18
14181.0	2.4208235422547963e+18
14182.0	2.420299692140134e+18
14183.0	2.419776539957657e+18
14184.0	2.4192503074783227e+18
14185.0	2.4187275646599163e+18
14186.0	2.4181392816472054e+18
14187.0	2.4176644344250363e+18
14188.0	2.4171607303913467e+18
14189.0	2.4165186680127483e+18
14190.0	2.415849535596134e+18
14191.0	2.4153264773660667e+18
14192.0	2.414799583864422e+18
14193.0	2.4142728950448123e+18
14194.0	2.413759030729113e+18
14195.0	2.4132378582581243e+18
14196.0	2.4127157613625344e+18
14197.0	2.412193771841126e+18
14198.0	2.411669576115814e+18
14199.0	2.411148574772429e+18
14200.0	2.410595325942169e+18
14201.0	2.410101753669222e+18
14202.0	2.4095852234539003e+18
14203.0	2.4090598315130875e+18
14204.0	2.4085415950548987e+18
14205.0	2.4080196340547584e+18
14206.0	2.4074345722675195e+18
14207.0	2.40685511910359e+18
14208.0	2.406173729252966e+18
14209.0	2.405582958179122e+18
14210.0	2.4050780763848694e+18
14211.0	2.4046085978718203e+18
14212.0	2.4040917723774966e+18
14213.0	2.4035719420837883e+18
14214.0	2.4030513752702976e+18
14215.0	2.402526253442662e+18
14216.0	2.402011884132761e+18
14217.0	2.4014919951187963e+18
14218.0	2.4009643097325563e+18
14219.0	2.4004524838486016e+18
14220.0	2.399932987421491e+18
14221.0	2.3994133215444987e+18
14222.0	2.398886074043597e+18
14223.0	2.398374669267763e+18
14224.0	2.3978548775616507e+18
14225.0	2.397238662162022e+18
14226.0	2.396813002381721e+18
14227.0	2.3961163553308667e+18
14228.0	2.3952672604291067e+18
14229.0	2.3949034498555904e+18
14230.0	2.3944338438356987e+18
14231.0	2.3939126143221755e+18
14232.0	2.393397151137792e+18
14233.0	2.392876446751129e+18
14234.0	2.392360278923673e+18
14235.0	2.3918407707525115e+18
14236.0	2.39132366340096e+18
14237.0	2.390804707200205e+18
14238.0	2.390286242571878e+18
14239.0	2.3897601845755894e+18
14240.0	2.3885283057467387e+18
14241.0	2.3887199351078907e+18
14242.0	2.3882099077414907e+18
14243.0	2.3876188984311803e+18
14244.0	2.3871813352161275e+18
14245.0	2.386658256853401e+18
14246.0	2.3861403676835835e+18
14247.0	2.3856294528024576e+18
14248.0	2.385109367495065e+18
14249.0	2.3845985834762235e+18
14250.0	2.383832305945805e+18
14251.0	2.383242011344896e+18
14252.0	2.382725056666009e+18
14253.0	2.3822075735048187e+18
14254.0	2.381689622259302e+18
14255.0	2.381156048070246e+18
14256.0	2.3805582641201147e+18
14257.0	2.3801168824107003e+18
14258.0	2.379624430855782e+18
14259.0	2.3790968981422075e+18
14260.0	2.3785908117438464e+18
14261.0	2.378063485390029e+18
14262.0	2.3775819507695606e+18
14263.0	2.3769229165592576e+18
14264.0	2.376490852915609e+18
14265.0	2.3760339757694976e+18
14266.0	2.3755254935846907e+18
14267.0	2.3750113105018875e+18
14268.0	2.3744966610124795e+18
14269.0	2.373980681089843e+18
14270.0	2.373466966091366e+18
14271.0	2.372951618669773e+18
14272.0	2.372435762898534e+18
14273.0	2.3719115906613243e+18
14274.0	2.371164888786534e+18
14275.0	2.370647487833702e+18
14276.0	2.3700232428584955e+18
14277.0	2.369514777450905e+18
14278.0	2.369008286721638e+18
14279.0	2.368493602000077e+18
14280.0	2.367977278144512e+18
14281.0	2.367466770949734e+18
14282.0	2.3669530425294843e+18
14283.0	2.3664392151236603e+18
14284.0	2.365925431338598e+18
14285.0	2.365411671041638e+18
14286.0	2.364897846991257e+18
14287.0	2.364383714240102e+18
14288.0	2.3638644828930043e+18
14289.0	2.362891444630322e+18
14290.0	2.3628382289788923e+18
14291.0	2.362330429626777e+18
14292.0	2.36181858025472e+18
14293.0	2.361303590187827e+18
14294.0	2.3607216204414976e+18
14295.0	2.3602642232016896e+18
14296.0	2.3593955744546816e+18
14297.0	2.359240175491481e+18
14298.0	2.3586568333688827e+18
14299.0	2.3582211374579707e+18
14300.0	2.3577150376378363e+18
14301.0	2.3572055974739963e+18
14302.0	2.3566963703807995e+18
14303.0	2.355841401775718e+18
14304.0	2.355303088023142e+18
14305.0	2.3547987028344827e+18
14306.0	2.354279657714483e+18
14307.0	2.3537703937114107e+18
14308.0	2.353262621202841e+18
14309.0	2.3527482938359803e+18
14310.0	2.3522045610426363e+18
14311.0	2.3517194042212347e+18
14312.0	2.351202655902105e+18
14313.0	2.3506796446482427e+18
14314.0	2.350193961022259e+18
14315.0	2.3496822022471675e+18
14316.0	2.3491468043747323e+18
14317.0	2.348657803893145e+18
14318.0	2.3481524087160827e+18
14319.0	2.347642804135526e+18
14320.0	2.347132335528345e+18
14321.0	2.3466219877171195e+18
14322.0	2.34609202734039e+18
14323.0	2.3455890514378747e+18
14324.0	2.3450920868118523e+18
14325.0	2.3445754743881723e+18
14326.0	2.344073048778342e+18
14327.0	2.343558944548454e+18
14328.0	2.3430507375099904e+18
14329.0	2.3425446209126395e+18
14330.0	2.342035366975897e+18
14331.0	2.34152602411991e+18
14332.0	2.3410170621067254e+18
14333.0	2.340508086671769e+18
14334.0	2.339999112914534e+18
14335.0	2.3391474343215104e+18
14336.0	2.3385904324280315e+18
14337.0	2.3380917850472443e+18
14338.0	2.337581745936793e+18
14339.0	2.337065599919718e+18
14340.0	2.336564170876518e+18
14341.0	2.3360549639159803e+18
14342.0	2.3355462535610363e+18
14343.0	2.3350359476928507e+18
14344.0	2.3345252039393275e+18
14345.0	2.334020050354176e+18
14346.0	2.3335103300108283e+18
14347.0	2.332998316222054e+18
14348.0	2.332494243089613e+18
14349.0	2.331986465547878e+18
14350.0	2.3314694571819003e+18
14351.0	2.330957820880486e+18
14352.0	2.3304575477874683e+18
14353.0	2.3299544326340603e+18
14354.0	2.3294460729229307e+18
14355.0	2.328936818986188e+18
14356.0	2.328429888693862e+18
14357.0	2.3279251260178427e+18
14358.0	2.3274179860103163e+18
14359.0	2.3268997076090875e+18
14360.0	2.3264029828972544e+18
14361.0	2.3258963982155776e+18
14362.0	2.3253898286333947e+18
14363.0	2.3248823782473723e+18
14364.0	2.324349397971763e+18
14365.0	2.323858822109593e+18
14366.0	2.323358538950246e+18
14367.0	2.3228572659351547e+18
14368.0	2.3223509597552635e+18
14369.0	2.3218451870908416e+18
14370.0	2.3213392483319803e+18
14371.0	2.3207377868161024e+18
14372.0	2.3199079991345147e+18
14373.0	2.3194044645507067e+18
14374.0	2.318898092939673e+18
14375.0	2.3183916676415483e+18
14376.0	2.3178853178408955e+18
14377.0	2.317378729803776e+18
14378.0	2.31687152772055e+18
14379.0	2.316366771755417e+18
14380.0	2.3158600830550016e+18
14381.0	2.3153473830780923e+18
14382.0	2.3148480780304384e+18
14383.0	2.314341330609766e+18
14384.0	2.3138251258724347e+18
14385.0	2.3133323924602875e+18
14386.0	2.3128168990769147e+18
14387.0	2.3123215568076795e+18
14388.0	2.311815789176422e+18
14389.0	2.31131092919255e+18
14390.0	2.3108053360443387e+18
14391.0	2.3103013585420283e+18
14392.0	2.309796013696614e+18
14393.0	2.3092918600335355e+18
14394.0	2.308762998564454e+18
14395.0	2.3082757563351035e+18
14396.0	2.3077778186305536e+18
14397.0	2.3072733059350523e+18
14398.0	2.3067682647572475e+18
14399.0	2.306263691663769e+18
14400.0	2.3057497166184445e+18
14401.0	2.3052476869509117e+18
14402.0	2.3047361798340598e+18
14403.0	2.3035642476756987e+18
14404.0	2.301516749524172e+18
14405.0	2.3024185987039217e+18
14406.0	2.30271139971072e+18
14407.0	2.3014055383924736e+18
14408.0	2.301686682589593e+18
14409.0	2.3012130399715323e+18
14410.0	2.300719885451264e+18
14411.0	2.3002196995997688e+18
14412.0	2.2995570046009341e+18
14413.0	2.2988062812274683e+18
14414.0	2.2983010991210488e+18
14415.0	2.2977977725747195e+18
14416.0	2.2972938571481083e+18
14417.0	2.2967871197937661e+18
14418.0	2.2962815451004923e+18
14419.0	2.2957813055619067e+18
14420.0	2.295274955761254e+18
14421.0	2.2947715335847933e+18
14422.0	2.294257669269094e+18
14423.0	2.2936999862206461e+18
14424.0	2.2898514908413934e+18
14425.0	2.2926772219674621e+18
14426.0	2.2922477067829243e+18
14427.0	2.2917537553448955e+18
14428.0	2.291239025324851e+18
14429.0	2.290749264835379e+18
14430.0	2.2902479465218045e+18
14431.0	2.2896989473603581e+18
14432.0	2.2892281199591421e+18
14433.0	2.2881131565154296e+18
14434.0	2.288220777322905e+18
14435.0	2.28772967130071e+18
14436.0	2.2872363926290427e+18
14437.0	2.286734693472665e+18
14438.0	2.2862180223287293e+18
14439.0	2.2857246077616128e+18
14440.0	2.2852299466473472e+18
14441.0	2.2847264724615165e+18
14442.0	2.2842231459151867e+18
14443.0	2.283701315777331e+18
14444.0	2.283219917052313e+18
14445.0	2.28271337766912e+18
14446.0	2.2812801202388992e+18
14447.0	2.2816812768952317e+18
14448.0	2.2812179153551357e+18
14449.0	2.2807197209591803e+18
14450.0	2.2802156226609152e+18
14451.0	2.2797178191740923e+18
14452.0	2.279215413696921e+18
14453.0	2.278709295421849e+18
14454.0	2.2782160251387896e+18
14455.0	2.2777134820884477e+18
14456.0	2.2772133885116413e+18
14457.0	2.2767124460077048e+18
14458.0	2.2762138254704637e+18
14459.0	2.2757126631849976e+18
14460.0	2.2752129470955515e+18
14461.0	2.274700921562726e+18
14462.0	2.2737926752305147e+18
14463.0	2.2732926806392827e+18
14464.0	2.2727941557321723e+18
14465.0	2.272284276005273e+18
14466.0	2.2717935726362621e+18
14467.0	2.2712761062522877e+18
14468.0	2.2707898152910843e+18
14469.0	2.2702796822282237e+18
14470.0	2.269776313738854e+18
14471.0	2.2692865331167227e+18
14472.0	2.2687872381353981e+18
14473.0	2.2682923756945405e+18
14474.0	2.267792315672166e+18
14475.0	2.267289264272179e+18
14476.0	2.2667536298409984e+18
14477.0	2.266291833615155e+18
14478.0	2.2657925268897787e+18
14479.0	2.2652927151702013e+18
14480.0	2.2647821039566845e+18
14481.0	2.2642934121758715e+18
14482.0	2.2637909110685693e+18
14483.0	2.2632883780845565e+18
14484.0	2.2627841472462845e+18
14485.0	2.2622683770388477e+18
14486.0	2.2616315088863224e+18
14487.0	2.2612927836061696e+18
14488.0	2.260792646408601e+18
14489.0	2.260294188610355e+18
14490.0	2.259797749111193e+18
14491.0	2.259299485928652e+18
14492.0	2.258801593522585e+18
14493.0	2.2582991612018683e+18
14494.0	2.257790029738803e+18
14495.0	2.2573001719414776e+18
14496.0	2.2567323571322877e+18
14497.0	2.2563047746830333e+18
14498.0	2.2558083855155195e+18
14499.0	2.255309857252966e+18
14500.0	2.254810240149094e+18
14501.0	2.254287249027891e+18
14502.0	2.2536969477160957e+18
14503.0	2.253303800502681e+18
14504.0	2.252811926083993e+18
14505.0	2.2522942785060861e+18
14506.0	2.2517779093520381e+18
14507.0	2.251187044325785e+18
14508.0	2.2508222455742461e+18
14509.0	2.2503272505933821e+18
14510.0	2.249829779295436e+18
14511.0	2.2493310161518587e+18
14512.0	2.2488255941312512e+18
14513.0	2.2483338103095293e+18
14514.0	2.2478188890292221e+18
14515.0	2.2473298684149755e+18
14516.0	2.245686301871309e+18
14517.0	2.24631629807616e+18
14518.0	2.245470421044429e+18
14519.0	2.244928038816972e+18
14520.0	2.2444301464109053e+18
14521.0	2.2439315845939195e+18
14522.0	2.2434315396710395e+18
14523.0	2.2428884863549437e+18
14524.0	2.242389488330342e+18
14525.0	2.2419339198070784e+18
14526.0	2.2414399163596795e+18
14527.0	2.240925157818367e+18
14528.0	2.240381872976691e+18
14529.0	2.239938769924915e+18
14530.0	2.2394371982753787e+18
14531.0	2.2389462231154685e+18
14532.0	2.2383979302748157e+18
14533.0	2.2379497990914045e+18
14534.0	2.2374565892063227e+18
14535.0	2.2369515295735803e+18
14536.0	2.236458101584691e+18
14537.0	2.235957053384294e+18
14538.0	2.2354658064334845e+18
14539.0	2.234968321713766e+18
14540.0	2.2344704209190912e+18
14541.0	2.2339562177036285e+18
14542.0	2.2334707974799355e+18
14543.0	2.2329408589135867e+18
14544.0	2.2324713569124347e+18
14545.0	2.2319555212738555e+18
14546.0	2.227945550223768e+18
14547.0	2.2277023175016428e+18
14548.0	2.230456455213875e+18
14549.0	2.2299195759132667e+18
14550.0	2.229487284099481e+18
14551.0	2.2289985872855032e+18
14552.0	2.2285018474741755e+18
14553.0	2.2280030222548984e+18
14554.0	2.227509334219161e+18
14555.0	2.2270120860581885e+18
14556.0	2.2265142389506043e+18
14557.0	2.2260170075668477e+18
14558.0	2.2255100286205942e+18
14559.0	2.2241696028819443e+18
14560.0	2.2245149333520381e+18
14561.0	2.2240264244428792e+18
14562.0	2.223519212293324e+18
14563.0	2.2230370854371323e+18
14564.0	2.2225394899877883e+18
14565.0	2.2220452030054395e+18
14566.0	2.2215488239042555e+18
14567.0	2.221051703250124e+18
14568.0	2.2205501014015995e+18
14569.0	2.2200541652189181e+18
14570.0	2.219324037555814e+18
14571.0	2.219061032884633e+18
14572.0	2.2185481936568315e+18
14573.0	2.2180431826780155e+18
14574.0	2.2175722596466683e+18
14575.0	2.2170785833549821e+18
14576.0	2.2165833685925883e+18
14577.0	2.2160834830532605e+18
14578.0	2.215591487838617e+18
14579.0	2.2150963183747064e+18
14580.0	2.2146002412634104e+18
14581.0	2.2141018807730173e+18
14582.0	2.2135615956975608e+18
14583.0	2.2126921449996285e+18
14584.0	2.2121890130690045e+18
14585.0	2.2116972930007037e+18
14586.0	2.2111987764822016e+18
14587.0	2.2107028537212928e+18
14588.0	2.2102063370469373e+18
14589.0	2.209714585101926e+18
14590.0	2.2092233230516221e+18
14591.0	2.2087315811729405e+18
14592.0	2.2082342323486717e+18
14593.0	2.207684362449715e+18
14594.0	2.207255518353817e+18
14595.0	2.2067630265335803e+18
14596.0	2.2062492293267453e+18
14597.0	2.20575514534871e+18
14598.0	2.205289549083443e+18
14599.0	2.2048023638966272e+18
14600.0	2.2043113518268416e+18
14601.0	2.2038202189611003e+18
14602.0	2.203328300921651e+18
14603.0	2.2028368291561472e+18
14604.0	2.202323946307584e+18
14605.0	2.2018513371660283e+18
14606.0	2.2013295187722237e+18
14607.0	2.2008687040135165e+18
14608.0	2.2003807923732477e+18
14609.0	2.199888080771481e+18
14610.0	2.1993983571918843e+18
14611.0	2.198906606924595e+18
14612.0	2.198417395050086e+18
14613.0	2.197926627927654e+18
14614.0	2.1974338106294267e+18
14615.0	2.1969440014860285e+18
14616.0	2.196453090079539e+18
14617.0	2.1959614270537723e+18
14618.0	2.1954668733136893e+18
14619.0	2.194947823160524e+18
14620.0	2.1944228540055542e+18
14621.0	2.193994602145382e+18
14622.0	2.193504606774886e+18
14623.0	2.1930125595508733e+18
14624.0	2.1924899962486784e+18
14625.0	2.1920262823870461e+18
14626.0	2.1915376862363645e+18
14627.0	2.1910446390902784e+18
14628.0	2.1905561436028923e+18
14629.0	2.1900646382829565e+18
14630.0	2.1895724316753915e+18
14631.0	2.1890788258480123e+18
14632.0	2.1883297869070333e+18
14633.0	2.188044154804633e+18
14634.0	2.1876039122681853e+18
14635.0	2.187110734259814e+18
14636.0	2.1866120097038336e+18
14637.0	2.1861313592426496e+18
14638.0	2.1856374094823421e+18
14639.0	2.1851391362334715e+18
14640.0	2.1846327646224381e+18
14641.0	2.1831111768276984e+18
14642.0	2.1836472692768763e+18
14643.0	2.1831766549463037e+18
14644.0	2.182679180292915e+18
14645.0	2.1821836064980987e+18
14646.0	2.181698365790617e+18
14647.0	2.1812059914108923e+18
14648.0	2.180718492490137e+18
14649.0	2.180227901528473e+18
14650.0	2.1797343460327421e+18
