# Flux units: erg / (cm m2 s)
# Wavelength units: Angstrom
wave	flux
14000.0	2.389980674103705e+18
14001.0	2.389452507211366e+18
14002.0	2.388945038370406e+18
14003.0	2.3884127862259707e+18
14004.0	2.3878801414946816e+18
14005.0	2.38734746320896e+18
14006.0	2.3868114563235835e+18
14007.0	2.386277237889433e+18
14008.0	2.385697598498406e+18
14009.0	2.3852163843227643e+18
14010.0	2.3846777048268795e+18
14011.0	2.3838704153919483e+18
14012.0	2.3836214314401787e+18
14013.0	2.3830904912740347e+18
14014.0	2.382555789656064e+18
14015.0	2.3820264684912635e+18
14016.0	2.3814964930150395e+18
14017.0	2.3809654639296507e+18
14018.0	2.380434354313625e+18
14019.0	2.3799037178150907e+18
14020.0	2.379372614909952e+18
14021.0	2.378841605957222e+18
14022.0	2.3783093722677243e+18
14023.0	2.377770786724249e+18
14024.0	2.3772398633353206e+18
14025.0	2.376720949077606e+18
14026.0	2.3761907152322555e+18
14027.0	2.3756620852887547e+18
14028.0	2.3751324034138107e+18
14029.0	2.3746018910666747e+18
14030.0	2.3733300421984256e+18
14031.0	2.3735121085464576e+18
14032.0	2.373013162531225e+18
14033.0	2.3724590849064955e+18
14034.0	2.3719558472794107e+18
14035.0	2.3714291819479035e+18
14036.0	2.3709011559841787e+18
14037.0	2.370373036068045e+18
14038.0	2.3698449882939387e+18
14039.0	2.369317024405913e+18
14040.0	2.3687847017971707e+18
14041.0	2.368259444074086e+18
14042.0	2.3677278596628475e+18
14043.0	2.367187760814489e+18
14044.0	2.3666741884223483e+18
14045.0	2.366150173890969e+18
14046.0	2.365621632866713e+18
14047.0	2.3650916473241595e+18
14048.0	2.3645699480485883e+18
14049.0	2.3640445141647355e+18
14050.0	2.3635181340459e+18
14051.0	2.362987215690137e+18
14052.0	2.362465516414566e+18
14053.0	2.361939490294988e+18
14054.0	2.3614136504025083e+18
14055.0	2.3608878776188923e+18
14056.0	2.360362197109965e+18
14057.0	2.359836672629145e+18
14058.0	2.3593088362479616e+18
14059.0	2.3587038397726715e+18
14060.0	2.3581787363999744e+18
14061.0	2.357650703725363e+18
14062.0	2.3571288937201664e+18
14063.0	2.3565955560898555e+18
14064.0	2.355977040533913e+18
14065.0	2.3555512180146176e+18
14066.0	2.355030986745446e+18
14067.0	2.354494058790912e+18
14068.0	2.353982867085721e+18
14069.0	2.353457236908441e+18
14070.0	2.352934631663206e+18
14071.0	2.3524103939948544e+18
14072.0	2.3518882669002747e+18
14073.0	2.3513649435901947e+18
14074.0	2.3508417209434107e+18
14075.0	2.350308275938918e+18
14076.0	2.3497812012433403e+18
14077.0	2.3491022138900475e+18
14078.0	2.3487371718688763e+18
14079.0	2.348223928310169e+18
14080.0	2.3477055039471616e+18
14081.0	2.3471833701416955e+18
14082.0	2.346657595680358e+18
14083.0	2.346138463318834e+18
14084.0	2.3456166382141435e+18
14085.0	2.344880398611251e+18
14086.0	2.3445584404807675e+18
14087.0	2.3440526158069755e+18
14088.0	2.3435232896090107e+18
14089.0	2.342998765050265e+18
14090.0	2.342487076739481e+18
14091.0	2.341968602044825e+18
14092.0	2.3414480805298176e+18
14093.0	2.3409274583515126e+18
14094.0	2.3404068093296635e+18
14095.0	2.339885610015129e+18
14096.0	2.339332226967142e+18
14097.0	2.338825457736089e+18
14098.0	2.3383101438689275e+18
14099.0	2.337806052281548e+18
14100.0	2.337281614964326e+18
14101.0	2.3367454218518523e+18
14102.0	2.3362243164897275e+18
14103.0	2.3356990101127163e+18
14104.0	2.335186269870489e+18
14105.0	2.3346668590071803e+18
14106.0	2.3341484765872123e+18
14107.0	2.3336285372415995e+18
14108.0	2.3331043968811003e+18
14109.0	2.332590015827149e+18
14110.0	2.332069366805299e+18
14111.0	2.3315467330387963e+18
14112.0	2.3310335163236347e+18
14113.0	2.330517111937433e+18
14114.0	2.3299944798486523e+18
14115.0	2.3294825684008955e+18
14116.0	2.3289291081777147e+18
14117.0	2.3271913795092475e+18
14118.0	2.327865939355238e+18
14119.0	2.327175367334297e+18
14120.0	2.3266646453911547e+18
14121.0	2.326154188528025e+18
14122.0	2.325637618047385e+18
14123.0	2.3251067668004864e+18
14124.0	2.324589276928409e+18
14125.0	2.323855790466662e+18
14126.0	2.3235751143538683e+18
14127.0	2.3230660332224507e+18
14128.0	2.3225493838888955e+18
14129.0	2.3220271645196283e+18
14130.0	2.321505619594444e+18
14131.0	2.32100199441367e+18
14132.0	2.320482085267046e+18
14133.0	2.3196878887714806e+18
14134.0	2.3194532241735675e+18
14135.0	2.318922886309478e+18
14136.0	2.318302984955494e+18
14137.0	2.317686741034598e+18
14138.0	2.317161969850777e+18
14139.0	2.3166601314435067e+18
14140.0	2.3161370312703995e+18
14141.0	2.3156109363642363e+18
14142.0	2.315017204111769e+18
14143.0	2.314591658416537e+18
14144.0	2.3140854562553856e+18
14145.0	2.313571353703218e+18
14146.0	2.3130560784236544e+18
14147.0	2.3125408853524475e+18
14148.0	2.3120233417932795e+18
14149.0	2.3115083315937275e+18
14150.0	2.3110003007160315e+18
14151.0	2.310476422080102e+18
14152.0	2.3099727130132475e+18
14153.0	2.3094589560717307e+18
14154.0	2.3089308093120507e+18
14155.0	2.3083959483105275e+18
14156.0	2.3077740840222715e+18
14157.0	2.3071857942986747e+18
14158.0	2.306670017380352e+18
14159.0	2.3061587535331323e+18
14160.0	2.3056411294433275e+18
14161.0	2.3051011379691517e+18
14162.0	2.304562486994534e+18
14163.0	2.3041028315414523e+18
14164.0	2.3035476482981885e+18
14165.0	2.303002960881254e+18
14166.0	2.30256383402967e+18
14167.0	2.30204659246039e+18
14168.0	2.3015386521796605e+18
14169.0	2.3010307924295677e+18
14170.0	2.3005153208565755e+18
14171.0	2.3000056743329787e+18
14172.0	2.2994951419723773e+18
14173.0	2.298944112767795e+18
14174.0	2.2984676616437757e+18
14175.0	2.2979605820342267e+18
14176.0	2.2974487125295096e+18
14177.0	2.2969379150888955e+18
14178.0	2.296425834191257e+18
14179.0	2.2957038300561405e+18
14180.0	2.295184872177664e+18
14181.0	2.2946735663874045e+18
14182.0	2.29416198209536e+18
14183.0	2.2936512148537341e+18
14184.0	2.2931373035618301e+18
14185.0	2.29262765368279e+18
14186.0	2.291866907600486e+18
14187.0	2.2915908737433595e+18
14188.0	2.2910967847321592e+18
14189.0	2.2905844874084347e+18
14190.0	2.2900751395192827e+18
14191.0	2.289564105519923e+18
14192.0	2.2890520783093755e+18
14193.0	2.288505729948057e+18
14194.0	2.288035231380275e+18
14195.0	2.2875281702256637e+18
14196.0	2.287018740128153e+18
14197.0	2.286509439215206e+18
14198.0	2.2859979002216443e+18
14199.0	2.2854892636864504e+18
14200.0	2.284842460066611e+18
14201.0	2.2844640466042877e+18
14202.0	2.2839644412444664e+18
14203.0	2.2834472147746813e+18
14204.0	2.2827558760349696e+18
14205.0	2.2822185202614272e+18
14206.0	2.2816451236724733e+18
14207.0	2.2812019182796795e+18
14208.0	2.2806935938007032e+18
14209.0	2.280117836657459e+18
14210.0	2.2796269571276795e+18
14211.0	2.279167905654374e+18
14212.0	2.2786596080189432e+18
14213.0	2.2781497652019195e+18
14214.0	2.2776435596853243e+18
14215.0	2.2771306114056187e+18
14216.0	2.2766285112737787e+18
14217.0	2.2761208595611645e+18
14218.0	2.2756063795216381e+18
14219.0	2.27510582289367e+18
14220.0	2.274598600677785e+18
14221.0	2.2740879206776827e+18
14222.0	2.2735605490253821e+18
14223.0	2.2730766957936637e+18
14224.0	2.2725697051033595e+18
14225.0	2.271669310508237e+18
14226.0	2.2715527709327355e+18
14227.0	2.2710499107930104e+18
14228.0	2.269717825008435e+18
14229.0	2.2698656926793718e+18
14230.0	2.2695316599865344e+18
14231.0	2.2689441386594301e+18
14232.0	2.2682364371009533e+18
14233.0	2.2676124035186683e+18
14234.0	2.2671091960905723e+18
14235.0	2.2666018983772157e+18
14236.0	2.2660969746399227e+18
14237.0	2.2655906013511675e+18
14238.0	2.265085227984486e+18
14239.0	2.264575398589235e+18
14240.0	2.263374945163673e+18
14241.0	2.2635630747975675e+18
14242.0	2.263060875680153e+18
14243.0	2.2624773523636221e+18
14244.0	2.2620534424469496e+18
14245.0	2.2615415645536248e+18
14246.0	2.2610318861533181e+18
14247.0	2.2605362502828027e+18
14248.0	2.2600278251405304e+18
14249.0	2.2595289344901115e+18
14250.0	2.2590244402495483e+18
14251.0	2.2585214677024768e+18
14252.0	2.2580172150538232e+18
14253.0	2.2575126016950272e+18
14254.0	2.2570075236073467e+18
14255.0	2.2564881093885947e+18
14256.0	2.2555698604802045e+18
14257.0	2.25546368754647e+18
14258.0	2.25499321246679e+18
14259.0	2.254481777491967e+18
14260.0	2.2539748203560957e+18
14261.0	2.2534714921320443e+18
14262.0	2.2529970257526781e+18
14263.0	2.2517686802055168e+18
14264.0	2.251633549796966e+18
14265.0	2.2512725561180157e+18
14266.0	2.2507749304696827e+18
14267.0	2.250272174348697e+18
14268.0	2.2497692890431483e+18
14269.0	2.249265085048422e+18
14270.0	2.2487633590484987e+18
14271.0	2.248259207063142e+18
14272.0	2.2477565214064637e+18
14273.0	2.2472480039895037e+18
14274.0	2.2457794120646659e+18
14275.0	2.246148487328563e+18
14276.0	2.245733350218137e+18
14277.0	2.2452358688538621e+18
14278.0	2.2447438518288376e+18
14279.0	2.244241525204582e+18
14280.0	2.2437367440736253e+18
14281.0	2.2432386872508413e+18
14282.0	2.2427371407671293e+18
14283.0	2.2422355053641723e+18
14284.0	2.2417338867384315e+18
14285.0	2.241232180871167e+18
14286.0	2.2407303307198461e+18
14287.0	2.240229613030604e+18
14288.0	2.2397278568316928e+18
14289.0	2.2387780650795e+18
14290.0	2.2387244383862781e+18
14291.0	2.238225086362419e+18
14292.0	2.237724910577254e+18
14293.0	2.2372229614403584e+18
14294.0	2.2366514388664317e+18
14295.0	2.236214425944064e+18
14296.0	2.2353580312756224e+18
14297.0	2.2352196897079293e+18
14298.0	2.2345388182732792e+18
14299.0	2.2342108689989627e+18
14300.0	2.2335107591307261e+18
14301.0	2.233012391929446e+18
14302.0	2.2325108068581373e+18
14303.0	2.231991087294054e+18
14304.0	2.231503957472051e+18
14305.0	2.231007640446566e+18
14306.0	2.230485192907161e+18
14307.0	2.229994669054361e+18
14308.0	2.229502131935641e+18
14309.0	2.2289945439764477e+18
14310.0	2.228404175555788e+18
14311.0	2.2279456877969403e+18
14312.0	2.227460801088716e+18
14313.0	2.226974112507494e+18
14314.0	2.2265018120667133e+18
14315.0	2.2260106775232504e+18
14316.0	2.225486599238451e+18
14317.0	2.2249935487369213e+18
14318.0	2.2245183911362557e+18
14319.0	2.2240214466428923e+18
14320.0	2.223523228758835e+18
14321.0	2.2230254454046717e+18
14322.0	2.2225062274793467e+18
14323.0	2.2220186245398528e+18
14324.0	2.2215314963955704e+18
14325.0	2.2210274937274365e+18
14326.0	2.2205358223130621e+18
14327.0	2.2200341449670653e+18
14328.0	2.219537094777241e+18
14329.0	2.219042730619699e+18
14330.0	2.2185451871797245e+18
14331.0	2.2180475430764536e+18
14332.0	2.2175502764605437e+18
14333.0	2.21705296454615e+18
14334.0	2.216555694574796e+18
14335.0	2.2160521499246587e+18
14336.0	2.215514639800729e+18
14337.0	2.215064092698214e+18
14338.0	2.2145664368508928e+18
14339.0	2.2140636941516795e+18
14340.0	2.2135024342007803e+18
14341.0	2.2128718273052667e+18
14342.0	2.2123774967021568e+18
14343.0	2.2118775306321915e+18
14344.0	2.2113812370948093e+18
14345.0	2.2108861901045755e+18
14346.0	2.210386794459955e+18
14347.0	2.2098775304568827e+18
14348.0	2.2093940245135357e+18
14349.0	2.2088993147453432e+18
14350.0	2.2083681128546301e+18
14351.0	2.2078671367962621e+18
14352.0	2.2074061173555195e+18
14353.0	2.2069138117623803e+18
14354.0	2.2064134480723963e+18
14355.0	2.2059090276515837e+18
14356.0	2.2054158227996667e+18
14357.0	2.2049302046048253e+18
14358.0	2.204434328820121e+18
14359.0	2.203929148391423e+18
14360.0	2.20343967982551e+18
14361.0	2.2029456730226683e+18
14362.0	2.202451523613491e+18
14363.0	2.2019555337437176e+18
14364.0	2.2013456920084475e+18
14365.0	2.2009377338687485e+18
14366.0	2.2004515771252728e+18
14367.0	2.1999749984944123e+18
14368.0	2.1994796595806205e+18
14369.0	2.198984934712934e+18
14370.0	2.1984900320067584e+18
14371.0	2.1979953155276795e+18
14372.0	2.1974975489507323e+18
14373.0	2.197005516826214e+18
14374.0	2.1965109429534717e+18
14375.0	2.196016298616422e+18
14376.0	2.195521676089753e+18
14377.0	2.1950268069380093e+18
14378.0	2.1945312750862333e+18
14379.0	2.1940382044520443e+18
14380.0	2.193543147395481e+18
14381.0	2.193042860880691e+18
14382.0	2.1925543637155837e+18
14383.0	2.1920561575755773e+18
14384.0	2.1915554499526656e+18
14385.0	2.191073131836211e+18
14386.0	2.1905704461795323e+18
14387.0	2.190085254125977e+18
14388.0	2.1895904856375293e+18
14389.0	2.189052322879897e+18
14390.0	2.1884058883588093e+18
14391.0	2.187912715383603e+18
14392.0	2.1874176969146365e+18
14393.0	2.1869249131708416e+18
14394.0	2.1864095238062075e+18
14395.0	2.1859254390489083e+18
14396.0	2.185442869274214e+18
14397.0	2.1849497315311616e+18
14398.0	2.1844551660470267e+18
14399.0	2.1839618252996605e+18
14400.0	2.1834583108485115e+18
14401.0	2.1829310029496315e+18
14402.0	2.182340723448217e+18
14403.0	2.1806275650125806e+18
14404.0	2.1779093070544886e+18
14405.0	2.180125870889368e+18
14406.0	2.1803669024407547e+18
14407.0	2.1781947596406787e+18
14408.0	2.179356481185382e+18
14409.0	2.1788831975997432e+18
14410.0	2.1783916469813243e+18
14411.0	2.1779071243386877e+18
14412.0	2.177413550388019e+18
14413.0	2.1769226792468477e+18
14414.0	2.1764286791548925e+18
14415.0	2.1759367074283517e+18
14416.0	2.1754402696069115e+18
14417.0	2.1749358424752128e+18
14418.0	2.174439954946457e+18
14419.0	2.1739658979311608e+18
14420.0	2.173471909583257e+18
14421.0	2.1729811793707005e+18
14422.0	2.1724860031959032e+18
14423.0	2.1719688119582715e+18
14424.0	2.1646006512779228e+18
14425.0	2.1709878816931832e+18
14426.0	2.1705185441087483e+18
14427.0	2.1700292735139837e+18
14428.0	2.1695253530542075e+18
14429.0	2.169043414102835e+18
14430.0	2.1685536049594365e+18
14431.0	2.1678757517459453e+18
14432.0	2.1675615715328e+18
14433.0	2.1658140684582904e+18
14434.0	2.1665752608145403e+18
14435.0	2.1660671494062075e+18
14436.0	2.1656021537652736e+18
14437.0	2.1649585613045752e+18
14438.0	2.164348368925491e+18
14439.0	2.1638938506559483e+18
14440.0	2.163415805696409e+18
14441.0	2.1629223525416955e+18
14442.0	2.1624293825708027e+18
14443.0	2.1619184609787901e+18
14444.0	2.16144890864599e+18
14445.0	2.1608846187298816e+18
14446.0	2.158721317522637e+18
14447.0	2.159772658407833e+18
14448.0	2.1592961334640637e+18
14449.0	2.1588051448823805e+18
14450.0	2.1583104317587448e+18
14451.0	2.1578211443867643e+18
14452.0	2.15732716610519e+18
14453.0	2.1568155314814973e+18
14454.0	2.1563467374788605e+18
14455.0	2.155852712221081e+18
14456.0	2.155357583022489e+18
14457.0	2.1548629672067064e+18
14458.0	2.1543747435102203e+18
14459.0	2.153880753484595e+18
14460.0	2.1533854078599165e+18
14461.0	2.1528673056194557e+18
14462.0	2.1523485792665595e+18
14463.0	2.1519005487464445e+18
14464.0	2.1514249582936064e+18
14465.0	2.1509292234375165e+18
14466.0	2.1504506617397243e+18
14467.0	2.1499354787348475e+18
14468.0	2.149467317233254e+18
14469.0	2.1489581002063867e+18
14470.0	2.148473887942246e+18
14471.0	2.1479940444651515e+18
14472.0	2.1475052989972475e+18
14473.0	2.1470196640251901e+18
14474.0	2.1465295243706368e+18
14475.0	2.1460363245518843e+18
14476.0	2.1454675769294843e+18
14477.0	2.145056457962291e+18
14478.0	2.1445665649328125e+18
14479.0	2.1440751300771837e+18
14480.0	2.143575335134822e+18
14481.0	2.1430948541235192e+18
14482.0	2.142602035147571e+18
14483.0	2.1421077951414267e+18
14484.0	2.141616256267059e+18
14485.0	2.1411108443127805e+18
14486.0	2.140481134998323e+18
14487.0	2.140148164303257e+18
14488.0	2.1396319092342781e+18
14489.0	2.1391512503844861e+18
14490.0	2.1386743563419643e+18
14491.0	2.1381883304607736e+18
14492.0	2.1376987847196667e+18
14493.0	2.1372078800240637e+18
14494.0	2.1367054158266365e+18
14495.0	2.13622637765591e+18
14496.0	2.1356634030735355e+18
14497.0	2.1352452175429627e+18
14498.0	2.134755287603609e+18
14499.0	2.1342649533333501e+18
14500.0	2.1337739513298936e+18
14501.0	2.133240566723379e+18
14502.0	2.1326464653721595e+18
14503.0	2.1322848995901437e+18
14504.0	2.131807899851161e+18
14505.0	2.1312779981946875e+18
14506.0	2.130747398606028e+18
14507.0	2.1302075413495803e+18
14508.0	2.1298487689740288e+18
14509.0	2.1293585202675704e+18
14510.0	2.1287062271426557e+18
14511.0	2.1281988908417021e+18
14512.0	2.1276988408856573e+18
14513.0	2.1272161519927293e+18
14514.0	2.126705159936409e+18
14515.0	2.1262324652310528e+18
14516.0	2.1246327761403907e+18
14517.0	2.1252477936467968e+18
14518.0	2.12475952800727e+18
14519.0	2.1242685142597624e+18
14520.0	2.1237771582570493e+18
14521.0	2.1232856361598973e+18
14522.0	2.1227908576051192e+18
14523.0	2.122194741310259e+18
14524.0	2.1217152015007744e+18
14525.0	2.1213167040331768e+18
14526.0	2.1208289551319037e+18
14527.0	2.1203236505518075e+18
14528.0	2.119781756541337e+18
14529.0	2.1193483037442045e+18
14530.0	2.1188549025988603e+18
14531.0	2.1183701232648187e+18
14532.0	2.1177588504330237e+18
14533.0	2.1173862955745275e+18
14534.0	2.116896865596211e+18
14535.0	2.116398615835443e+18
14536.0	2.1159133264740347e+18
14537.0	2.1154148401545208e+18
14538.0	2.114929906470092e+18
14539.0	2.1144382333779965e+18
14540.0	2.1139463119831035e+18
14541.0	2.113441723790131e+18
14542.0	2.112961585034035e+18
14543.0	2.1124063581700093e+18
14544.0	2.111975646769971e+18
14545.0	2.111477135284633e+18
14546.0	2.1039011418079194e+18
14547.0	2.104055972023496e+18
14548.0	2.1099957423439872e+18
14549.0	2.1094494980014075e+18
14550.0	2.1090187362697208e+18
14551.0	2.1085304437866493e+18
14552.0	2.1080368094380027e+18
14553.0	2.1075416852725757e+18
14554.0	2.107052070744883e+18
14555.0	2.106558491761049e+18
14556.0	2.1060632820318205e+18
14557.0	2.1055718387875835e+18
14558.0	2.1050764528975867e+18
14559.0	2.1037611543953393e+18
14560.0	2.1040806311755773e+18
14561.0	2.103593803343462e+18
14562.0	2.1030876548694016e+18
14563.0	2.1026075362459643e+18
14564.0	2.102101439781273e+18
14565.0	2.101623777342259e+18
14566.0	2.1011301933252603e+18
14567.0	2.100633602831155e+18
14568.0	2.1001203777273848e+18
14569.0	2.0996456244576256e+18
14570.0	2.0989149112696824e+18
14571.0	2.0986569783508987e+18
14572.0	2.0981371799339005e+18
14573.0	2.097639356314419e+18
14574.0	2.097140975691366e+18
14575.0	2.096672384693043e+18
14576.0	2.0961789197942784e+18
14577.0	2.0956900585635837e+18
14578.0	2.0951989357641725e+18
14579.0	2.0947052544393208e+18
14580.0	2.0942105429934077e+18
14581.0	2.0937108302594045e+18
14582.0	2.0932165533433853e+18
14583.0	2.0927242997596152e+18
14584.0	2.0922170976763901e+18
14585.0	2.091732647175782e+18
14586.0	2.0912351171575808e+18
14587.0	2.090739268216422e+18
14588.0	2.090120470803251e+18
14589.0	2.0895929263456248e+18
14590.0	2.0891073819705344e+18
14591.0	2.0886198176186363e+18
14592.0	2.0881313372307448e+18
14593.0	2.0875857790763003e+18
14594.0	2.0871625687695357e+18
14595.0	2.0866729324314621e+18
14596.0	2.0860923048624125e+18
14597.0	2.0855917247463421e+18
14598.0	2.085204778391961e+18
14599.0	2.0847280806428672e+18
14600.0	2.0842386842189821e+18
14601.0	2.0837391661006843e+18
14602.0	2.0830066946605053e+18
14603.0	2.0825212660482043e+18
14604.0	2.082008223816089e+18
14605.0	2.081530489235046e+18
14606.0	2.0810254648344573e+18
14607.0	2.0805662388781053e+18
14608.0	2.080081243117977e+18
14609.0	2.07958469288919e+18
14610.0	2.0790909528440827e+18
14611.0	2.0786100725350397e+18
14612.0	2.0781285513363453e+18
14613.0	2.0776417570586621e+18
14614.0	2.077151905972224e+18
14615.0	2.0766633333096443e+18
14616.0	2.0761757203038205e+18
14617.0	2.0756859212267517e+18
14618.0	2.0751833110675456e+18
14619.0	2.0746211266920443e+18
14620.0	2.0739506822971384e+18
14621.0	2.0737249851211773e+18
14622.0	2.073235048470937e+18
14623.0	2.0727441085431803e+18
14624.0	2.07222083724247e+18
14625.0	2.071761170045337e+18
14626.0	2.0712671061999616e+18
14627.0	2.0707719115702267e+18
14628.0	2.0702853941166077e+18
14629.0	2.0697926690930688e+18
14630.0	2.0692979140263933e+18
14631.0	2.0688062442897405e+18
14632.0	2.067783424671744e+18
14633.0	2.0677366246277115e+18
14634.0	2.0673221602836477e+18
14635.0	2.0667845645959165e+18
14636.0	2.0662211269623803e+18
14637.0	2.0658457149439992e+18
14638.0	2.0653454250737661e+18
14639.0	2.0648459522539515e+18
14640.0	2.064354445256294e+18
14641.0	2.0617641974562803e+18
14642.0	2.0633616954425336e+18
14643.0	2.0628714819682301e+18
14644.0	2.0623679775834107e+18
14645.0	2.061866070389555e+18
14646.0	2.061365186605875e+18
14647.0	2.0608609339572221e+18
14648.0	2.0603790151385083e+18
14649.0	2.0598875953823736e+18
