# Flux units: erg / (cm m2 s)
# Wavelength units: Angstrom
wave	flux
14000.0	1.637791919872409e+18
14001.0	1.63735887979479e+18
14002.0	1.6371936510607352e+18
14003.0	1.6368850140397565e+18
14004.0	1.6365734309396483e+18
14005.0	1.6362617404653563e+18
14006.0	1.635941904652697e+18
14007.0	1.6356301906903037e+18
14008.0	1.6352290273230848e+18
14009.0	1.6350145725595643e+18
14010.0	1.6346917571133435e+18
14011.0	1.6337220491280384e+18
14012.0	1.634081554667929e+18
14013.0	1.6337706023911424e+18
14014.0	1.633454071690035e+18
14015.0	1.6331461560893437e+18
14016.0	1.6328375794663421e+18
14017.0	1.6325267681181696e+18
14018.0	1.6322157671874557e+18
14019.0	1.6319052444073981e+18
14020.0	1.6315938693447683e+18
14021.0	1.631282608367206e+18
14022.0	1.6309679718137853e+18
14023.0	1.6306397994024957e+18
14024.0	1.6303314090065915e+18
14025.0	1.6300411967242237e+18
14026.0	1.6297301186183165e+18
14027.0	1.6294219010277368e+18
14028.0	1.6291059961167867e+18
14029.0	1.6287984663920635e+18
14030.0	1.6271195284439048e+18
14031.0	1.628140047905587e+18
14032.0	1.6278696025391104e+18
14033.0	1.6275101506863104e+18
14034.0	1.6272510064525307e+18
14035.0	1.6269429901885435e+18
14036.0	1.626633536117145e+18
14037.0	1.6263241021784061e+18
14038.0	1.6260147135381501e+18
14039.0	1.6257015064035325e+18
14040.0	1.625387309413171e+18
14041.0	1.6250828784402432e+18
14042.0	1.6247652572200957e+18
14043.0	1.6244256544915453e+18
14044.0	1.6241462802907139e+18
14045.0	1.6238465368719352e+18
14046.0	1.6235382890823677e+18
14047.0	1.6232217634144253e+18
14048.0	1.6229205519892475e+18
14049.0	1.6226158760689661e+18
14050.0	1.6223073363558397e+18
14051.0	1.6219900490022907e+18
14052.0	1.6216870944243707e+18
14053.0	1.621381435359232e+18
14054.0	1.6210644583841787e+18
14055.0	1.6207561954951163e+18
14056.0	1.6204479762268157e+18
14057.0	1.6201399079534592e+18
14058.0	1.6198318564573181e+18
14059.0	1.6195238922027005e+18
14060.0	1.6192159866683392e+18
14061.0	1.618900866931097e+18
14062.0	1.618600371893043e+18
14063.0	1.6182773114994688e+18
14064.0	1.617711305274163e+18
14065.0	1.6176683740561403e+18
14066.0	1.617369962748313e+18
14067.0	1.6170479861628928e+18
14068.0	1.6167552187105275e+18
14069.0	1.6164443687747581e+18
14070.0	1.6161399680008187e+18
14071.0	1.6158285124075515e+18
14072.0	1.6155171859988475e+18
14073.0	1.61521015455744e+18
14074.0	1.614903250622873e+18
14075.0	1.6145789722034176e+18
14076.0	1.6142713988579325e+18
14077.0	1.6136676589961216e+18
14078.0	1.6136540660957184e+18
14079.0	1.6133596410544125e+18
14080.0	1.6130628806246397e+18
14081.0	1.6127563927650301e+18
14082.0	1.6124454002229243e+18
14083.0	1.6121421252001787e+18
14084.0	1.6118371875553277e+18
14085.0	1.6111475651248128e+18
14086.0	1.6112008193638397e+18
14087.0	1.610918831272755e+18
14088.0	1.6105984954990587e+18
14089.0	1.6102937390481405e+18
14090.0	1.6099942439321597e+18
14091.0	1.6096901971574781e+18
14092.0	1.6093803639209984e+18
14093.0	1.6090746645905405e+18
14094.0	1.6087690122362877e+18
14095.0	1.608463401825075e+18
14096.0	1.6080954573455357e+18
14097.0	1.6078321657839613e+18
14098.0	1.607519737112166e+18
14099.0	1.6072418242068477e+18
14100.0	1.6069236745043965e+18
14101.0	1.6066315580080123e+18
14102.0	1.606326232809472e+18
14103.0	1.6060046907539453e+18
14104.0	1.6057138023497723e+18
14105.0	1.6054111111741435e+18
14106.0	1.6051066466467837e+18
14107.0	1.6048004926537728e+18
14108.0	1.604485216888422e+18
14109.0	1.6041875504889853e+18
14110.0	1.6038815374245885e+18
14111.0	1.603570408987033e+18
14112.0	1.6032718651391997e+18
14113.0	1.6029670734561277e+18
14114.0	1.6026493817716733e+18
14115.0	1.6023554533359613e+18
14116.0	1.6020015916515325e+18
14117.0	1.5993921322614784e+18
14118.0	1.6014440310767613e+18
14119.0	1.6011020040404992e+18
14120.0	1.6008065522335744e+18
14121.0	1.600519539366297e+18
14122.0	1.6001708450643965e+18
14123.0	1.5998931569737725e+18
14124.0	1.5995803222933501e+18
14125.0	1.59885109053358e+18
14126.0	1.599007720944435e+18
14127.0	1.598711500741017e+18
14128.0	1.598406772811366e+18
14129.0	1.5980931932225539e+18
14130.0	1.5977821285384192e+18
14131.0	1.597498440915353e+18
14132.0	1.5971902333911035e+18
14133.0	1.596345601228799e+18
14134.0	1.596588991656755e+18
14135.0	1.5962671409004541e+18
14136.0	1.5959156800356347e+18
14137.0	1.5956768010010621e+18
14138.0	1.5953505076379648e+18
14139.0	1.595065900623462e+18
14140.0	1.594754651389952e+18
14141.0	1.594453453386547e+18
14142.0	1.5939783796719613e+18
14143.0	1.5938492202745853e+18
14144.0	1.5935538926190587e+18
14145.0	1.593250055559577e+18
14146.0	1.592944342807347e+18
14147.0	1.5926446530756605e+18
14148.0	1.5923382340026365e+18
14149.0	1.5920367222652923e+18
14150.0	1.5917415539933181e+18
14151.0	1.5914270818566141e+18
14152.0	1.591137976870502e+18
14153.0	1.5908360775794685e+18
14154.0	1.5905106700533757e+18
14155.0	1.5899122854789115e+18
14156.0	1.5898839001071613e+18
14157.0	1.5896296279769085e+18
14158.0	1.5893236535001085e+18
14159.0	1.5890266565115904e+18
14160.0	1.588718747621785e+18
14161.0	1.588365761708032e+18
14162.0	1.5880173576519675e+18
14163.0	1.5878205994958843e+18
14164.0	1.5874431473680381e+18
14165.0	1.5871222411689984e+18
14166.0	1.5866915750674432e+18
14167.0	1.5860029257154557e+18
14168.0	1.5857079671586813e+18
14169.0	1.5854149329485821e+18
14170.0	1.5851073931575293e+18
14171.0	1.5848105689743357e+18
14172.0	1.5845131810766843e+18
14173.0	1.584157233984307e+18
14174.0	1.583906037117747e+18
14175.0	1.583611536578969e+18
14176.0	1.5833105751343104e+18
14177.0	1.5830111102173181e+18
14178.0	1.5827101286399995e+18
14179.0	1.5824000739442685e+18
14180.0	1.5821114739523581e+18
14181.0	1.5818115577282557e+18
14182.0	1.5815108127096832e+18
14183.0	1.5812118611755003e+18
14184.0	1.5809070057390077e+18
14185.0	1.5806122434756605e+18
14186.0	1.579895091311411e+18
14187.0	1.579988934669107e+18
14188.0	1.5797098540695547e+18
14189.0	1.5794098539593728e+18
14190.0	1.5791115433148416e+18
14191.0	1.578810677500313e+18
14192.0	1.578508110476083e+18
14193.0	1.5781486267465725e+18
14194.0	1.5779136886800381e+18
14195.0	1.577619245183795e+18
14196.0	1.577319989982003e+18
14197.0	1.5770197986115581e+18
14198.0	1.5767092942864381e+18
14199.0	1.5764118074032123e+18
14200.0	1.5758536596258816e+18
14201.0	1.575802989078118e+18
14202.0	1.5755162345799677e+18
14203.0	1.575206782186291e+18
14204.0	1.5749186603450363e+18
14205.0	1.5746204201648128e+18
14206.0	1.5741987567173624e+18
14207.0	1.5740262735151101e+18
14208.0	1.573728368879206e+18
14209.0	1.5732974527971323e+18
14210.0	1.5730375116455928e+18
14211.0	1.5728292996841472e+18
14212.0	1.5725352101871616e+18
14213.0	1.5722347201822715e+18
14214.0	1.5719394311143421e+18
14215.0	1.5716283496529915e+18
14216.0	1.5713451619909632e+18
14217.0	1.5710474452598784e+18
14218.0	1.5707388451487741e+18
14219.0	1.5704522601005053e+18
14220.0	1.5701522734120952e+18
14221.0	1.5698528403718141e+18
14222.0	1.5695269127520253e+18
14223.0	1.5692621162741757e+18
14224.0	1.5689656377016315e+18
14225.0	1.567835103323751e+18
14226.0	1.5683687127449597e+18
14227.0	1.5680743850115067e+18
14228.0	1.5655589182963717e+18
14229.0	1.5670127093612526e+18
14230.0	1.5671838185095165e+18
14231.0	1.5668600719278075e+18
14232.0	1.566590297649971e+18
14233.0	1.5662885728419837e+18
14234.0	1.565992248619827e+18
14235.0	1.5656892822978557e+18
14236.0	1.5653953270185981e+18
14237.0	1.5650976371310587e+18
14238.0	1.5648022473998333e+18
14239.0	1.5644970396418048e+18
14240.0	1.5624745730965504e+18
14241.0	1.5639075637690363e+18
14242.0	1.5636150932733947e+18
14243.0	1.5631656668889088e+18
14244.0	1.5630257465851901e+18
14245.0	1.5627116636798976e+18
14246.0	1.562410135165337e+18
14247.0	1.562133866427187e+18
14248.0	1.5618241992851453e+18
14249.0	1.561544858638745e+18
14250.0	1.5612490444439547e+18
14251.0	1.5609560085561341e+18
14252.0	1.5606604460195837e+18
14253.0	1.5603642425933821e+18
14254.0	1.560067207017267e+18
14255.0	1.559738556455321e+18
14256.0	1.5586717050339328e+18
14257.0	1.5591462989201403e+18
14258.0	1.5588888558960637e+18
14259.0	1.5585754138804221e+18
14260.0	1.5582689310539776e+18
14261.0	1.5579855655534587e+18
14262.0	1.557725589169766e+18
14263.0	1.5562555913142282e+18
14264.0	1.5569112969248765e+18
14265.0	1.5568360293007357e+18
14266.0	1.556545761653555e+18
14267.0	1.5562530998976512e+18
14268.0	1.5559586798895104e+18
14269.0	1.5556554669424635e+18
14270.0	1.555369880138547e+18
14271.0	1.5550741246640125e+18
14272.0	1.5547811139420157e+18
14273.0	1.5544852880031741e+18
14274.0	1.552410411112858e+18
14275.0	1.5537294777778176e+18
14276.0	1.553578680804966e+18
14277.0	1.5532841785884672e+18
14278.0	1.5530080105136125e+18
14279.0	1.5527130838335485e+18
14280.0	1.5524133605474296e+18
14281.0	1.5521268761624573e+18
14282.0	1.5518334493655037e+18
14283.0	1.5515398749290493e+18
14284.0	1.5512463894118397e+18
14285.0	1.5509526220374013e+18
14286.0	1.5506557408116733e+18
14287.0	1.5503660335235072e+18
14288.0	1.5500725949825021e+18
14289.0	1.5486681826197489e+18
14290.0	1.549484288481689e+18
14291.0	1.5491922290278397e+18
14292.0	1.548900186351206e+18
14293.0	1.5486048251412475e+18
14294.0	1.5481745314938877e+18
14295.0	1.5480090410352635e+18
14296.0	1.5468324397776904e+18
14297.0	1.5474346193584123e+18
14298.0	1.5467981454704637e+18
14299.0	1.5468342416506875e+18
14300.0	1.546549594370867e+18
14301.0	1.546261517828096e+18
14302.0	1.545970285490995e+18
14303.0	1.545646891230822e+18
14304.0	1.5453697215561723e+18
14305.0	1.5450937111871485e+18
14306.0	1.5447709813047293e+18
14307.0	1.544494855172915e+18
14308.0	1.5442170429308925e+18
14309.0	1.5439198362271744e+18
14310.0	1.5435048232681467e+18
14311.0	1.5429708229378043e+18
14312.0	1.5429774348386304e+18
14313.0	1.5426115841556477e+18
14314.0	1.5424559184347133e+18
14315.0	1.542175505724211e+18
14316.0	1.5418319049850877e+18
14317.0	1.5415594849402872e+18
14318.0	1.5413021107027965e+18
14319.0	1.5410113380614141e+18
14320.0	1.540719411147571e+18
14321.0	1.5404260682366976e+18
14322.0	1.5400979344130048e+18
14323.0	1.5398253767950333e+18
14324.0	1.5395460814471163e+18
14325.0	1.5392469587853312e+18
14326.0	1.5389647257468925e+18
14327.0	1.5386675123322877e+18
14328.0	1.5383759008301053e+18
14329.0	1.538091990070067e+18
14330.0	1.5378011972960256e+18
14331.0	1.5375101159538685e+18
14332.0	1.5372197174444032e+18
14333.0	1.536929125996953e+18
14334.0	1.536638574814822e+18
14335.0	1.5363309964361728e+18
14336.0	1.5359696789569533e+18
14337.0	1.5357645254819837e+18
14338.0	1.5354736890871805e+18
14339.0	1.5351759639674875e+18
14340.0	1.534895888479027e+18
14341.0	1.5346001615257597e+18
14342.0	1.534314017718272e+18
14343.0	1.5340208526458877e+18
14344.0	1.5337304524587005e+18
14345.0	1.5334463336611837e+18
14346.0	1.5331524656234493e+18
14347.0	1.5328193422557181e+18
14348.0	1.532575898140672e+18
14349.0	1.5322872444616701e+18
14350.0	1.5319330371665915e+18
14351.0	1.5316334296432637e+18
14352.0	1.5314089437822973e+18
14353.0	1.5311266402795515e+18
14354.0	1.5308305962369021e+18
14355.0	1.5305266299928573e+18
14356.0	1.5302434389753856e+18
14357.0	1.529971971876454e+18
14358.0	1.5296825682558973e+18
14359.0	1.529380081762304e+18
14360.0	1.5290985500114944e+18
14361.0	1.5288132937187325e+18
14362.0	1.5285266868600832e+18
14363.0	1.5282374694666237e+18
14364.0	1.5277495326605312e+18
14365.0	1.5276204101730301e+18
14366.0	1.527332097071513e+18
14367.0	1.527083082920755e+18
14368.0	1.526793935991603e+18
14369.0	1.5265059114582016e+18
14370.0	1.5262175597690875e+18
14371.0	1.5259293775298557e+18
14372.0	1.5256349189341184e+18
14373.0	1.5253503421186043e+18
14374.0	1.5250635289001981e+18
14375.0	1.5247732562198525e+18
14376.0	1.5244879462399997e+18
14377.0	1.524199154987827e+18
14378.0	1.5239089326391293e+18
14379.0	1.523618374746112e+18
14380.0	1.5233259780702205e+18
14381.0	1.5230282529505275e+18
14382.0	1.5227497897525248e+18
14383.0	1.5224565894479872e+18
14384.0	1.5221579667472384e+18
14385.0	1.521888130393702e+18
14386.0	1.5215837581410301e+18
14387.0	1.5213125896765435e+18
14388.0	1.5210231122362363e+18
14389.0	1.5207374079918077e+18
14390.0	1.520448079868723e+18
14391.0	1.5201625970835453e+18
14392.0	1.5198729954918397e+18
14393.0	1.5195884841074683e+18
14394.0	1.5192645009670141e+18
14395.0	1.518998939448115e+18
14396.0	1.5187267408625664e+18
14397.0	1.5184400417292288e+18
14398.0	1.518152059138867e+18
14399.0	1.517865834800742e+18
14400.0	1.5175567246622723e+18
14401.0	1.5172854286909437e+18
14402.0	1.5170040965890043e+18
14403.0	1.5148315914010598e+18
14404.0	1.5100458066509804e+18
14405.0	1.5142601510354906e+18
14406.0	1.5158578503483387e+18
14407.0	1.5129014062546954e+18
14408.0	1.5152546725232635e+18
14409.0	1.5149773451427837e+18
14410.0	1.514696486158336e+18
14411.0	1.5144252539404288e+18
14412.0	1.51413627813888e+18
14413.0	1.513854343734886e+18
14414.0	1.5135655474495485e+18
14415.0	1.5131515797110781e+18
14416.0	1.5124730453426176e+18
14417.0	1.5121729445691387e+18
14418.0	1.5118701007208448e+18
14419.0	1.5116192981188605e+18
14420.0	1.5113294029258747e+18
14421.0	1.5110484734771197e+18
14422.0	1.510758843364147e+18
14423.0	1.5104661681864701e+18
14424.0	1.499689081896954e+18
14425.0	1.5098993130340347e+18
14426.0	1.5096203448418296e+18
14427.0	1.5093337648267264e+18
14428.0	1.509028416140083e+18
14429.0	1.508758729103769e+18
14430.0	1.5084787710558203e+18
14431.0	1.5078260148797435e+18
14432.0	1.5079006449696765e+18
14433.0	1.505613690647346e+18
14434.0	1.5073194570416125e+18
14435.0	1.506997336172134e+18
14436.0	1.5067668507787264e+18
14437.0	1.5064820592148477e+18
14438.0	1.506116664872141e+18
14439.0	1.5058965528313853e+18
14440.0	1.5056263507345403e+18
14441.0	1.505330581838233e+18
14442.0	1.5050393511788541e+18
14443.0	1.5047066438860797e+18
14444.0	1.5044735328583675e+18
14445.0	1.5041941167144957e+18
14446.0	1.5011427588767754e+18
14447.0	1.5036110279278587e+18
14448.0	1.5033406916132864e+18
14449.0	1.5030562439823357e+18
14450.0	1.502766488040243e+18
14451.0	1.502483085629849e+18
14452.0	1.5022010673397757e+18
14453.0	1.5018864072982528e+18
14454.0	1.5016326133186557e+18
14455.0	1.5013401310789624e+18
14456.0	1.501054943572787e+18
14457.0	1.500770469098291e+18
14458.0	1.500493391698329e+18
14459.0	1.5002076069232637e+18
14460.0	1.499922607321907e+18
14461.0	1.4995970353790973e+18
14462.0	1.499030000710451e+18
14463.0	1.4990605285326848e+18
14464.0	1.4987897073565693e+18
14465.0	1.498479904319078e+18
14466.0	1.498222013343334e+18
14467.0	1.4979017564225536e+18
14468.0	1.4976518144917504e+18
14469.0	1.497324727566336e+18
14470.0	1.497058030229913e+18
14471.0	1.4967936749928443e+18
14472.0	1.4965165841711101e+18
14473.0	1.4962376478556157e+18
14474.0	1.495956310720512e+18
14475.0	1.4956687442051072e+18
14476.0	1.4952605545398272e+18
14477.0	1.4951059038404603e+18
14478.0	1.494821380712038e+18
14479.0	1.494537325667942e+18
14480.0	1.4942391861510141e+18
14481.0	1.4939754483154941e+18
14482.0	1.4936884069269504e+18
14483.0	1.4933982315544573e+18
14484.0	1.4931152619962363e+18
14485.0	1.4928034272378875e+18
14486.0	1.4922365787963392e+18
14487.0	1.4922749399007232e+18
14488.0	1.4919650395553792e+18
14489.0	1.4916771240738816e+18
14490.0	1.4914190972026877e+18
14491.0	1.4911453769236475e+18
14492.0	1.4908635381497856e+18
14493.0	1.4905713360896e+18
14494.0	1.490276058765721e+18
14495.0	1.4900168608448507e+18
14496.0	1.4895892045758464e+18
14497.0	1.4894506801364992e+18
14498.0	1.489169359778611e+18
14499.0	1.4888874840948736e+18
14500.0	1.4886048685359101e+18
14501.0	1.488264983950131e+18
14502.0	1.4877395903315968e+18
14503.0	1.4877315624337405e+18
14504.0	1.4874696617033725e+18
14505.0	1.4871423147311101e+18
14506.0	1.4868031230443515e+18
14507.0	1.4863632311517181e+18
14508.0	1.486348000795033e+18
14509.0	1.4860660798128125e+18
14510.0	1.485780378923827e+18
14511.0	1.4855018922377213e+18
14512.0	1.4852035765600253e+18
14513.0	1.4849384193720315e+18
14514.0	1.4846168739610627e+18
14515.0	1.4843732754956285e+18
14516.0	1.4812481029406738e+18
14517.0	1.4838104703631357e+18
14518.0	1.4835297120419837e+18
14519.0	1.483248140025856e+18
14520.0	1.4829654288367613e+18
14521.0	1.4826776324734973e+18
14522.0	1.4823923996688381e+18
14523.0	1.4819652282613757e+18
14524.0	1.4817075537117181e+18
14525.0	1.481544767740313e+18
14526.0	1.4812668078587901e+18
14527.0	1.4809583990079483e+18
14528.0	1.4805531688435707e+18
14529.0	1.4804130237251584e+18
14530.0	1.4801249740259323e+18
14531.0	1.4798601557377021e+18
14532.0	1.4794029296254973e+18
14533.0	1.4792986994933757e+18
14534.0	1.4790197581447168e+18
14535.0	1.4787273782460413e+18
14536.0	1.4784537066209283e+18
14537.0	1.4781632393248765e+18
14538.0	1.4778954967678973e+18
14539.0	1.47761458577408e+18
14540.0	1.4773335674060795e+18
14541.0	1.477030074279526e+18
14542.0	1.4767697304748024e+18
14543.0	1.4764043663310848e+18
14544.0	1.476209235564953e+18
14545.0	1.4759201221902336e+18
14546.0	1.4609885450731448e+18
14547.0	1.4620495009808294e+18
14548.0	1.4750711766056957e+18
14549.0	1.4746742931062781e+18
14550.0	1.4745159497416704e+18
14551.0	1.4742440632123392e+18
14552.0	1.4739612983361536e+18
14553.0	1.4736722940133376e+18
14554.0	1.473402123793203e+18
14555.0	1.473121004761907e+18
14556.0	1.4728376912707581e+18
14557.0	1.4725601122320381e+18
14558.0	1.472278951257702e+18
14559.0	1.4698953735929825e+18
14560.0	1.471701987832627e+18
14561.0	1.471429743948595e+18
14562.0	1.4711261031825405e+18
14563.0	1.4708751663628288e+18
14564.0	1.4705637074141181e+18
14565.0	1.4703161327484923e+18
14566.0	1.4700357317820413e+18
14567.0	1.4697539567615997e+18
14568.0	1.4694332267233277e+18
14569.0	1.4691940087889915e+18
14570.0	1.4683099182923773e+18
14571.0	1.4686302171561981e+18
14572.0	1.4682956543033341e+18
14573.0	1.4675852667125757e+18
14574.0	1.467086407938867e+18
14575.0	1.4668784879009787e+18
14576.0	1.4665931074568192e+18
14577.0	1.4663177497214973e+18
14578.0	1.4660394157080573e+18
14579.0	1.4657635580116992e+18
14580.0	1.4654831989882877e+18
14581.0	1.4651953606819835e+18
14582.0	1.464916610593587e+18
14583.0	1.464640882081792e+18
14584.0	1.464337402377011e+18
14585.0	1.4640799207653373e+18
14586.0	1.4637958422331387e+18
14587.0	1.4635164193783803e+18
14588.0	1.4632381692510205e+18
14589.0	1.4629652626669565e+18
14590.0	1.462692391315046e+18
14591.0	1.4624151192993792e+18
14592.0	1.4621397330427904e+18
14593.0	1.4617457184473085e+18
14594.0	1.4615992734842877e+18
14595.0	1.4613176444256253e+18
14596.0	1.4608475736768504e+18
14597.0	1.4605414398164987e+18
14598.0	1.4604844258033664e+18
14599.0	1.4602333145006077e+18
14600.0	1.459954304365363e+18
14601.0	1.4596854746447872e+18
14602.0	1.4593931937316864e+18
14603.0	1.4591390071652347e+18
14604.0	1.4588050097045501e+18
14605.0	1.4585432381587453e+18
14606.0	1.4582352118284285e+18
14607.0	1.4580323501211645e+18
14608.0	1.4577692783411197e+18
14609.0	1.4574887297351675e+18
14610.0	1.457134440231731e+18
14611.0	1.4569424652599293e+18
14612.0	1.4566709461516285e+18
14613.0	1.456398784475955e+18
14614.0	1.4561213950197757e+18
14615.0	1.455848753515724e+18
14616.0	1.4555787930107901e+18
14617.0	1.4553049754238973e+18
14618.0	1.455016039887667e+18
14619.0	1.4546222987608056e+18
14620.0	1.4540061571809283e+18
14621.0	1.4542105506480123e+18
14622.0	1.453933800403763e+18
14623.0	1.453663172165632e+18
14624.0	1.4533263846539264e+18
14625.0	1.4531123476430848e+18
14626.0	1.452835612498329e+18
14627.0	1.4525580603031547e+18
14628.0	1.452293495350886e+18
14629.0	1.4520194126839808e+18
14630.0	1.4517403102740475e+18
14631.0	1.451470405133926e+18
14632.0	1.4503117085212672e+18
14633.0	1.4507980431032312e+18
14634.0	1.4506394279477245e+18
14635.0	1.4498891995021297e+18
14636.0	1.4489971532496888e+18
14637.0	1.4498250115514365e+18
14638.0	1.4495381547122685e+18
14639.0	1.4492549016190976e+18
14640.0	1.4489969938661373e+18
14641.0	1.4452754818793452e+18
14642.0	1.4484455821410296e+18
14643.0	1.448174341534515e+18
14644.0	1.4478867313983485e+18
14645.0	1.4475979703451648e+18
14646.0	1.4473244060942336e+18
