# Flux units: erg / (cm m2 s)
# Wavelength units: Angstrom
wave	flux
14000.0	1.350072238551859e+18
14001.0	1.3496253245554688e+18
14002.0	1.3495785278668797e+18
14003.0	1.3493298895257597e+18
14004.0	1.3490811974975485e+18
14005.0	1.3488323704127485e+18
14006.0	1.3485751446536192e+18
14007.0	1.348326720222003e+18
14008.0	1.3479917303889917e+18
14009.0	1.3478374932479995e+18
14010.0	1.3475775990726653e+18
14011.0	1.3466558051385347e+18
14012.0	1.3470919523565565e+18
14013.0	1.346843643687731e+18
14014.0	1.346590228034355e+18
14015.0	1.346344697672499e+18
14016.0	1.3460987789180925e+18
14017.0	1.345850600272691e+18
14018.0	1.3456015919939581e+18
14019.0	1.3453543914602493e+18
14020.0	1.3451056516169728e+18
14021.0	1.3448571592376317e+18
14022.0	1.3446084898586621e+18
14023.0	1.3443480604901373e+18
14024.0	1.3441001888677885e+18
14025.0	1.343866657570816e+18
14026.0	1.3436175125577725e+18
14027.0	1.3433717145993213e+18
14028.0	1.3431188702101501e+18
14029.0	1.3428736955252733e+18
14030.0	1.3420940163547139e+18
14031.0	1.3423655161692157e+18
14032.0	1.342133717958656e+18
14033.0	1.341846801560371e+18
14034.0	1.3416394880188416e+18
14035.0	1.3413924896505853e+18
14036.0	1.3411453369319421e+18
14037.0	1.3408968101593085e+18
14038.0	1.3406511850061821e+18
14039.0	1.3404006667780093e+18
14040.0	1.3401471370395648e+18
14041.0	1.3399068252307456e+18
14042.0	1.3396529951801341e+18
14043.0	1.3393708695158781e+18
14044.0	1.3391551128403963e+18
14045.0	1.3389185700331517e+18
14046.0	1.3386732510642173e+18
14047.0	1.338420780806963e+18
14048.0	1.3381817457442813e+18
14049.0	1.337937123029811e+18
14050.0	1.3376907152195581e+18
14051.0	1.3374342150750205e+18
14052.0	1.3371951019982845e+18
14053.0	1.3369509171691517e+18
14054.0	1.3367056116219901e+18
14055.0	1.3364590343618557e+18
14056.0	1.3362133362278397e+18
14057.0	1.3359673419759616e+18
14058.0	1.3357213519183867e+18
14059.0	1.3354748182790144e+18
14060.0	1.335229548802867e+18
14061.0	1.334976074429235e+18
14062.0	1.3347374613135355e+18
14063.0	1.3344778531897341e+18
14064.0	1.334130561463091e+18
14065.0	1.3339917828489216e+18
14066.0	1.3337536688553984e+18
14067.0	1.3335043745251325e+18
14068.0	1.3332644402036733e+18
14069.0	1.3330172858073085e+18
14070.0	1.3327735313137661e+18
14071.0	1.3325252142563323e+18
14072.0	1.3322830863138816e+18
14073.0	1.3320379024015357e+18
14074.0	1.331792849351475e+18
14075.0	1.331532450181939e+18
14076.0	1.3312956666216443e+18
14077.0	1.3309356409880573e+18
14078.0	1.3308050521718784e+18
14079.0	1.3305582031208445e+18
14080.0	1.3303204255105021e+18
14081.0	1.3300755368771581e+18
14082.0	1.3298262500966397e+18
14083.0	1.3295848402190333e+18
14084.0	1.3293416125300736e+18
14085.0	1.3288198553731072e+18
14086.0	1.3288423183876093e+18
14087.0	1.328607707476787e+18
14088.0	1.3283528229781501e+18
14089.0	1.3281141620473853e+18
14090.0	1.3278713386893307e+18
14091.0	1.327630841492275e+18
14092.0	1.3273863580286973e+18
14093.0	1.327142410597171e+18
14094.0	1.3268984237391872e+18
14095.0	1.3266543966158845e+18
14096.0	1.326387289076531e+18
14097.0	1.3261490660311037e+18
14098.0	1.3259099797979133e+18
14099.0	1.3256760542363645e+18
14100.0	1.3254190834909181e+18
14101.0	1.32518857712599e+18
14102.0	1.324943081157427e+18
14103.0	1.3246836919762941e+18
14104.0	1.3244551552565248e+18
14105.0	1.324213708469043e+18
14106.0	1.3239705806045181e+18
14107.0	1.3237252037541885e+18
14108.0	1.323473622689382e+18
14109.0	1.323235940709171e+18
14110.0	1.3229916409561085e+18
14111.0	1.3227372010536957e+18
14112.0	1.322503991040409e+18
14113.0	1.3222650608353277e+18
14114.0	1.322013429438873e+18
14115.0	1.3217802328473597e+18
14116.0	1.3215094234152957e+18
14117.0	1.3203874865217539e+18
14118.0	1.3210500011655165e+18
14119.0	1.3207920321757181e+18
14120.0	1.3205535054626816e+18
14121.0	1.3203119538175995e+18
14122.0	1.3200557976059901e+18
14123.0	1.3198250202890237e+18
14124.0	1.3195777182531581e+18
14125.0	1.3189020980871163e+18
14126.0	1.319106677781299e+18
14127.0	1.3188670118952957e+18
14128.0	1.3186232615960576e+18
14129.0	1.3183721687482365e+18
14130.0	1.3181205818114045e+18
14131.0	1.317898018619392e+18
14132.0	1.3176506410860541e+18
14133.0	1.3168890745978865e+18
14134.0	1.3171710308122621e+18
14135.0	1.3169171051315197e+18
14136.0	1.3166591084593152e+18
14137.0	1.3164454078316541e+18
14138.0	1.3161930566926336e+18
14139.0	1.3159618238742525e+18
14140.0	1.3157086615568381e+18
14141.0	1.3154755840835581e+18
14142.0	1.3151664311631867e+18
14143.0	1.3149861155176445e+18
14144.0	1.3147517176774653e+18
14145.0	1.3145081284395005e+18
14146.0	1.3142656867631101e+18
14147.0	1.314026288473702e+18
14148.0	1.3137837041909757e+18
14149.0	1.313542283408179e+18
14150.0	1.3133037826998267e+18
14151.0	1.3130552391499773e+18
14152.0	1.3128199219183613e+18
14153.0	1.312580396122112e+18
14154.0	1.312317601166131e+18
14155.0	1.3118347788943357e+18
14156.0	1.3118444316655613e+18
14157.0	1.311616766522163e+18
14158.0	1.3113718015524861e+18
14159.0	1.3111343989129216e+18
14160.0	1.3108925293395965e+18
14161.0	1.3105914076725245e+18
14162.0	1.3103122582863867e+18
14163.0	1.3101706309009405e+18
14164.0	1.3098983702396925e+18
14165.0	1.3095874523561981e+18
14166.0	1.3094481863639037e+18
14167.0	1.3091962303283197e+18
14168.0	1.3089628701589501e+18
14169.0	1.3087280453386237e+18
14170.0	1.3084834318516221e+18
14171.0	1.3082444093718525e+18
14172.0	1.3080076207783933e+18
14173.0	1.3077099854168064e+18
14174.0	1.307524061147955e+18
14175.0	1.3072874495541245e+18
14176.0	1.3070471285178363e+18
14177.0	1.3068077847543805e+18
14178.0	1.3065671667613693e+18
14179.0	1.3063163985526781e+18
14180.0	1.3060888214896637e+18
14181.0	1.3058491925135357e+18
14182.0	1.3056087565533184e+18
14183.0	1.30537008136192e+18
14184.0	1.3051257363103741e+18
14185.0	1.304891149726515e+18
14186.0	1.304485464060723e+18
14187.0	1.3043893641674747e+18
14188.0	1.3041694693916672e+18
14189.0	1.3038271873417216e+18
14190.0	1.303461210829619e+18
14191.0	1.3032216565121021e+18
14192.0	1.3029734644449277e+18
14193.0	1.302717560730419e+18
14194.0	1.3025015507189757e+18
14195.0	1.3022647797415933e+18
14196.0	1.3020255391580157e+18
14197.0	1.3017853640835072e+18
14198.0	1.3015420827074557e+18
14199.0	1.301305187578675e+18
14200.0	1.3009668011982845e+18
14201.0	1.3008304317923325e+18
14202.0	1.3005914202177533e+18
14203.0	1.3003411335151616e+18
14204.0	1.300113510314803e+18
14205.0	1.2998751807340544e+18
14206.0	1.2995188150501373e+18
14207.0	1.299400856122163e+18
14208.0	1.2991626003611645e+18
14209.0	1.298788750301593e+18
14210.0	1.2986037680734203e+18
14211.0	1.2984418587115517e+18
14212.0	1.298209241772851e+18
14213.0	1.2979707385479165e+18
14214.0	1.2977330808946685e+18
14215.0	1.2974810795606016e+18
14216.0	1.297257092821811e+18
14217.0	1.2970204745170941e+18
14218.0	1.296772604572467e+18
14219.0	1.296544875675648e+18
14220.0	1.2963062449438717e+18
14221.0	1.296067743396659e+18
14222.0	1.2958157378682877e+18
14223.0	1.2955942953943037e+18
14224.0	1.2953548551618557e+18
14225.0	1.2947863482925056e+18
14226.0	1.2948794442252285e+18
14227.0	1.294641222857523e+18
14228.0	1.2933788514385923e+18
14229.0	1.2940468102889464e+18
14230.0	1.2939304502296573e+18
14231.0	1.2936834753495037e+18
14232.0	1.2934561608499197e+18
14233.0	1.2932124868870141e+18
14234.0	1.2929820224651261e+18
14235.0	1.292742444659507e+18
14236.0	1.2925081458049021e+18
14237.0	1.292270006645555e+18
14238.0	1.2920341433155581e+18
14239.0	1.2917907671482368e+18
14240.0	1.2897780229996554e+18
14241.0	1.291322005861171e+18
14242.0	1.2910870350790653e+18
14243.0	1.290701706048307e+18
14244.0	1.2906147019227136e+18
14245.0	1.290360772047667e+18
14246.0	1.2901146486112256e+18
14247.0	1.2899012952719357e+18
14248.0	1.2896495279800317e+18
14249.0	1.2894287507226621e+18
14250.0	1.2891943243612155e+18
14251.0	1.2889605346951165e+18
14252.0	1.2887243114938365e+18
14253.0	1.2884875749097467e+18
14254.0	1.2882496010059773e+18
14255.0	1.2879799617847293e+18
14256.0	1.2874722723233792e+18
14257.0	1.2875338925211645e+18
14258.0	1.2873085250174973e+18
14259.0	1.2870557770973181e+18
14260.0	1.2868197594169341e+18
14261.0	1.286581809001267e+18
14262.0	1.2863763317260285e+18
14263.0	1.2856840308129792e+18
14264.0	1.2858353084530685e+18
14265.0	1.2856651035967485e+18
14266.0	1.2854324581367805e+18
14267.0	1.2851991306829821e+18
14268.0	1.2849623982931965e+18
14269.0	1.2847203173269501e+18
14270.0	1.2844932637130752e+18
14271.0	1.284255157269299e+18
14272.0	1.2840228439982075e+18
14273.0	1.2837871509569533e+18
14274.0	1.2828862874386437e+18
14275.0	1.2832582332841981e+18
14276.0	1.2830663942078461e+18
14277.0	1.2828288430899197e+18
14278.0	1.2826127131213821e+18
14279.0	1.2823774739038205e+18
14280.0	1.2821354172645376e+18
14281.0	1.2819083166744573e+18
14282.0	1.281673974199091e+18
14283.0	1.2814393465110525e+18
14284.0	1.281204761604915e+18
14285.0	1.2809701817319421e+18
14286.0	1.2807340248006653e+18
14287.0	1.280500608427622e+18
14288.0	1.2802658465218557e+18
14289.0	1.2788918898393057e+18
14290.0	1.2797958479151101e+18
14291.0	1.2795630271332347e+18
14292.0	1.2793278449582077e+18
14293.0	1.2790933120614395e+18
14294.0	1.2787277012926464e+18
14295.0	1.278614690804531e+18
14296.0	1.2774740515094536e+18
14297.0	1.2781595073183741e+18
14298.0	1.2777093066653693e+18
14299.0	1.2776771707469821e+18
14300.0	1.2774491625095165e+18
14301.0	1.2772179221413885e+18
14302.0	1.2769829614256125e+18
14303.0	1.2767228978003965e+18
14304.0	1.276501847913267e+18
14305.0	1.2762845108240381e+18
14306.0	1.2760264554315773e+18
14307.0	1.2758110158454781e+18
14308.0	1.2755862514827261e+18
14309.0	1.2753516028231677e+18
14310.0	1.2750149579177981e+18
14311.0	1.2747315630571517e+18
14312.0	1.274616915112755e+18
14313.0	1.2742237184065536e+18
14314.0	1.274183014363955e+18
14315.0	1.2739522890563581e+18
14316.0	1.2736700870557693e+18
14317.0	1.273472948056883e+18
14318.0	1.273254525481779e+18
14319.0	1.2730220452773888e+18
14320.0	1.2727886649753597e+18
14321.0	1.2725528075173885e+18
14322.0	1.2722803799228416e+18
14323.0	1.272076897458585e+18
14324.0	1.2718579111690237e+18
14325.0	1.2716179248381952e+18
14326.0	1.2713930774282237e+18
14327.0	1.2711548493496317e+18
14328.0	1.2709195824496637e+18
14329.0	1.270695625071001e+18
14330.0	1.2704632363024381e+18
14331.0	1.2702305572880384e+18
14332.0	1.2699977616719872e+18
14333.0	1.2697660347645952e+18
14334.0	1.2695341392461821e+18
14335.0	1.2692813175062525e+18
14336.0	1.2690332462350333e+18
14337.0	1.2688352071385085e+18
14338.0	1.268603095194009e+18
14339.0	1.2683640894914557e+18
14340.0	1.2681418844930048e+18
14341.0	1.2679062736601083e+18
14342.0	1.2676758679584765e+18
14343.0	1.2674414357250045e+18
14344.0	1.2672090838663165e+18
14345.0	1.2669830268190717e+18
14346.0	1.266749042537267e+18
14347.0	1.2664969422176253e+18
14348.0	1.2662882697215995e+18
14349.0	1.2660569228181501e+18
14350.0	1.2657986224783357e+18
14351.0	1.265560573915955e+18
14352.0	1.2653495953915901e+18
14353.0	1.2651262688362493e+18
14354.0	1.264893327258419e+18
14355.0	1.2646571871043581e+18
14356.0	1.2644291629285373e+18
14357.0	1.2642040487608317e+18
14358.0	1.2639729476435965e+18
14359.0	1.2637296612343805e+18
14360.0	1.2635082472816635e+18
14361.0	1.263279350690611e+18
14362.0	1.263049087595315e+18
14363.0	1.2628179403407355e+18
14364.0	1.262508584416051e+18
14365.0	1.2623475491471357e+18
14366.0	1.2621088328515581e+18
14367.0	1.2618953654272e+18
14368.0	1.2616630655778813e+18
14369.0	1.261434163114803e+18
14370.0	1.2612036793991165e+18
14371.0	1.2609732829249533e+18
14372.0	1.2607373206093821e+18
14373.0	1.260511172965171e+18
14374.0	1.260281434157875e+18
14375.0	1.2600460087132157e+18
14376.0	1.2598207972376573e+18
14377.0	1.2595906239004667e+18
14378.0	1.2593583945154557e+18
14379.0	1.2591310103904253e+18
14380.0	1.2589005786841088e+18
14381.0	1.2586598516391933e+18
14382.0	1.258439421670195e+18
14383.0	1.258203488714752e+18
14384.0	1.2579648915374077e+18
14385.0	1.2577512185921533e+18
14386.0	1.2575061764472832e+18
14387.0	1.2572913039310845e+18
14388.0	1.257058166898688e+18
14389.0	1.256832051131187e+18
14390.0	1.2566000146841597e+18
14391.0	1.2563727639379965e+18
14392.0	1.2561397820948477e+18
14393.0	1.255914039620403e+18
14394.0	1.255649907520307e+18
14395.0	1.2554443622973437e+18
14396.0	1.2552257602060285e+18
14397.0	1.254996574208e+18
14398.0	1.2547662918189053e+18
14399.0	1.254538052055859e+18
14400.0	1.2542867679477757e+18
14401.0	1.2540740252991485e+18
14402.0	1.2538483314786301e+18
14403.0	1.251732503920636e+18
14404.0	1.2461699466526687e+18
14405.0	1.2514632715468736e+18
14406.0	1.2529306865500157e+18
14407.0	1.2497505702903823e+18
14408.0	1.2524636700934144e+18
14409.0	1.2522235243790336e+18
14410.0	1.2520103119683581e+18
14411.0	1.2517872043556861e+18
14412.0	1.2515554732539901e+18
14413.0	1.2513312348569597e+18
14414.0	1.2511002025263101e+18
14415.0	1.2508728276287485e+18
14416.0	1.2506423942447101e+18
14417.0	1.2504062155030525e+18
14418.0	1.2501671846346752e+18
14419.0	1.2499584190251005e+18
14420.0	1.2497252761206781e+18
14421.0	1.249502962070323e+18
14422.0	1.2492719758770173e+18
14423.0	1.2490404125474813e+18
14424.0	1.2372273205870505e+18
14425.0	1.2485875267010557e+18
14426.0	1.2483630458732541e+18
14427.0	1.2481335922786301e+18
14428.0	1.2478851955294205e+18
14429.0	1.247676732748595e+18
14430.0	1.247451804807987e+18
14431.0	1.2470819938631677e+18
14432.0	1.2469887251251197e+18
14433.0	1.2445377575780334e+18
14434.0	1.2465255875608573e+18
14435.0	1.246286063442329e+18
14436.0	1.2460850841387005e+18
14437.0	1.2458579206340605e+18
14438.0	1.2455688190033917e+18
14439.0	1.2453895167016955e+18
14440.0	1.2451747221995517e+18
14441.0	1.2449361778704381e+18
14442.0	1.2446981637013501e+18
14443.0	1.2444290848391165e+18
14444.0	1.2442609653907456e+18
14445.0	1.2440389868847101e+18
14446.0	1.2408025897762831e+18
14447.0	1.2435774163124221e+18
14448.0	1.2433579644551165e+18
14449.0	1.2431309905330173e+18
14450.0	1.242898619380531e+18
14451.0	1.2426738743115773e+18
14452.0	1.2424483927228413e+18
14453.0	1.2421896654028797e+18
14454.0	1.241995523653632e+18
14455.0	1.241760566293299e+18
14456.0	1.2415346921177088e+18
14457.0	1.2413035733843965e+18
14458.0	1.2410879576375293e+18
14459.0	1.2408592153968637e+18
14460.0	1.2406347052089344e+18
14461.0	1.2403909658148861e+18
14462.0	1.240050917651251e+18
14463.0	1.2399526543359997e+18
14464.0	1.239729057667481e+18
14465.0	1.2394739525484544e+18
14466.0	1.2392752549462013e+18
14467.0	1.2390106086244352e+18
14468.0	1.2388203155685373e+18
14469.0	1.2385695867863037e+18
14470.0	1.2383357652434941e+18
14471.0	1.2381301462007805e+18
14472.0	1.2379114484793344e+18
14473.0	1.2376897920958464e+18
14474.0	1.2374658691104765e+18
14475.0	1.2372364088049661e+18
14476.0	1.2368679761084413e+18
14477.0	1.2367884772704253e+18
14478.0	1.2365602844835837e+18
14479.0	1.2363313140727805e+18
14480.0	1.2360934861307901e+18
14481.0	1.2358863856599037e+18
14482.0	1.2356575033294845e+18
14483.0	1.2354238915018752e+18
14484.0	1.23520346488832e+18
14485.0	1.2349414450397181e+18
14486.0	1.2344443931721728e+18
14487.0	1.2345326622998525e+18
14488.0	1.2342958477017088e+18
14489.0	1.2340689811537917e+18
14490.0	1.2338505048915965e+18
14491.0	1.2336304960307197e+18
14492.0	1.2334059103453184e+18
14493.0	1.2331752865398781e+18
14494.0	1.2329356751798267e+18
14495.0	1.2327313345609725e+18
14496.0	1.2323658110337024e+18
14497.0	1.232278993974067e+18
14498.0	1.2320549099274237e+18
14499.0	1.2318311287095293e+18
14500.0	1.2316062217404416e+18
14501.0	1.2313218613510141e+18
14502.0	1.2308536209965056e+18
14503.0	1.2309110485680125e+18
14504.0	1.2307006253694973e+18
14505.0	1.2304335715172347e+18
14506.0	1.2301395860389888e+18
14507.0	1.2297755204517888e+18
14508.0	1.2298083173924861e+18
14509.0	1.2295833785466875e+18
14510.0	1.2293556546830333e+18
14511.0	1.2291353346048e+18
14512.0	1.2288951897292797e+18
14513.0	1.2286865742757883e+18
14514.0	1.2284218860109824e+18
14515.0	1.2282362368884736e+18
14516.0	1.2250907068596247e+18
14517.0	1.2277890443902973e+18
14518.0	1.2275651339878395e+18
14519.0	1.227339534119731e+18
14520.0	1.2271153393434624e+18
14521.0	1.2268891958935552e+18
14522.0	1.2266674287804413e+18
14523.0	1.2263131661205501e+18
14524.0	1.2260886139895803e+18
14525.0	1.2259911224262653e+18
14526.0	1.225770546495488e+18
14527.0	1.2255346529665021e+18
14528.0	1.2251569005264893e+18
14529.0	1.2250910071717888e+18
14530.0	1.224857940603699e+18
14531.0	1.2246517553299453e+18
14532.0	1.224230187512627e+18
14533.0	1.2242060207718397e+18
14534.0	1.2239833829212157e+18
14535.0	1.223749222478643e+18
14536.0	1.2235327938756603e+18
14537.0	1.2232981989031933e+18
14538.0	1.2230892848152573e+18
14539.0	1.2228648325087232e+18
14540.0	1.2226426241548285e+18
14541.0	1.2223988151353341e+18
14542.0	1.2221944678055933e+18
14543.0	1.2218839659970557e+18
14544.0	1.2217480495759357e+18
14545.0	1.2215195917090813e+18
14546.0	1.2043868908289935e+18
14547.0	1.2059916147621747e+18
14548.0	1.2208408828575744e+18
14549.0	1.2205046204727293e+18
14550.0	1.220400426411622e+18
14551.0	1.2201856327483392e+18
14552.0	1.2199615445073917e+18
14553.0	1.2197267020709885e+18
14554.0	1.2195168232931325e+18
14555.0	1.2192938113105917e+18
14556.0	1.219067949717913e+18
14557.0	1.2188485658083325e+18
14558.0	1.218625607512883e+18
14559.0	1.216248696274938e+18
14560.0	1.2181733701058557e+18
14561.0	1.2179495712718843e+18
14562.0	1.2177098374381565e+18
14563.0	1.217511248048947e+18
14564.0	1.2172765641572352e+18
14565.0	1.2170677280833533e+18
14566.0	1.21684526891008e+18
14567.0	1.2166210724560893e+18
14568.0	1.2163806289461245e+18
14569.0	1.2161779694043133e+18
14570.0	1.2153504953008125e+18
14571.0	1.2157298986188797e+18
14572.0	1.2154651281457152e+18
14573.0	1.2152375594713088e+18
14574.0	1.2150363561918461e+18
14575.0	1.214842731180851e+18
14576.0	1.2146168209342461e+18
14577.0	1.2143923560447997e+18
14578.0	1.214174285791232e+18
14579.0	1.2139561534619648e+18
14580.0	1.2137342496145408e+18
14581.0	1.2135074510143485e+18
14582.0	1.2132884454309885e+18
14583.0	1.2128122904248317e+18
14584.0	1.212531190687334e+18
14585.0	1.2123233008484352e+18
14586.0	1.2120978008047613e+18
14587.0	1.2118766309605373e+18
14588.0	1.211657442505523e+18
14589.0	1.2114423057481725e+18
14590.0	1.2112270909767675e+18
14591.0	1.2110075342618624e+18
14592.0	1.2107892467433472e+18
14593.0	1.210458857222963e+18
14594.0	1.2103642941227005e+18
14595.0	1.210141964972851e+18
14596.0	1.20984947434455e+18
14597.0	1.209624856782438e+18
14598.0	1.2094963869286397e+18
14599.0	1.2092899223142397e+18
14600.0	1.209072987878195e+18
14601.0	1.2088599071686656e+18
14602.0	1.2086336227901437e+18
14603.0	1.2084297007628285e+18
14604.0	1.208167529919283e+18
14605.0	1.207979477460582e+18
14606.0	1.2076915879837693e+18
14607.0	1.2075639041425408e+18
14608.0	1.2073499703115773e+18
14609.0	1.2071302567297021e+18
14610.0	1.2068876346982397e+18
14611.0	1.2067052680380416e+18
14612.0	1.2064944103096317e+18
14613.0	1.2062811559559165e+18
14614.0	1.2060612293033981e+18
14615.0	1.2058483012665344e+18
14616.0	1.2056368831791101e+18
14617.0	1.2054200192073725e+18
14618.0	1.2051993996558336e+18
14619.0	1.2049567868518397e+18
14620.0	1.2045860087005181e+18
14621.0	1.2045635674963965e+18
14622.0	1.2043460349526016e+18
14623.0	1.2041343517851645e+18
14624.0	1.203859811939123e+18
14625.0	1.2037021488906237e+18
14626.0	1.2034852161323005e+18
14627.0	1.2032661308571645e+18
14628.0	1.203061434561331e+18
14629.0	1.2028468866842621e+18
14630.0	1.2026301208592381e+18
14631.0	1.202416731448934e+18
14632.0	1.201168447019418e+18
14633.0	1.2018948904058875e+18
14634.0	1.2017686569549821e+18
14635.0	1.2012852919402478e+18
14636.0	1.2004191446761467e+18
14637.0	1.2011308408897533e+18
14638.0	1.200910524166963e+18
14639.0	1.2006849930854397e+18
14640.0	1.2004815903129597e+18
14641.0	1.1964121381601244e+18
14642.0	1.2000510852726781e+18
14643.0	1.199841094087475e+18
14644.0	1.1996158448631805e+18
14645.0	1.1993867536564221e+18
14646.0	1.1991836511961088e+18
