# Flux units: erg / (cm m2 s)
# Wavelength units: Angstrom
wave	flux
14000.0	1.6303380074856443e+18
14001.0	1.6298695272169472e+18
14002.0	1.6297628090236928e+18
14003.0	1.6294768799645693e+18
14004.0	1.6291830807134203e+18
14005.0	1.628889209320243e+18
14006.0	1.6285852749529088e+18
14007.0	1.6282917407817725e+18
14008.0	1.627890674722406e+18
14009.0	1.6277113246056448e+18
14010.0	1.6274055564886013e+18
14011.0	1.626299545367347e+18
14012.0	1.6268333225607163e+18
14013.0	1.6265404779331581e+18
14014.0	1.6262406137184253e+18
14015.0	1.6259511681548288e+18
14016.0	1.6256607377686525e+18
14017.0	1.6253677555679232e+18
14018.0	1.6250746022395904e+18
14019.0	1.624781752578867e+18
14020.0	1.624488001981644e+18
14021.0	1.624194288294297e+18
14022.0	1.6239015476854781e+18
14023.0	1.6235969774616576e+18
14024.0	1.623301087769395e+18
14025.0	1.6230248878178301e+18
14026.0	1.6227303721795581e+18
14027.0	1.6224401934516221e+18
14028.0	1.622147838718771e+18
14029.0	1.6218552474271741e+18
14030.0	1.6211553506295803e+18
14031.0	1.6212395923865597e+18
14032.0	1.6209747707428861e+18
14033.0	1.6206387969261563e+18
14034.0	1.6203941465292797e+18
14035.0	1.6201028470833147e+18
14036.0	1.619811005733273e+18
14037.0	1.6195192046485504e+18
14038.0	1.6192274404737021e+18
14039.0	1.6189310994743293e+18
14040.0	1.6186358506717181e+18
14041.0	1.618348363009228e+18
14042.0	1.6180451097968635e+18
14043.0	1.6177178014121984e+18
14044.0	1.617461621712486e+18
14045.0	1.6171814287835133e+18
14046.0	1.616891427894067e+18
14047.0	1.6165957865046013e+18
14048.0	1.6163106275196928e+18
14049.0	1.616022358038937e+18
14050.0	1.6157313320615933e+18
14051.0	1.615429858911846e+18
14052.0	1.615149271718297e+18
14053.0	1.6148586953703421e+18
14054.0	1.6145679965487104e+18
14055.0	1.6142773245706237e+18
14056.0	1.6139866760806397e+18
14057.0	1.6136961769078781e+18
14058.0	1.613405687801446e+18
14059.0	1.6131152775479293e+18
14060.0	1.612824914270617e+18
14061.0	1.6125256439693307e+18
14062.0	1.6122443605213184e+18
14063.0	1.6119356329033728e+18
14064.0	1.611579006333747e+18
14065.0	1.611362882237235e+18
14066.0	1.6110840818171904e+18
14067.0	1.610791064384307e+18
14068.0	1.6105043266633725e+18
14069.0	1.6102129701748733e+18
14070.0	1.6099245899644925e+18
14071.0	1.6096313007407101e+18
14072.0	1.6093454874443768e+18
14073.0	1.6090559546392576e+18
14074.0	1.6087665845731328e+18
14075.0	1.608457477790105e+18
14076.0	1.6081837306675197e+18
14077.0	1.607805533631283e+18
14078.0	1.6076025830047744e+18
14079.0	1.6073083525791741e+18
14080.0	1.6070310671417344e+18
14081.0	1.6067420376530941e+18
14082.0	1.6064495638020093e+18
14083.0	1.6061623395418107e+18
14084.0	1.6058750968266747e+18
14085.0	1.6052697530630141e+18
14086.0	1.6052901625462781e+18
14087.0	1.6050091206901757e+18
14088.0	1.6047071828115453e+18
14089.0	1.6044319408390141e+18
14090.0	1.6041404484550653e+18
14091.0	1.603855192162304e+18
14092.0	1.6035668673167357e+18
14093.0	1.6032785860919293e+18
14094.0	1.602990360231936e+18
14095.0	1.6027021712818176e+18
14096.0	1.6023926484238333e+18
14097.0	1.602111287800627e+18
14098.0	1.6018299036893181e+18
14099.0	1.601550157034291e+18
14100.0	1.601246291453542e+18
14101.0	1.6009746196725752e+18
14102.0	1.6006866421153792e+18
14103.0	1.6003782315868157e+18
14104.0	1.6001084875079677e+18
14105.0	1.5998237479534592e+18
14106.0	1.599536493494272e+18
14107.0	1.5992481166393341e+18
14108.0	1.598948908413747e+18
14109.0	1.5986686534090747e+18
14110.0	1.5983826287198203e+18
14111.0	1.5980886214311939e+18
14112.0	1.5978042761412603e+18
14113.0	1.5975257626116093e+18
14114.0	1.5972240478699515e+18
14115.0	1.5969501027762176e+18
14116.0	1.5966448144875515e+18
14117.0	1.5956570743504893e+18
14118.0	1.5960911982362621e+18
14119.0	1.595788909713817e+18
14120.0	1.5955094449160192e+18
14121.0	1.5952191185485824e+18
14122.0	1.5949276781740024e+18
14123.0	1.5946504145469437e+18
14124.0	1.594362109834035e+18
14125.0	1.5935162143473656e+18
14126.0	1.593799791240806e+18
14127.0	1.5935139729113085e+18
14128.0	1.5932262101024763e+18
14129.0	1.5929275572027387e+18
14130.0	1.5926325315371005e+18
14131.0	1.592369944618598e+18
14132.0	1.5920776989376507e+18
14133.0	1.5911305948954614e+18
14134.0	1.591511929271091e+18
14135.0	1.591210414178304e+18
14136.0	1.5909272969805821e+18
14137.0	1.5906542159134715e+18
14138.0	1.5903624769044475e+18
14139.0	1.5900841395355643e+18
14140.0	1.5897924156260347e+18
14141.0	1.5895101624549376e+18
14142.0	1.5891752841904125e+18
14143.0	1.5889384905637888e+18
14144.0	1.5886582707912696e+18
14145.0	1.5883713199996925e+18
14146.0	1.5880865401798653e+18
14147.0	1.587802325752217e+18
14148.0	1.5875178277896192e+18
14149.0	1.5872340596359163e+18
14150.0	1.586949242906214e+18
14151.0	1.5866614398320637e+18
14152.0	1.5863799886118907e+18
14153.0	1.5860952457019392e+18
14154.0	1.5857819395817472e+18
14155.0	1.5854654541791232e+18
14156.0	1.585229524579123e+18
14157.0	1.584957700125491e+18
14158.0	1.5846684542107648e+18
14159.0	1.584388830029414e+18
14160.0	1.5840932607819776e+18
14161.0	1.5837521246158848e+18
14162.0	1.5834074904002557e+18
14163.0	1.583250893543833e+18
14164.0	1.582936082507366e+18
14165.0	1.5826072205524992e+18
14166.0	1.5823992334057467e+18
14167.0	1.5821013908455424e+18
14168.0	1.5818316148899837e+18
14169.0	1.5815505378017277e+18
14170.0	1.581262605543014e+18
14171.0	1.5809796225630205e+18
14172.0	1.5807000235474941e+18
14173.0	1.5803669186347003e+18
14174.0	1.5801266856787965e+18
14175.0	1.5798501854150653e+18
14176.0	1.5795670279520253e+18
14177.0	1.5792839409532925e+18
14178.0	1.5789996459950075e+18
14179.0	1.5787077408915456e+18
14180.0	1.578434992013312e+18
14181.0	1.5781521080188925e+18
14182.0	1.577868264367718e+18
14183.0	1.5775865396789243e+18
14184.0	1.577297599109529e+18
14185.0	1.577021077035417e+18
14186.0	1.5765913907232768e+18
14187.0	1.5764265730310141e+18
14188.0	1.576168883381862e+18
14189.0	1.5758894403944443e+18
14190.0	1.5756075714215933e+18
14191.0	1.5753251068575741e+18
14192.0	1.5750341916098552e+18
14193.0	1.5747415214653437e+18
14194.0	1.5744779816009725e+18
14195.0	1.5741981393158144e+18
14196.0	1.573915820713574e+18
14197.0	1.573633887987302e+18
14198.0	1.5733459355959293e+18
14199.0	1.5730671435644925e+18
14200.0	1.5727104968622075e+18
14201.0	1.5725009058136064e+18
14202.0	1.5722253350076413e+18
14203.0	1.5719327823036413e+18
14204.0	1.5716587080253437e+18
14205.0	1.5713774078001147e+18
14206.0	1.5709448425177088e+18
14207.0	1.570817812149043e+18
14208.0	1.5705368055250941e+18
14209.0	1.5700958449238013e+18
14210.0	1.5697068215500797e+18
14211.0	1.5692868526014464e+18
14212.0	1.5690105922519035e+18
14213.0	1.568730307048243e+18
14214.0	1.5684487954300925e+18
14215.0	1.5681516172476413e+18
14216.0	1.567879710585651e+18
14217.0	1.5675885503905795e+18
14218.0	1.5672947427508221e+18
14219.0	1.5670272988282877e+18
14220.0	1.566746929738547e+18
14221.0	1.5664648778940413e+18
14222.0	1.5661719225368576e+18
14223.0	1.5659051027267584e+18
14224.0	1.5656251916550141e+18
14225.0	1.5650887972159488e+18
14226.0	1.5650626667020288e+18
14227.0	1.56478455414784e+18
14228.0	1.563828457517875e+18
14229.0	1.5640519585562616e+18
14230.0	1.5639445306867712e+18
14231.0	1.5636592978821115e+18
14232.0	1.5633845625815037e+18
14233.0	1.563100002543206e+18
14234.0	1.5628171470700541e+18
14235.0	1.5625233209753597e+18
14236.0	1.5622467787685888e+18
14237.0	1.561965485254246e+18
14238.0	1.561687028767129e+18
14239.0	1.5614011349401597e+18
14240.0	1.5589607882096635e+18
14241.0	1.560847256964301e+18
14242.0	1.5605692450734075e+18
14243.0	1.5600990954717184e+18
14244.0	1.5600109161021437e+18
14245.0	1.5597129074475005e+18
14246.0	1.5594300184199165e+18
14247.0	1.5591685522194432e+18
14248.0	1.5588717917896696e+18
14249.0	1.5586133891088381e+18
14250.0	1.5583343051538432e+18
14251.0	1.5580585145663488e+18
14252.0	1.557779638648832e+18
14253.0	1.5574998534062077e+18
14254.0	1.5572086546235384e+18
14255.0	1.5568804251697147e+18
14256.0	1.5563997294100477e+18
14257.0	1.5563442622562301e+18
14258.0	1.5560892317958141e+18
14259.0	1.5557883072610301e+18
14260.0	1.5555175817150464e+18
14261.0	1.5552323136782333e+18
14262.0	1.5549952902037501e+18
14263.0	1.5543571218169856e+18
14264.0	1.554350370665267e+18
14265.0	1.5541573303402496e+18
14266.0	1.5538822141968381e+18
14267.0	1.553606121619456e+18
14268.0	1.553328227169075e+18
14269.0	1.5530431973687293e+18
14270.0	1.552772455045529e+18
14271.0	1.5524936344928253e+18
14272.0	1.5522169077366784e+18
14273.0	1.5519373657636864e+18
14274.0	1.5510967265787904e+18
14275.0	1.5513332014383101e+18
14276.0	1.5510888849080315e+18
14277.0	1.5507985266638843e+18
14278.0	1.5505327873064957e+18
14279.0	1.5502537788489723e+18
14280.0	1.549969928486912e+18
14281.0	1.5497011188989947e+18
14282.0	1.549424259602841e+18
14283.0	1.549147099994521e+18
14284.0	1.5488699756183555e+18
14285.0	1.548592785811046e+18
14286.0	1.5483147202330621e+18
14287.0	1.548038870925312e+18
14288.0	1.5477614412038141e+18
14289.0	1.5460947808223217e+18
14290.0	1.5472063670124541e+18
14291.0	1.546930323088998e+18
14292.0	1.5466549234106363e+18
14293.0	1.5463753545940987e+18
14294.0	1.545930238276403e+18
14295.0	1.5458096671358968e+18
14296.0	1.5444321117405192e+18
14297.0	1.545266157479526e+18
14298.0	1.5447657384247293e+18
14299.0	1.5447038455971835e+18
14300.0	1.5444333549322235e+18
14301.0	1.5441622787424253e+18
14302.0	1.543879221942681e+18
14303.0	1.5435549821108227e+18
14304.0	1.5432974401011712e+18
14305.0	1.5430420841627648e+18
14306.0	1.542749496226611e+18
14307.0	1.5424831277236221e+18
14308.0	1.5422158851276797e+18
14309.0	1.5419376836542464e+18
14310.0	1.5415782066356221e+18
14311.0	1.541282392440832e+18
14312.0	1.541052722420121e+18
14313.0	1.540656058702233e+18
14314.0	1.5405592659099643e+18
14315.0	1.5402865975623677e+18
14316.0	1.5399469663125504e+18
14317.0	1.5397258526719997e+18
14318.0	1.539461153502003e+18
14319.0	1.5391865205424125e+18
14320.0	1.5389104648749053e+18
14321.0	1.5386329395232765e+18
14322.0	1.5383141975851005e+18
14323.0	1.538060618353868e+18
14324.0	1.5378112116162557e+18
14325.0	1.5375256768217085e+18
14326.0	1.5372614205702141e+18
14327.0	1.5369789979492344e+18
14328.0	1.5367032291721213e+18
14329.0	1.5364371207159805e+18
14330.0	1.536149700162355e+18
14331.0	1.5358694216695805e+18
14332.0	1.5355951007662075e+18
14333.0	1.5353205634367488e+18
14334.0	1.5350460563062781e+18
14335.0	1.534752904655667e+18
14336.0	1.5344678664667133e+18
14337.0	1.5342220668305405e+18
14338.0	1.5339401710141435e+18
14339.0	1.5334746351468541e+18
14340.0	1.533212408938496e+18
14341.0	1.5329369153077248e+18
14342.0	1.53266188976128e+18
14343.0	1.5323852552798203e+18
14344.0	1.5321107431161853e+18
14345.0	1.5318422539730944e+18
14346.0	1.5315648326402048e+18
14347.0	1.5312734560190464e+18
14348.0	1.5310200093278205e+18
14349.0	1.5307466883465213e+18
14350.0	1.5304529662705664e+18
14351.0	1.530170884227072e+18
14352.0	1.5299137650032635e+18
14353.0	1.5296484316545016e+18
14354.0	1.5293744362291197e+18
14355.0	1.529097538345369e+18
14356.0	1.5288257575124992e+18
14357.0	1.5285580048891901e+18
14358.0	1.528284083283558e+18
14359.0	1.527995020240486e+18
14360.0	1.5277358692958203e+18
14361.0	1.5274640381313021e+18
14362.0	1.5271799914758144e+18
14363.0	1.5269002045554685e+18
14364.0	1.5265682354601981e+18
14365.0	1.5263398723846141e+18
14366.0	1.5260691350945787e+18
14367.0	1.5258084238688253e+18
14368.0	1.5255348327743485e+18
14369.0	1.5252626174115837e+18
14370.0	1.524989823234867e+18
14371.0	1.5247171246882813e+18
14372.0	1.5244379232927741e+18
14373.0	1.5241713165533181e+18
14374.0	1.5238977623687165e+18
14375.0	1.5236227569549307e+18
14376.0	1.523353942333849e+18
14377.0	1.5230806297411581e+18
14378.0	1.5228055320526848e+18
14379.0	1.5225365697921021e+18
14380.0	1.522262119704166e+18
14381.0	1.5219789572079613e+18
14382.0	1.5217175916707837e+18
14383.0	1.5214416484106237e+18
14384.0	1.5211538419810304e+18
14385.0	1.520903056156262e+18
14386.0	1.5206141222977539e+18
14387.0	1.5203587747479544e+18
14388.0	1.520084525986611e+18
14389.0	1.5198145956806653e+18
14390.0	1.5195406388428795e+18
14391.0	1.519271191720755e+18
14392.0	1.518997635858432e+18
14393.0	1.518728163570483e+18
14394.0	1.518411580860006e+18
14395.0	1.518171205297766e+18
14396.0	1.5179132119810043e+18
14397.0	1.5176417415266304e+18
14398.0	1.5173695160975357e+18
14399.0	1.5170822146621435e+18
14400.0	1.5167847596556285e+18
14401.0	1.5165291755470843e+18
14402.0	1.5162645736849403e+18
14403.0	1.5143316991508457e+18
14404.0	1.5095318181838828e+18
14405.0	1.512794278697366e+18
14406.0	1.514690592322355e+18
14407.0	1.5123485030350853e+18
14408.0	1.5141272285085693e+18
14409.0	1.5138521358532605e+18
14410.0	1.513603138479718e+18
14411.0	1.513336283437465e+18
14412.0	1.513061871937126e+18
14413.0	1.5127964261810173e+18
14414.0	1.5125224592769027e+18
14415.0	1.512253240324915e+18
14416.0	1.5119828771667965e+18
14417.0	1.5117076737818621e+18
14418.0	1.5114267745320957e+18
14419.0	1.5111698767675392e+18
14420.0	1.5108943898476541e+18
14421.0	1.5106301990273021e+18
14422.0	1.5103548211593216e+18
14423.0	1.5100770609266685e+18
14424.0	1.501438200617366e+18
14425.0	1.509538527392563e+18
14426.0	1.509279081168896e+18
14427.0	1.5090077180887035e+18
14428.0	1.508714849973043e+18
14429.0	1.508461586153472e+18
14430.0	1.5081994555752448e+18
14431.0	1.5078161481990141e+18
14432.0	1.507652914275942e+18
14433.0	1.5058108648783862e+18
14434.0	1.507096962636185e+18
14435.0	1.5068226501214203e+18
14436.0	1.5065796740907005e+18
14437.0	1.5063101984473085e+18
14438.0	1.5059958689169405e+18
14439.0	1.5057592447401981e+18
14440.0	1.5054829994901504e+18
14441.0	1.5051984411295744e+18
14442.0	1.5049217445724157e+18
14443.0	1.504597509773721e+18
14444.0	1.5043976578990083e+18
14445.0	1.5041352169422848e+18
14446.0	1.5013196360318984e+18
14447.0	1.503575778997043e+18
14448.0	1.503327848654438e+18
14449.0	1.5030587437875197e+18
14450.0	1.5027833172656123e+18
14451.0	1.5025179251965947e+18
14452.0	1.502249077021081e+18
14453.0	1.5019570628657147e+18
14454.0	1.5017121440333821e+18
14455.0	1.5014318386970621e+18
14456.0	1.5011687954382848e+18
14457.0	1.5008974055145472e+18
14458.0	1.5006343840661496e+18
14459.0	1.5003634471272448e+18
14460.0	1.5000951391780864e+18
14461.0	1.4997994759782397e+18
14462.0	1.499468464862003e+18
14463.0	1.4992833215725563e+18
14464.0	1.499021498017382e+18
14465.0	1.4987189125382144e+18
14466.0	1.4984822111862781e+18
14467.0	1.4981773339394043e+18
14468.0	1.4979418925563901e+18
14469.0	1.4976445398908925e+18
14470.0	1.4973720191827965e+18
14471.0	1.4971270567297021e+18
14472.0	1.4968662817505277e+18
14473.0	1.496603609268224e+18
14474.0	1.496336863277875e+18
14475.0	1.4960642989490176e+18
14476.0	1.4957014648094715e+18
14477.0	1.4955330718924797e+18
14478.0	1.4952617004236797e+18
14479.0	1.4949949863100413e+18
14480.0	1.4947059316555768e+18
14481.0	1.4944612611260413e+18
14482.0	1.4941877388181501e+18
14483.0	1.4939117888471035e+18
14484.0	1.4936407898324984e+18
14485.0	1.4933426016616448e+18
14486.0	1.4927195059257344e+18
14487.0	1.4928523495997437e+18
14488.0	1.492579914455449e+18
14489.0	1.4922983306952704e+18
14490.0	1.492028695668326e+18
14491.0	1.4917626559987707e+18
14492.0	1.4914970458259453e+18
14493.0	1.4912241627299835e+18
14494.0	1.4909351902838781e+18
14495.0	1.490693652060569e+18
14496.0	1.4902466952822784e+18
14497.0	1.490156698940211e+18
14498.0	1.4898910149476347e+18
14499.0	1.4896238277165056e+18
14500.0	1.4893559257759741e+18
14501.0	1.4890398665146363e+18
14502.0	1.4884832756629504e+18
14503.0	1.4885305437913085e+18
14504.0	1.488277925894553e+18
14505.0	1.4879766221946877e+18
14506.0	1.487667815723827e+18
14507.0	1.4871535420440573e+18
14508.0	1.4872173709623293e+18
14509.0	1.4869503498256381e+18
14510.0	1.4866785689927675e+18
14511.0	1.4864152908529664e+18
14512.0	1.4861281135689723e+18
14513.0	1.4858812905226237e+18
14514.0	1.4855685783158781e+18
14515.0	1.4853456124706813e+18
14516.0	1.4814900522057743e+18
14517.0	1.4848090569703421e+18
14518.0	1.4845457083662336e+18
14519.0	1.484278759371571e+18
14520.0	1.4840104161902592e+18
14521.0	1.4837434470629373e+18
14522.0	1.483477789913907e+18
14523.0	1.4831116858949624e+18
14524.0	1.4828458710401021e+18
14525.0	1.482669698528051e+18
14526.0	1.4824070797328381e+18
14527.0	1.4820991607767035e+18
14528.0	1.4816976836755453e+18
14529.0	1.4815938276753403e+18
14530.0	1.481320013443891e+18
14531.0	1.4810726535266304e+18
14532.0	1.4806712166907904e+18
14533.0	1.4805402990411776e+18
14534.0	1.4802764722864125e+18
14535.0	1.4799960864194557e+18
14536.0	1.4797384018034683e+18
14537.0	1.4794602825383936e+18
14538.0	1.4792099866083325e+18
14539.0	1.4789435056979965e+18
14540.0	1.4786769325129725e+18
14541.0	1.478382733964083e+18
14542.0	1.478141480953446e+18
14543.0	1.4775873865515005e+18
14544.0	1.4770243582820347e+18
14545.0	1.4767451317207035e+18
14546.0	1.4647970913845204e+18
14547.0	1.4654374928187328e+18
14548.0	1.4759230179377144e+18
14549.0	1.4755136974880763e+18
14550.0	1.4753996057083901e+18
14551.0	1.4751440870309885e+18
14552.0	1.4748749267992576e+18
14553.0	1.474599042259353e+18
14554.0	1.4743455351701504e+18
14555.0	1.474078814345625e+18
14556.0	1.473810548339507e+18
14557.0	1.4735465202581501e+18
14558.0	1.473279160221696e+18
14559.0	1.470378468494538e+18
14560.0	1.472743247288729e+18
14561.0	1.4724716895928315e+18
14562.0	1.4721846834364416e+18
14563.0	1.471947612985753e+18
14564.0	1.4716735437406203e+18
14565.0	1.4714169966198781e+18
14566.0	1.4711508378320893e+18
14567.0	1.470884182438707e+18
14568.0	1.4706049676214272e+18
14569.0	1.4703516517924867e+18
14570.0	1.4693537480179707e+18
14571.0	1.4698153160736763e+18
14572.0	1.4695002198245376e+18
14573.0	1.4692239225651197e+18
14574.0	1.4689987706486784e+18
14575.0	1.4687528653160445e+18
14576.0	1.4684864699695101e+18
14577.0	1.4682142277631995e+18
14578.0	1.4679537178640381e+18
14579.0	1.4676905521315837e+18
14580.0	1.4674247557316603e+18
14581.0	1.4671539060342781e+18
14582.0	1.4668919583277053e+18
14583.0	1.4666263649320957e+18
14584.0	1.466344651987353e+18
14585.0	1.4660938175086592e+18
14586.0	1.4658231607492605e+18
14587.0	1.465559387681587e+18
14588.0	1.4652952052498432e+18
14589.0	1.4650348379570173e+18
14590.0	1.4647742794039293e+18
14591.0	1.4645124508155901e+18
14592.0	1.4642457937444864e+18
14593.0	1.4638336631111677e+18
14594.0	1.4637304329011197e+18
14595.0	1.4634625779367936e+18
14596.0	1.4631413328379896e+18
14597.0	1.462874356999782e+18
14598.0	1.4626790567837693e+18
14599.0	1.462426838184755e+18
14600.0	1.4621646908293115e+18
14601.0	1.4619049845587965e+18
14602.0	1.4616385556578304e+18
14603.0	1.4613830101368832e+18
14604.0	1.4610632565325821e+18
14605.0	1.4608465703993341e+18
14606.0	1.4605046155051005e+18
14607.0	1.4603165999562747e+18
14608.0	1.4600733554900987e+18
14609.0	1.4598096864411645e+18
14610.0	1.4595238026805248e+18
14611.0	1.459171647238963e+18
14612.0	1.458730221908787e+18
14613.0	1.458469604635443e+18
14614.0	1.4582031690235901e+18
14615.0	1.4579458182742013e+18
14616.0	1.4576852295221245e+18
14617.0	1.4574232482611197e+18
14618.0	1.4571586799534077e+18
14619.0	1.4568528782819323e+18
14620.0	1.4564944515170304e+18
14621.0	1.456376898597683e+18
14622.0	1.4561113337233403e+18
14623.0	1.4558533672501245e+18
14624.0	1.4555131521531901e+18
14625.0	1.4553258647355387e+18
14626.0	1.4550648448090107e+18
14627.0	1.4547978555490304e+18
14628.0	1.4545436035514365e+18
14629.0	1.4542815853805565e+18
14630.0	1.4540179012321275e+18
14631.0	1.4537566430691325e+18
14632.0	1.4527725821755392e+18
14633.0	1.4527817442131963e+18
14634.0	1.452622098936627e+18
14635.0	1.452257877321318e+18
14636.0	1.451885641229926e+18
14637.0	1.4518391280762877e+18
14638.0	1.451573236046233e+18
14639.0	1.4512980326612987e+18
14640.0	1.4510452520255485e+18
14641.0	1.4480788154220529e+18
14642.0	1.4505177612550141e+18
14643.0	1.4502615748444157e+18
14644.0	1.4499852859736064e+18
14645.0	1.4497035109531648e+18
14646.0	1.4494615080009725e+18
