# Flux units: erg / (cm m2 s)
# Wavelength units: Angstrom
wave	flux
14000.0	1.7727398879428605e+18
14001.0	1.772417163093606e+18
14002.0	1.7721114218201085e+18
14003.0	1.771791193420595e+18
14004.0	1.7714707938934781e+18
14005.0	1.7711502886699003e+18
14006.0	1.7708292683857912e+18
14007.0	1.7705089040908285e+18
14008.0	1.7701836861472765e+18
14009.0	1.7698666504519675e+18
14010.0	1.7695462173704187e+18
14011.0	1.7691762780798976e+18
14012.0	1.7689042606882813e+18
14013.0	1.7685888607715325e+18
14014.0	1.7682696406827003e+18
14015.0	1.767950019618406e+18
14016.0	1.7676305428381693e+18
14017.0	1.7673110878683133e+18
14018.0	1.766991642964787e+18
14019.0	1.7666722517483515e+18
14020.0	1.766352868920525e+18
14021.0	1.7660335817228285e+18
14022.0	1.765714416998809e+18
14023.0	1.7653951264456704e+18
14024.0	1.7650758593806333e+18
14025.0	1.7647572667596795e+18
14026.0	1.764438357049344e+18
14027.0	1.7641195647795197e+18
14028.0	1.7638006299033595e+18
14029.0	1.7634810457489405e+18
14030.0	1.76314546955223e+18
14031.0	1.7628392652275712e+18
14032.0	1.7625259658182653e+18
14033.0	1.7622044841607168e+18
14034.0	1.7618899902136315e+18
14035.0	1.7615718656770043e+18
14036.0	1.7612537595953147e+18
14037.0	1.7609357155893248e+18
14038.0	1.7606177219149821e+18
14039.0	1.7602998070935544e+18
14040.0	1.7599819476369403e+18
14041.0	1.7596640797917181e+18
14042.0	1.759345415028736e+18
14043.0	1.7590256345808893e+18
14044.0	1.7587102044651517e+18
14045.0	1.7583937777827835e+18
14046.0	1.7580763947991037e+18
14047.0	1.7577590218817533e+18
14048.0	1.757441808347955e+18
14049.0	1.7571246266908664e+18
14050.0	1.7568074752327675e+18
14051.0	1.7564899613868027e+18
14052.0	1.7561733216337915e+18
14053.0	1.7558565912838144e+18
14054.0	1.7555397887918077e+18
14055.0	1.7552230416646141e+18
14056.0	1.7549063599685627e+18
14057.0	1.7545897571254272e+18
14058.0	1.7542732230688765e+18
14059.0	1.7539567527657472e+18
14060.0	1.7536403311165435e+18
14061.0	1.7533234715820027e+18
14062.0	1.7530075566047224e+18
14063.0	1.752690322938265e+18
14064.0	1.7523705794002941e+18
14065.0	1.7520586691444733e+18
14066.0	1.7517434923646976e+18
14067.0	1.7514276830838784e+18
14068.0	1.751111880513945e+18
14069.0	1.750796113176166e+18
14070.0	1.7504804750229496e+18
14071.0	1.7501646808416253e+18
14072.0	1.749849388299059e+18
14073.0	1.7495339565055997e+18
14074.0	1.749218561622016e+18
14075.0	1.7489032086814715e+18
14076.0	1.7485877366226944e+18
14077.0	1.7482685869981693e+18
14078.0	1.7479566868086784e+18
14079.0	1.747642300235776e+18
14080.0	1.747327729113497e+18
14081.0	1.7470128996220928e+18
14082.0	1.746698014765875e+18
14083.0	1.7463829352939515e+18
14084.0	1.746066939786035e+18
14085.0	1.7457375459934205e+18
14086.0	1.745436116464435e+18
14087.0	1.7451246793261053e+18
14088.0	1.744810745738035e+18
14089.0	1.7444966242451453e+18
14090.0	1.744182462486937e+18
14091.0	1.7438683678375928e+18
14092.0	1.7435543201644541e+18
14093.0	1.7432403194675197e+18
14094.0	1.7429263791685627e+18
14095.0	1.7426124405473275e+18
14096.0	1.742298379452416e+18
14097.0	1.7419847528873984e+18
14098.0	1.741671181687193e+18
14099.0	1.7413576759181307e+18
14100.0	1.741043383297638e+18
14101.0	1.740730919393689e+18
14102.0	1.7404175344205816e+18
14103.0	1.740103016985395e+18
14104.0	1.7397911050518525e+18
14105.0	1.7394780187131904e+18
14106.0	1.7391649625735165e+18
14107.0	1.738851955087769e+18
14108.0	1.738539014710886e+18
14109.0	1.7382258746851325e+18
14110.0	1.7379132228763643e+18
14111.0	1.7376004284612603e+18
14112.0	1.7372877514866685e+18
14113.0	1.7369752372510715e+18
14114.0	1.7366625653096443e+18
14115.0	1.736349364885913e+18
14116.0	1.7360321446412285e+18
14117.0	1.7356901863915515e+18
14118.0	1.7354102233104381e+18
14119.0	1.7351003279982587e+18
14120.0	1.734788694566502e+18
14121.0	1.73447689839575e+18
14122.0	1.7341647566143485e+18
14123.0	1.733852354786099e+18
14124.0	1.7335364163207165e+18
14125.0	1.7331976927182848e+18
14126.0	1.7329145688096765e+18
14127.0	1.7326060341297147e+18
14128.0	1.7322949795119104e+18
14129.0	1.7319826280153088e+18
14130.0	1.7316707546693624e+18
14131.0	1.7313603325526013e+18
14132.0	1.7310449611571197e+18
14133.0	1.7307010416508925e+18
14134.0	1.7304226019409915e+18
14135.0	1.7301151410028544e+18
14136.0	1.7298055812349947e+18
14137.0	1.7294949678579707e+18
14138.0	1.7291842152300544e+18
14139.0	1.7288736370851837e+18
14140.0	1.728562926400307e+18
14141.0	1.7282518919151616e+18
14142.0	1.7279410419793915e+18
14143.0	1.7276314100695035e+18
14144.0	1.727321330207948e+18
14145.0	1.7270110473420797e+18
14146.0	1.7267008634617853e+18
14147.0	1.7263907768893437e+18
14148.0	1.7260807674920957e+18
14149.0	1.7257707966824443e+18
14150.0	1.7254608392945656e+18
14151.0	1.7251508533854205e+18
14152.0	1.724841213086924e+18
14153.0	1.7245314889023485e+18
14154.0	1.724219358864998e+18
14155.0	1.7239117771309053e+18
14156.0	1.7236026569261053e+18
14157.0	1.7232931609116672e+18
14158.0	1.7229835726225405e+18
14159.0	1.7226742427025405e+18
14160.0	1.7223631645966333e+18
14161.0	1.7220517308137472e+18
14162.0	1.721739624264499e+18
14163.0	1.7214364180283387e+18
14164.0	1.7211281735942136e+18
14165.0	1.7208190835884027e+18
14166.0	1.72051112436695e+18
14167.0	1.7202026232414203e+18
14168.0	1.7198939476328443e+18
14169.0	1.719585419663769e+18
14170.0	1.7192766601691133e+18
14171.0	1.7189681489772541e+18
14172.0	1.7186599146094587e+18
14173.0	1.7183506585092093e+18
14174.0	1.7180427395530747e+18
14175.0	1.7177352266055675e+18
14176.0	1.717427186853478e+18
14177.0	1.7171191605231608e+18
14178.0	1.7168111492923387e+18
14179.0	1.7165030172655613e+18
14180.0	1.716195427142861e+18
14181.0	1.715887660859392e+18
14182.0	1.7155798912204797e+18
14183.0	1.7152722306334715e+18
14184.0	1.7149642428907515e+18
14185.0	1.7146563960766461e+18
14186.0	1.714343094989619e+18
14187.0	1.7140386069741565e+18
14188.0	1.7137348420567037e+18
14189.0	1.713427842492006e+18
14190.0	1.7131207372308475e+18
14191.0	1.712813556472217e+18
14192.0	1.712506035136102e+18
14193.0	1.712199025505075e+18
14194.0	1.711892790981427e+18
14195.0	1.7115861705818107e+18
14196.0	1.711279457907507e+18
14197.0	1.7109727854985213e+18
14198.0	1.7106658043887613e+18
14199.0	1.7103592343207933e+18
14200.0	1.710049771860787e+18
14201.0	1.7097454264516603e+18
14202.0	1.7094402774138877e+18
14203.0	1.7091338566631421e+18
14204.0	1.7088276372389888e+18
14205.0	1.70852082557911e+18
14206.0	1.7082076905865213e+18
14207.0	1.70790803776471e+18
14208.0	1.707602856850227e+18
14209.0	1.707288403168461e+18
14210.0	1.7069835846418427e+18
14211.0	1.706685846100377e+18
14212.0	1.7063808581238784e+18
14213.0	1.7060755295698941e+18
14214.0	1.705769954390835e+18
14215.0	1.7054637215449085e+18
14216.0	1.705159389557555e+18
14217.0	1.7048541650223104e+18
14218.0	1.704548950553395e+18
14219.0	1.704243803193344e+18
14220.0	1.7039387179089915e+18
14221.0	1.70363366450135e+18
14222.0	1.7033286782025725e+18
14223.0	1.7030236851929088e+18
14224.0	1.702718314695885e+18
14225.0	1.7024014165737472e+18
14226.0	1.7021068489261053e+18
14227.0	1.7018037483864061e+18
14228.0	1.7014641372692475e+18
14229.0	1.7011812381753344e+18
14230.0	1.7008908665094144e+18
14231.0	1.7005870797815803e+18
14232.0	1.700282947443097e+18
14233.0	1.6999787832279035e+18
14234.0	1.6996746005577728e+18
14235.0	1.6993703121911805e+18
14236.0	1.6990663274921981e+18
14237.0	1.6987619485286397e+18
14238.0	1.6984570914144253e+18
14239.0	1.6981470820171776e+18
14240.0	1.6977100976160763e+18
14241.0	1.6975337271328765e+18
14242.0	1.697239330612838e+18
14243.0	1.696929737290547e+18
14244.0	1.6966328946524157e+18
14245.0	1.6963164193161213e+18
14246.0	1.696013092284006e+18
14247.0	1.6957102266253307e+18
14248.0	1.6954056782118912e+18
14249.0	1.6951038275747837e+18
14250.0	1.6948008109211643e+18
14251.0	1.6944979133857787e+18
14252.0	1.6941949051207677e+18
14253.0	1.693891769348915e+18
14254.0	1.693588454060851e+18
14255.0	1.6932820031111165e+18
14256.0	1.6929720088133632e+18
14257.0	1.69267495478231e+18
14258.0	1.6923774226006013e+18
14259.0	1.692075551830835e+18
14260.0	1.691772744892416e+18
14261.0	1.6914693910167547e+18
14262.0	1.6911861345681403e+18
14263.0	1.6908531185745915e+18
14264.0	1.6905563782774781e+18
14265.0	1.6902643439894523e+18
14266.0	1.6899637382217725e+18
14267.0	1.6896621392429053e+18
14268.0	1.6893602902835195e+18
14269.0	1.6890582634856443e+18
14270.0	1.6887564631801853e+18
14271.0	1.6884544632258557e+18
14272.0	1.6881519331115003e+18
14273.0	1.6878464132972541e+18
14274.0	1.687521368159027e+18
14275.0	1.687237586583552e+18
14276.0	1.686944976837017e+18
14277.0	1.686644976726835e+18
14278.0	1.6863442484854781e+18
14279.0	1.6860430957805565e+18
14280.0	1.685741875966771e+18
14281.0	1.685441251744153e+18
14282.0	1.6851368711028733e+18
14283.0	1.684821284959027e+18
14284.0	1.684520284926771e+18
14285.0	1.6842192882499581e+18
14286.0	1.683918199298457e+18
14287.0	1.6836166607175677e+18
14288.0	1.683310429549363e+18
14289.0	1.682925618934579e+18
14290.0	1.682709687776051e+18
14291.0	1.682414084974182e+18
14292.0	1.6821142123708416e+18
14293.0	1.6818130747654141e+18
14294.0	1.6815045350522875e+18
14295.0	1.6812085581185021e+18
14296.0	1.6808446569480187e+18
14297.0	1.6806009058099197e+18
14298.0	1.6802997145174013e+18
14299.0	1.6800114467143675e+18
14300.0	1.6797136226091003e+18
14301.0	1.679414105682739e+18
14302.0	1.6791142146244605e+18
14303.0	1.678811052009062e+18
14304.0	1.6785141187739648e+18
14305.0	1.678210315268915e+18
14306.0	1.6778970846461947e+18
14307.0	1.6775974553124861e+18
14308.0	1.677298124613222e+18
14309.0	1.676998555677491e+18
14310.0	1.6766986662969341e+18
14311.0	1.676399280232857e+18
14312.0	1.6760980788740093e+18
14313.0	1.675790117974835e+18
14314.0	1.6755025866915837e+18
14315.0	1.6752031100305405e+18
14316.0	1.674901792908902e+18
14317.0	1.6746056985346048e+18
14318.0	1.674307446610329e+18
14319.0	1.6740088658526205e+18
14320.0	1.6737102012088315e+18
14321.0	1.6734114459680765e+18
14322.0	1.673110679139123e+18
14323.0	1.6728126671290365e+18
14324.0	1.672516126480793e+18
14325.0	1.672217988641587e+18
14326.0	1.671919768594022e+18
14327.0	1.6716214982148093e+18
14328.0	1.6713229627555837e+18
14329.0	1.6710253567541243e+18
14330.0	1.6707273699098621e+18
14331.0	1.6704101664423933e+18
14332.0	1.670112036991795e+18
14333.0	1.6698141323558912e+18
14334.0	1.6695162495303677e+18
14335.0	1.669217432213913e+18
14336.0	1.6689194218815488e+18
14337.0	1.6686230188064765e+18
14338.0	1.6683254245490685e+18
14339.0	1.6680279175331837e+18
14340.0	1.6677305833226235e+18
14341.0	1.667433218913075e+18
14342.0	1.6671359182569467e+18
14343.0	1.666838657866137e+18
14344.0	1.6665414444515325e+18
14345.0	1.66624426459136e+18
14346.0	1.6659470025228285e+18
14347.0	1.6656495743598592e+18
14348.0	1.6653530790100984e+18
14349.0	1.6650562330165243e+18
14350.0	1.6647583787122688e+18
14351.0	1.6644616451260413e+18
14352.0	1.6641659836039163e+18
14353.0	1.6638694094012413e+18
14354.0	1.663572655682355e+18
14355.0	1.663276000949043e+18
14356.0	1.6629796096180221e+18
14357.0	1.6626835169214461e+18
14358.0	1.662383850677862e+18
14359.0	1.6620709404999677e+18
14360.0	1.6617746129223677e+18
14361.0	1.6614784195624957e+18
14362.0	1.661182241302118e+18
14363.0	1.660885885203251e+18
14364.0	1.6605872725688315e+18
14365.0	1.66029224354775e+18
14366.0	1.6599974913507325e+18
14367.0	1.6597024505855997e+18
14368.0	1.65940674208727e+18
14369.0	1.6591110839205885e+18
14370.0	1.6588154492420096e+18
14371.0	1.6585198716059643e+18
14372.0	1.6582243392684032e+18
14373.0	1.6579288522293243e+18
14374.0	1.6576334624980992e+18
14375.0	1.657338124776243e+18
14376.0	1.657042828997427e+18
14377.0	1.6567475348963325e+18
14378.0	1.6564522374397947e+18
14379.0	1.656157292304793e+18
14380.0	1.6558621961748475e+18
14381.0	1.6555671319216125e+18
14382.0	1.6552722387959803e+18
14383.0	1.6549774547222525e+18
14384.0	1.6546809241403392e+18
14385.0	1.654388009048473e+18
14386.0	1.6540933289934843e+18
14387.0	1.6537986824929277e+18
14388.0	1.6535040896794621e+18
14389.0	1.653209545519923e+18
14390.0	1.6529140417036285e+18
14391.0	1.6526003849396221e+18
14392.0	1.652305966609203e+18
14393.0	1.652011667397017e+18
14394.0	1.65171342386135e+18
14395.0	1.6514221277708288e+18
14396.0	1.6511289224331261e+18
14397.0	1.6508347356282877e+18
14398.0	1.6505405588897792e+18
14399.0	1.6502462965874685e+18
14400.0	1.6499505612455933e+18
14401.0	1.6496564885258237e+18
14402.0	1.6493607431176192e+18
14403.0	1.649044754320589e+18
14404.0	1.6485490916065277e+18
14405.0	1.648293153498726e+18
14406.0	1.6481784006967293e+18
14407.0	1.647876880570777e+18
14408.0	1.6475990247079933e+18
14409.0	1.6473075826556925e+18
14410.0	1.6470162278449147e+18
14411.0	1.6467235342123003e+18
14412.0	1.646430406049792e+18
14413.0	1.6461377023508477e+18
14414.0	1.645844582576947e+18
14415.0	1.645551669162803e+18
14416.0	1.6452588245352448e+18
14417.0	1.64496587924439e+18
14418.0	1.644672912143155e+18
14419.0	1.644380064160153e+18
14420.0	1.6440869645189115e+18
14421.0	1.6437944218812416e+18
14422.0	1.6435009061650432e+18
14423.0	1.6432027968471035e+18
14424.0	1.6428501548662781e+18
14425.0	1.6426166848061437e+18
14426.0	1.6423311885991933e+18
14427.0	1.642034674794496e+18
14428.0	1.6417245781557248e+18
14429.0	1.641434531967795e+18
14430.0	1.6411417963921405e+18
14431.0	1.6408448799342592e+18
14432.0	1.640556538311475e+18
14433.0	1.6402527163514877e+18
14434.0	1.6399718825328635e+18
14435.0	1.6396813615497213e+18
14436.0	1.6393906895716347e+18
14437.0	1.639099041159577e+18
14438.0	1.6388067434692603e+18
14439.0	1.638515388658483e+18
14440.0	1.6382240036487165e+18
14441.0	1.6379313267933184e+18
14442.0	1.6376391784202237e+18
14443.0	1.637344489976627e+18
14444.0	1.637055970515353e+18
14445.0	1.6367628440305661e+18
14446.0	1.636399872317849e+18
14447.0	1.6361722944159741e+18
14448.0	1.6358917357436925e+18
14449.0	1.635601714721587e+18
14450.0	1.635310965568307e+18
14451.0	1.6350201056854008e+18
14452.0	1.63472921895895e+18
14453.0	1.6344383137775613e+18
14454.0	1.634147515970355e+18
14455.0	1.633856448049971e+18
14456.0	1.63356610658304e+18
14457.0	1.6332754463490043e+18
14458.0	1.632984740816486e+18
14459.0	1.632694063805235e+18
14460.0	1.632403373372211e+18
14461.0	1.63211193131991e+18
14462.0	1.6318221334347776e+18
14463.0	1.6315321006686205e+18
14464.0	1.6312419001303035e+18
14465.0	1.630950068846592e+18
14466.0	1.6306620560572416e+18
14467.0	1.630371513263718e+18
14468.0	1.6300762141294592e+18
14469.0	1.6297676291178493e+18
14470.0	1.6294773312716795e+18
14471.0	1.629189075212697e+18
14472.0	1.628900255439257e+18
14473.0	1.628610573316915e+18
14474.0	1.628320850929254e+18
14475.0	1.628030990968422e+18
14476.0	1.627740761908838e+18
14477.0	1.627451851538432e+18
14478.0	1.6271623841644541e+18
14479.0	1.6268728513593341e+18
14480.0	1.6265825753235453e+18
14481.0	1.626293908222771e+18
14482.0	1.6260040281292797e+18
14483.0	1.6257142705094653e+18
14484.0	1.6254236689956861e+18
14485.0	1.6251302136774653e+18
14486.0	1.624825289454387e+18
14487.0	1.6245563305492475e+18
14488.0	1.6242692606394365e+18
14489.0	1.6239802798047224e+18
14490.0	1.6236918089973757e+18
14491.0	1.6234031116976125e+18
14492.0	1.6231144949284861e+18
14493.0	1.6228257204535293e+18
14494.0	1.6225345669693437e+18
14495.0	1.6222462740004861e+18
14496.0	1.621950478260633e+18
14497.0	1.6216702266114043e+18
14498.0	1.6213827808919555e+18
14499.0	1.621094476179046e+18
14500.0	1.6208058862534653e+18
14501.0	1.620514971005747e+18
14502.0	1.6202109561077757e+18
14503.0	1.6199395510845437e+18
14504.0	1.619652251326873e+18
14505.0	1.6193641445851133e+18
14506.0	1.619073058209792e+18
14507.0	1.6187707277443067e+18
14508.0	1.6184992220577792e+18
14509.0	1.618212964165222e+18
14510.0	1.6179253456404477e+18
14511.0	1.6176372607090685e+18
14512.0	1.617348674138931e+18
14513.0	1.6170606814822397e+18
14514.0	1.6167702242525184e+18
14515.0	1.616475599562342e+18
14516.0	1.615967273405644e+18
14517.0	1.6158839275519997e+18
14518.0	1.6156061606084605e+18
14519.0	1.6153146816462843e+18
14520.0	1.6150281116975101e+18
14521.0	1.6147411021856765e+18
14522.0	1.6144538879918075e+18
14523.0	1.614166009420185e+18
14524.0	1.6138788556242941e+18
14525.0	1.6135921028038653e+18
14526.0	1.613305192277606e+18
14527.0	1.6130133861597184e+18
14528.0	1.6127210129719293e+18
14529.0	1.6124432812605437e+18
14530.0	1.612156704600883e+18
14531.0	1.6118708728496123e+18
14532.0	1.6115836804661243e+18
14533.0	1.6112976037675003e+18
14534.0	1.611011201590886e+18
14535.0	1.6107245762772987e+18
14536.0	1.6104379073429501e+18
14537.0	1.6101508542103547e+18
14538.0	1.609865045947187e+18
14539.0	1.6095787343675387e+18
14540.0	1.609292333868646e+18
14541.0	1.6090056565456893e+18
14542.0	1.6087194187857915e+18
14543.0	1.6084327364296701e+18
14544.0	1.6081460188413947e+18
14545.0	1.6078568702345208e+18
14546.0	1.6074555525169144e+18
14547.0	1.6071664173318141e+18
14548.0	1.6069956638605307e+18
14549.0	1.6067069632053243e+18
14550.0	1.6064293271240696e+18
14551.0	1.606145147928576e+18
14552.0	1.605859527570227e+18
14553.0	1.6055733871181821e+18
14554.0	1.605288493213286e+18
14555.0	1.6050027201822715e+18
14556.0	1.604716683748966e+18
14557.0	1.6044296742371325e+18
14558.0	1.604134136866406e+18
14559.0	1.6036864385351677e+18
14560.0	1.603562500207411e+18
14561.0	1.603287538414387e+18
14562.0	1.6030017083408381e+18
14563.0	1.602719599453798e+18
14564.0	1.6024346350845947e+18
14565.0	1.602149739501977e+18
14566.0	1.6018647382228992e+18
14567.0	1.6015795473612797e+18
14568.0	1.601294185372057e+18
14569.0	1.601005521626726e+18
14570.0	1.600677632750387e+18
14571.0	1.6004369417764861e+18
14572.0	1.6001516351520765e+18
14573.0	1.5998673519378432e+18
14574.0	1.599577978516275e+18
14575.0	1.5992795370094584e+18
14576.0	1.5989949971038203e+18
14577.0	1.5987105326956541e+18
14578.0	1.5984258820603904e+18
14579.0	1.5981415065714685e+18
14580.0	1.5978570488741885e+18
14581.0	1.5975724301156347e+18
14582.0	1.597288160323174e+18
14583.0	1.5970037110145016e+18
14584.0	1.596718795299225e+18
14585.0	1.5964350875435005e+18
14586.0	1.5961508227842048e+18
14587.0	1.5958667794841597e+18
14588.0	1.595582756316774e+18
14589.0	1.595299107281305e+18
14590.0	1.5950155370987515e+18
14591.0	1.5947318360539133e+18
14592.0	1.594446984092057e+18
14593.0	1.594156652691456e+18
14594.0	1.5938805517254653e+18
14595.0	1.5935978606690304e+18
14596.0	1.593311532312166e+18
14597.0	1.593027767513907e+18
14598.0	1.5927482439958525e+18
14599.0	1.5924659522371581e+18
14600.0	1.5921824994951165e+18
14601.0	1.5918993604870141e+18
14602.0	1.5916163154313213e+18
14603.0	1.591333082470809e+18
14604.0	1.5910476449841147e+18
14605.0	1.5907668044546043e+18
14606.0	1.5904757885435904e+18
14607.0	1.5902015968247805e+18
14608.0	1.5899194308952064e+18
14609.0	1.5896367062843392e+18
14610.0	1.5893539514744832e+18
14611.0	1.5890713124274176e+18
14612.0	1.588789032412774e+18
14613.0	1.5885065930145792e+18
14614.0	1.5882238818254843e+18
14615.0	1.5879416051662843e+18
14616.0	1.5876593201184768e+18
14617.0	1.5873768152891392e+18
14618.0	1.587094003436748e+18
14619.0	1.5868071063322621e+18
14620.0	1.5865227039997947e+18
14621.0	1.5862471633928195e+18
14622.0	1.5859656651964416e+18
14623.0	1.5856833012957181e+18
14624.0	1.585398018159411e+18
14625.0	1.585119048289484e+18
14626.0	1.584837843694387e+18
14627.0	1.5845559713660923e+18
14628.0	1.5842742466772987e+18
14629.0	1.5839924582350843e+18
14630.0	1.5837106043617277e+18
14631.0	1.583428565938995e+18
14632.0	1.5831415211950075e+18
14633.0	1.582863302944358e+18
14634.0	1.582583613331865e+18
14635.0	1.5823017493921787e+18
14636.0	1.5820190130372603e+18
14637.0	1.581739123775897e+18
14638.0	1.581457350433177e+18
14639.0	1.5811682605465597e+18
14640.0	1.5808703642992635e+18
14641.0	1.5805699279814653e+18
14642.0	1.580307428304486e+18
14643.0	1.5800281715441656e+18
14644.0	1.579747012247552e+18
14645.0	1.5794644470202365e+18
14646.0	1.579183816205926e+18
14647.0	1.5789031266713597e+18
14648.0	1.5786219824742395e+18
14649.0	1.5783408634429437e+18
