# Flux units: erg / (cm m2 s)
# Wavelength units: Angstrom
wave	flux
14000.0	1.8179624877948925e+18
14001.0	1.8175339440111616e+18
14002.0	1.8172346586103805e+18
14003.0	1.8168697038307325e+18
14004.0	1.8164991924371453e+18
14005.0	1.8161286072238075e+18
14006.0	1.8157522238046205e+18
14007.0	1.8153811654737917e+18
14008.0	1.8149429194260477e+18
14009.0	1.814643712878182e+18
14010.0	1.8142668227870717e+18
14011.0	1.8134200347525112e+18
14012.0	1.81354032571351e+18
14013.0	1.813283597398835e+18
14014.0	1.8129094268944384e+18
14015.0	1.812542378318233e+18
14016.0	1.8121744405495803e+18
14017.0	1.8118019259564027e+18
14018.0	1.8114205009838075e+18
14019.0	1.811051316668006e+18
14020.0	1.8106772602486781e+18
14021.0	1.810264398128742e+18
14022.0	1.809898280688025e+18
14023.0	1.809526296254873e+18
14024.0	1.8091515804909563e+18
14025.0	1.8087941368709115e+18
14026.0	1.8084241388601341e+18
14027.0	1.808057019819622e+18
14028.0	1.8076886693314555e+18
14029.0	1.8073199816212475e+18
14030.0	1.806689366337126e+18
14031.0	1.8065569790033917e+18
14032.0	1.806211403585945e+18
14033.0	1.8058153623027707e+18
14034.0	1.8054784925827072e+18
14035.0	1.8051048522383355e+18
14036.0	1.8047287037001725e+18
14037.0	1.80436092363735e+18
14038.0	1.8039932559818747e+18
14039.0	1.8036253568008187e+18
14040.0	1.8032551390085115e+18
14041.0	1.8028915347947515e+18
14042.0	1.8025171411533821e+18
14043.0	1.8021301142683648e+18
14044.0	1.8017845539504125e+18
14045.0	1.80142383038464e+18
14046.0	1.8010565318279165e+18
14047.0	1.8006879447810048e+18
14048.0	1.8003243086905344e+18
14049.0	1.799959270024806e+18
14050.0	1.7995926241017853e+18
14051.0	1.7992192421265403e+18
14052.0	1.79885908730839e+18
14053.0	1.7984929681899517e+18
14054.0	1.7981267601522685e+18
14055.0	1.797748636935782e+18
14056.0	1.7973800280784893e+18
14057.0	1.797013987812966e+18
14058.0	1.7966480398221307e+18
14059.0	1.7962831655731195e+18
14060.0	1.7959208615935997e+18
14061.0	1.7955531805163517e+18
14062.0	1.7951945507471355e+18
14063.0	1.7948168335392765e+18
14064.0	1.7944155946745853e+18
14065.0	1.7940917155528704e+18
14066.0	1.7937331159826432e+18
14067.0	1.7933635088809984e+18
14068.0	1.793002877589913e+18
14069.0	1.792636842357555e+18
14070.0	1.7922726761070587e+18
14071.0	1.7919056510189568e+18
14072.0	1.7915431171915776e+18
14073.0	1.7911784610463741e+18
14074.0	1.7908139626070013e+18
14075.0	1.7904365121568763e+18
14076.0	1.7900803637379072e+18
14077.0	1.7896545110196221e+18
14078.0	1.7893374853906432e+18
14079.0	1.7889730439938043e+18
14080.0	1.7886141843767293e+18
14081.0	1.7882501758320637e+18
14082.0	1.7878844392341504e+18
14083.0	1.787525697057587e+18
14084.0	1.7871630323679227e+18
14085.0	1.7865928771371003e+18
14086.0	1.7864305743495165e+18
14087.0	1.7860724898398203e+18
14088.0	1.7857003040800763e+18
14089.0	1.7853442026373115e+18
14090.0	1.7849815396253693e+18
14091.0	1.784619579578777e+18
14092.0	1.7842565424349181e+18
14093.0	1.7838933157085181e+18
14094.0	1.7835304513699837e+18
14095.0	1.7831675987755005e+18
14096.0	1.7827897574162427e+18
14097.0	1.7824326963167227e+18
14098.0	1.782073878642688e+18
14099.0	1.7817173040824317e+18
14100.0	1.7813455427862528e+18
14101.0	1.7809927615545341e+18
14102.0	1.7806246929235965e+18
14103.0	1.780242865297817e+18
14104.0	1.779892483207987e+18
14105.0	1.7795299963568125e+18
14106.0	1.779168529560371e+18
14107.0	1.778808602912358e+18
14108.0	1.7784406181675003e+18
14109.0	1.7780840620621821e+18
14110.0	1.7777199696314363e+18
14111.0	1.777352263388364e+18
14112.0	1.7769977088049147e+18
14113.0	1.7766421157117947e+18
14114.0	1.77627100872704e+18
14115.0	1.7759188146978813e+18
14116.0	1.7755390506696696e+18
14117.0	1.774732464200089e+18
14118.0	1.7748366456782848e+18
14119.0	1.774464097530675e+18
14120.0	1.7741090564079613e+18
14121.0	1.77374469554176e+18
14122.0	1.7733828462247933e+18
14123.0	1.7730249110323197e+18
14124.0	1.7726638452113405e+18
14125.0	1.7719523150921728e+18
14126.0	1.7719528452521981e+18
14127.0	1.771592903504691e+18
14128.0	1.7712159546933243e+18
14129.0	1.7708442185629696e+18
14130.0	1.770465050125926e+18
14131.0	1.7701208537956352e+18
14132.0	1.7697570130231293e+18
14133.0	1.768978924332646e+18
14134.0	1.7690502962872317e+18
14135.0	1.7686835127910395e+18
14136.0	1.768320817902387e+18
14137.0	1.7679754253565952e+18
14138.0	1.7676121550094333e+18
14139.0	1.767257813496627e+18
14140.0	1.7669151975800832e+18
14141.0	1.7665767357022205e+18
14142.0	1.766157793519206e+18
14143.0	1.7658297016385533e+18
14144.0	1.765478539408179e+18
14145.0	1.7651193492799488e+18
14146.0	1.764684859650867e+18
14147.0	1.7642910111498237e+18
14148.0	1.7639328226213885e+18
14149.0	1.7635752263286781e+18
14150.0	1.7632168549285885e+18
14151.0	1.762856832650444e+18
14152.0	1.762500701008691e+18
14153.0	1.7618684616900605e+18
14154.0	1.761435180020531e+18
14155.0	1.7610526645288957e+18
14156.0	1.7607272670691325e+18
14157.0	1.760381092705075e+18
14158.0	1.7600202651205632e+18
14159.0	1.7596656383950848e+18
14160.0	1.7592990864244733e+18
14161.0	1.758903622277529e+18
14162.0	1.7585018717077504e+18
14163.0	1.7582372581015547e+18
14164.0	1.757858661767577e+18
14165.0	1.7574241436172288e+18
14166.0	1.7571477842821117e+18
14167.0	1.7567847890812923e+18
14168.0	1.7564365175652347e+18
14169.0	1.7560819780812797e+18
14170.0	1.7557222628261885e+18
14171.0	1.7553664818282493e+18
14172.0	1.7550121940025344e+18
14173.0	1.7546044053127163e+18
14174.0	1.7543013668487165e+18
14175.0	1.7539512716492797e+18
14176.0	1.753595069543219e+18
14177.0	1.7530616329273336e+18
14178.0	1.7526508662816763e+18
14179.0	1.7522864013967357e+18
14180.0	1.751940928320307e+18
14181.0	1.7515851020238843e+18
14182.0	1.751228812676301e+18
14183.0	1.7508737732313085e+18
14184.0	1.7505142710468603e+18
14185.0	1.75016270448558e+18
14186.0	1.7497089260912637e+18
14187.0	1.7494334458822656e+18
14188.0	1.7490880332038141e+18
14189.0	1.748721513109913e+18
14190.0	1.7483671950852093e+18
14191.0	1.748012028133376e+18
14192.0	1.7476593727307776e+18
14193.0	1.7472972801441787e+18
14194.0	1.7469543957921787e+18
14195.0	1.746599799265689e+18
14196.0	1.7462449930239997e+18
14197.0	1.7458875829583864e+18
14198.0	1.745518912025395e+18
14199.0	1.7451652751556605e+18
14200.0	1.7447651922411517e+18
14201.0	1.744438315030937e+18
14202.0	1.7440779186208765e+18
14203.0	1.7437139973177341e+18
14204.0	1.7433694654431224e+18
14205.0	1.743015731265536e+18
14206.0	1.742566430710169e+18
14207.0	1.7423104674365437e+18
14208.0	1.7419712438730747e+18
14209.0	1.7415601064509435e+18
14210.0	1.7412240051273725e+18
14211.0	1.7409448272199675e+18
14212.0	1.7405989129027581e+18
14213.0	1.7402374175850493e+18
14214.0	1.739872689297817e+18
14215.0	1.7395105681899515e+18
14216.0	1.7391671100571643e+18
14217.0	1.7388137080684536e+18
14218.0	1.738452296636825e+18
14219.0	1.7381081086951421e+18
14220.0	1.7377553744396285e+18
14221.0	1.7374017526693885e+18
14222.0	1.7370390896574456e+18
14223.0	1.736696963635609e+18
14224.0	1.7363449893879805e+18
14225.0	1.7358373041209341e+18
14226.0	1.7356381786996733e+18
14227.0	1.7352885700395003e+18
14228.0	1.7345749511569405e+18
14229.0	1.73447273596846e+18
14230.0	1.7342323167854587e+18
14231.0	1.7338744101142523e+18
14232.0	1.7335272844820477e+18
14233.0	1.733170567315456e+18
14234.0	1.732825689830195e+18
14235.0	1.732477118001971e+18
14236.0	1.7321274573324285e+18
14237.0	1.731775159284531e+18
14238.0	1.7314132428587003e+18
14239.0	1.7310560425082877e+18
14240.0	1.729469464811929e+18
14241.0	1.7303435426660347e+18
14242.0	1.7299892347076605e+18
14243.0	1.7295216503422976e+18
14244.0	1.729291274000793e+18
14245.0	1.7289287401734144e+18
14246.0	1.7285711656910843e+18
14247.0	1.72823490330624e+18
14248.0	1.727875899405107e+18
14249.0	1.7275364057284605e+18
14250.0	1.7271858038571003e+18
14251.0	1.726837275649638e+18
14252.0	1.72648687510487e+18
14253.0	1.7261357715947515e+18
14254.0	1.7257843895828475e+18
14255.0	1.725408809792307e+18
14256.0	1.724932710989824e+18
14257.0	1.7247187243106304e+18
14258.0	1.724384107770675e+18
14259.0	1.7240225688322043e+18
14260.0	1.7236842898259968e+18
14261.0	1.7233282051604475e+18
14262.0	1.7230081915092987e+18
14263.0	1.7224393751003133e+18
14264.0	1.7222464555712504e+18
14265.0	1.7219581307256827e+18
14266.0	1.7216118171107325e+18
14267.0	1.7212627872645115e+18
14268.0	1.7209141768486912e+18
14269.0	1.7205632897646587e+18
14270.0	1.7202161456775163e+18
14271.0	1.7198658508292093e+18
14272.0	1.719518433273446e+18
14273.0	1.7191527184859133e+18
14274.0	1.7184490451369984e+18
14275.0	1.7184231578927104e+18
14276.0	1.7180904321449984e+18
14277.0	1.7177432394039293e+18
14278.0	1.7174089818963965e+18
14279.0	1.7170594856435712e+18
14280.0	1.7167067161559037e+18
14281.0	1.7164542593204221e+18
14282.0	1.7161602318991357e+18
14283.0	1.7158122153967616e+18
14284.0	1.7154650562101248e+18
14285.0	1.7151178534027256e+18
14286.0	1.7147682497757181e+18
14287.0	1.7144133512593403e+18
14288.0	1.714069294179942e+18
14289.0	1.7129263245295606e+18
14290.0	1.7133721974996987e+18
14291.0	1.713027766288384e+18
14292.0	1.7126835951239163e+18
14293.0	1.7123349326987261e+18
14294.0	1.711882120672051e+18
14295.0	1.711631928760729e+18
14296.0	1.7106601487892477e+18
14297.0	1.7109398182690813e+18
14298.0	1.710463509751398e+18
14299.0	1.7102439614251005e+18
14300.0	1.7099025115250688e+18
14301.0	1.709562041414451e+18
14302.0	1.7092126995120123e+18
14303.0	1.7088405070413821e+18
14304.0	1.7085089489879037e+18
14305.0	1.7081730439577595e+18
14306.0	1.7078062688501757e+18
14307.0	1.7074726622986237e+18
14308.0	1.7071341383450621e+18
14309.0	1.706777971471155e+18
14310.0	1.706317280863846e+18
14311.0	1.7060307981565947e+18
14312.0	1.7057198458798077e+18
14313.0	1.705340749584793e+18
14314.0	1.705066267620147e+18
14315.0	1.7047226048053248e+18
14316.0	1.7043370543153147e+18
14317.0	1.704022672775577e+18
14318.0	1.7036870714130427e+18
14319.0	1.703346245625446e+18
14320.0	1.7030039988076541e+18
14321.0	1.702659701814067e+18
14322.0	1.7022855145324544e+18
14323.0	1.7019521915158523e+18
14324.0	1.7016244519567352e+18
14325.0	1.7012721857855485e+18
14326.0	1.7009345929674752e+18
14327.0	1.7005847477485563e+18
14328.0	1.7002399457607675e+18
14329.0	1.6999004705390587e+18
14330.0	1.6995558094798843e+18
14331.0	1.6991952402644987e+18
14332.0	1.6988487790100475e+18
14333.0	1.6985044719501307e+18
14334.0	1.6981602202550267e+18
14335.0	1.6978040718360576e+18
14336.0	1.6974510674673661e+18
14337.0	1.6971272923643904e+18
14338.0	1.696782030680883e+18
14339.0	1.696430329901875e+18
14340.0	1.6960928008372221e+18
14341.0	1.695747873020313e+18
14342.0	1.695309497788006e+18
14343.0	1.6946680880431096e+18
14344.0	1.6941705630580733e+18
14345.0	1.6938296600952832e+18
14346.0	1.693486794198221e+18
14347.0	1.6931439165571067e+18
14348.0	1.6928133332598781e+18
14349.0	1.6924703817990141e+18
14350.0	1.692101343444992e+18
14351.0	1.6917482132471805e+18
14352.0	1.6914166820372475e+18
14353.0	1.6910789248024576e+18
14354.0	1.690735278764851e+18
14355.0	1.6903900657352704e+18
14356.0	1.690055167338086e+18
14357.0	1.6897163850153981e+18
14358.0	1.6893727154896893e+18
14359.0	1.6890198151397376e+18
14360.0	1.6886867370704893e+18
14361.0	1.6883449784696832e+18
14362.0	1.688002949755699e+18
14363.0	1.6876603069956093e+18
14364.0	1.6872809472983035e+18
14365.0	1.6869650121883643e+18
14366.0	1.686626338917581e+18
14367.0	1.6862915780935677e+18
14368.0	1.6859490594848763e+18
14369.0	1.6856074837557243e+18
14370.0	1.6852655842263037e+18
14371.0	1.6849237685829632e+18
14372.0	1.684577855943475e+18
14373.0	1.6842399795904507e+18
14374.0	1.683898023018496e+18
14375.0	1.6835556285612032e+18
14376.0	1.6832152725356541e+18
14377.0	1.6828715543560187e+18
14378.0	1.6825284904878077e+18
14379.0	1.682189233369907e+18
14380.0	1.6818461476913147e+18
14381.0	1.6814985942401021e+18
14382.0	1.6811641219842043e+18
14383.0	1.680817771459379e+18
14384.0	1.6804683825807357e+18
14385.0	1.6801420741181435e+18
14386.0	1.679790349851033e+18
14387.0	1.6794603906662397e+18
14388.0	1.6791180431851515e+18
14389.0	1.678778735735603e+18
14390.0	1.6784373579775997e+18
14391.0	1.6780977686708224e+18
14392.0	1.6777556996915197e+18
14393.0	1.6774173955194875e+18
14394.0	1.6770482011373565e+18
14395.0	1.6767269040291837e+18
14396.0	1.676397213279846e+18
14397.0	1.6760633869467648e+18
14398.0	1.6757221836718077e+18
14399.0	1.6753728904232952e+18
14400.0	1.6750116685742077e+18
14401.0	1.67467988067287e+18
14402.0	1.674344470570598e+18
14403.0	1.672024921473022e+18
14404.0	1.66835134702551e+18
14405.0	1.671901967967845e+18
14406.0	1.6729748776419328e+18
14407.0	1.6701017911459848e+18
14408.0	1.672256499063193e+18
14409.0	1.6719438388658168e+18
14410.0	1.6716167167082493e+18
14411.0	1.671283534620262e+18
14412.0	1.6709425226055677e+18
14413.0	1.6706063055192061e+18
14414.0	1.6702650334576637e+18
14415.0	1.669926841692979e+18
14416.0	1.6695871936659456e+18
14417.0	1.6692426081042424e+18
14418.0	1.6688932762681344e+18
14419.0	1.6685686186835965e+18
14420.0	1.668226712443289e+18
14421.0	1.6678917435817981e+18
14422.0	1.6675531760074747e+18
14423.0	1.667206298678067e+18
14424.0	1.6565208713527263e+18
14425.0	1.666523947492966e+18
14426.0	1.666198732904857e+18
14427.0	1.6658606887796739e+18
14428.0	1.665506803607142e+18
14429.0	1.6651783208173565e+18
14430.0	1.664846004433715e+18
14431.0	1.6644375329112061e+18
14432.0	1.664161103111782e+18
14433.0	1.6619089313136627e+18
14434.0	1.663478691528704e+18
14435.0	1.663125079824793e+18
14436.0	1.662779720833433e+18
14437.0	1.6624419568877563e+18
14438.0	1.662053658289766e+18
14439.0	1.6617504084328448e+18
14440.0	1.6614279033651195e+18
14441.0	1.6610830325907453e+18
14442.0	1.6607425792573437e+18
14443.0	1.6603728832364541e+18
14444.0	1.6600731649835005e+18
14445.0	1.659740586875289e+18
14446.0	1.6569637697224712e+18
14447.0	1.6590430724423675e+18
14448.0	1.6587363429908475e+18
14449.0	1.6583992719441915e+18
14450.0	1.6580582683181056e+18
14451.0	1.65772335817687e+18
14452.0	1.6573849382420477e+18
14453.0	1.657019171445145e+18
14454.0	1.6567136885407741e+18
14455.0	1.6563608016125947e+18
14456.0	1.6560159509708797e+18
14457.0	1.6556959104761856e+18
14458.0	1.6555265428029437e+18
14459.0	1.655188391303577e+18
14460.0	1.654853029855232e+18
14461.0	1.6544980206092285e+18
14462.0	1.654121513038643e+18
14463.0	1.653839571923763e+18
14464.0	1.6535078075105277e+18
14465.0	1.653154121986867e+18
14466.0	1.6528367356477437e+18
14467.0	1.6524637496147963e+18
14468.0	1.6521581106823165e+18
14469.0	1.6518042489978877e+18
14470.0	1.6514670571552765e+18
14471.0	1.6511436293406715e+18
14472.0	1.6508117575532541e+18
14473.0	1.6504824359026685e+18
14474.0	1.6501457591205888e+18
14475.0	1.649802868057702e+18
14476.0	1.6493538711699453e+18
14477.0	1.6491389516775421e+18
14478.0	1.6488032798507005e+18
14479.0	1.648130879232409e+18
14480.0	1.6476466199920637e+18
14481.0	1.6473249705623547e+18
14482.0	1.6469852050948096e+18
14483.0	1.6466449782538235e+18
14484.0	1.6462941834444797e+18
14485.0	1.6459448834850813e+18
14486.0	1.6453946713309181e+18
14487.0	1.645303542526771e+18
14488.0	1.644963837457203e+18
14489.0	1.6446309087051776e+18
14490.0	1.644299211400806e+18
14491.0	1.6439653196365821e+18
14492.0	1.6436316057108475e+18
14493.0	1.6432970982227965e+18
14494.0	1.6429448068857853e+18
14495.0	1.6426259340853243e+18
14496.0	1.6421808093790205e+18
14497.0	1.64195495617495e+18
14498.0	1.6416209939464192e+18
14499.0	1.6412864495484925e+18
14500.0	1.6409511518535677e+18
14501.0	1.6405587310936061e+18
14502.0	1.6400665379078141e+18
14503.0	1.639938524394291e+18
14504.0	1.6396136688386043e+18
14505.0	1.639227371762483e+18
14506.0	1.6388436483112952e+18
14507.0	1.6384129385889787e+18
14508.0	1.6382812307324925e+18
14509.0	1.6379471527411707e+18
14510.0	1.6376102763102205e+18
14511.0	1.637277683102515e+18
14512.0	1.636930688332595e+18
14513.0	1.6366090053484544e+18
14514.0	1.6362436881809405e+18
14515.0	1.6359392035209213e+18
14516.0	1.6335955405307907e+18
14517.0	1.6352675075457021e+18
14518.0	1.634937635602432e+18
14519.0	1.6346000176185344e+18
14520.0	1.6342524792668157e+18
14521.0	1.6339171027189757e+18
14522.0	1.6335839256641533e+18
14523.0	1.6331260234301435e+18
14524.0	1.6327891553878008e+18
14525.0	1.6325753364807677e+18
14526.0	1.6322456943853565e+18
14527.0	1.6318800651616253e+18
14528.0	1.631479455442534e+18
14529.0	1.631233394081792e+18
14530.0	1.630896812929843e+18
14531.0	1.6305738917871613e+18
14532.0	1.6300689680498685e+18
14533.0	1.629904306385715e+18
14534.0	1.629514187459788e+18
14535.0	1.6291697780588541e+18
14536.0	1.6288446456791035e+18
14537.0	1.628500999641497e+18
14538.0	1.6281774090878976e+18
14539.0	1.6278437958254592e+18
14540.0	1.6275100550561792e+18
14541.0	1.6271597937623035e+18
14542.0	1.6268424678211581e+18
14543.0	1.626423294112563e+18
14544.0	1.6261710855798781e+18
14545.0	1.6258339038035963e+18
14546.0	1.6123415308009439e+18
14547.0	1.61303750005227e+18
14548.0	1.6248252525445115e+18
14549.0	1.6244042366975997e+18
14550.0	1.6241656529420285e+18
14551.0	1.623837165119078e+18
14552.0	1.6235016795193344e+18
14553.0	1.6231642209189888e+18
14554.0	1.6228371742588925e+18
14555.0	1.6225031902199805e+18
14556.0	1.6221674630283261e+18
14557.0	1.6218370173042685e+18
14558.0	1.621503199359795e+18
14559.0	1.619690872478104e+18
14560.0	1.6208319379144701e+18
14561.0	1.620497781070233e+18
14562.0	1.620150880252723e+18
14563.0	1.6198349031997437e+18
14564.0	1.6194970402684925e+18
14565.0	1.6191701009825792e+18
14566.0	1.6188371135102976e+18
14567.0	1.6185099309547515e+18
14568.0	1.6181646608826363e+18
14569.0	1.6180316544696315e+18
14570.0	1.6171654635847677e+18
14571.0	1.6171127730601981e+18
14572.0	1.6167481219481597e+18
14573.0	1.6164096986578944e+18
14574.0	1.6160921898450941e+18
14575.0	1.6157684650737661e+18
14576.0	1.6154360077615101e+18
14577.0	1.6150813307043837e+18
14578.0	1.6147203689021437e+18
14579.0	1.6143837005086715e+18
14580.0	1.6140174387838976e+18
14581.0	1.6136802838511613e+18
14582.0	1.6133503062114301e+18
14583.0	1.6130172583411707e+18
14584.0	1.612674395799552e+18
14585.0	1.6123503052849147e+18
14586.0	1.612014118397542e+18
14587.0	1.6116810470391805e+18
14588.0	1.611348277670707e+18
14589.0	1.6110238096687096e+18
14590.0	1.6106993970315261e+18
14591.0	1.6103742478745597e+18
14592.0	1.6100461778042875e+18
14593.0	1.6096294284034043e+18
14594.0	1.609411009183744e+18
14595.0	1.6090824357969915e+18
14596.0	1.608717155539353e+18
14597.0	1.6083940112596992e+18
14598.0	1.6080923686600704e+18
14599.0	1.6077725882122237e+18
14600.0	1.6074470598901757e+18
14601.0	1.6071234877915133e+18
14602.0	1.6067948305186813e+18
14603.0	1.6064739461300221e+18
14604.0	1.6061129876832253e+18
14605.0	1.605815037748838e+18
14606.0	1.605449054525849e+18
14607.0	1.6051600099377144e+18
14608.0	1.6048473346408448e+18
14609.0	1.6045157681987581e+18
14610.0	1.6041834081943547e+18
14611.0	1.603870261457715e+18
14612.0	1.6035485063315453e+18
14613.0	1.6032240752394237e+18
14614.0	1.6028965101633533e+18
14615.0	1.6025729984626688e+18
14616.0	1.6022490337771515e+18
14617.0	1.6019234953887741e+18
14618.0	1.6015944354627581e+18
14619.0	1.6012395470127096e+18
14620.0	1.6008588451381243e+18
14621.0	1.6006224222879744e+18
14622.0	1.600298373716377e+18
14623.0	1.5999719612350461e+18
14624.0	1.599597829318246e+18
14625.0	1.5993200640524285e+18
14626.0	1.598990841387417e+18
14627.0	1.5986605936345085e+18
14628.0	1.5983422728044541e+18
14629.0	1.5980162344550397e+18
14630.0	1.597688939492147e+18
14631.0	1.5973627988017147e+18
14632.0	1.5962370291531779e+18
14633.0	1.5965572407754744e+18
14634.0	1.5963785013493757e+18
14635.0	1.595971808211763e+18
14636.0	1.595575478360473e+18
14637.0	1.5954012989816832e+18
14638.0	1.5950721870462968e+18
14639.0	1.5947379664486395e+18
14640.0	1.594415255021158e+18
14641.0	1.5908032244350963e+18
14642.0	1.5937594252591101e+18
14643.0	1.5934370309210112e+18
14644.0	1.5931009866399741e+18
14645.0	1.592913204294451e+18
14646.0	1.592711290499891e+18
14647.0	1.5923808514867197e+18
