# Flux units: erg / (cm m2 s)
# Wavelength units: Angstrom
wave	flux
14000.0	1.5936369331273725e+18
14001.0	1.5931977676881923e+18
14002.0	1.5930704034529277e+18
14003.0	1.5927849659662333e+18
14004.0	1.5924904402616315e+18
14005.0	1.5921958055051264e+18
14006.0	1.5918920506540032e+18
14007.0	1.591597853782835e+18
14008.0	1.5912065923284992e+18
14009.0	1.5910146878210043e+18
14010.0	1.5907100169338877e+18
14011.0	1.5896768524845056e+18
14012.0	1.5901349359124477e+18
14013.0	1.5898410745856e+18
14014.0	1.589541096285798e+18
14015.0	1.5892505266487293e+18
14016.0	1.588959039297945e+18
14017.0	1.5886653256105984e+18
14018.0	1.5883713720090621e+18
14019.0	1.588077795894886e+18
14020.0	1.5877834010525696e+18
14021.0	1.5874890011770877e+18
14022.0	1.5871946449223675e+18
14023.0	1.586888521128345e+18
14024.0	1.586593233738137e+18
14025.0	1.5863163341766653e+18
14026.0	1.5860214561505277e+18
14027.0	1.5857302959554557e+18
14028.0	1.585437209735987e+18
14029.0	1.585143868502835e+18
14030.0	1.5842634908041213e+18
14031.0	1.5845185195868157e+18
14032.0	1.5842610111315963e+18
14033.0	1.583926830799257e+18
14034.0	1.5836789004566525e+18
14035.0	1.583387028907622e+18
14036.0	1.5830944409714685e+18
14037.0	1.5828019050446843e+18
14038.0	1.5825094060277757e+18
14039.0	1.5822127949152253e+18
14040.0	1.5819158801350653e+18
14041.0	1.5816277364834304e+18
14042.0	1.5813250251751421e+18
14043.0	1.5810006813245435e+18
14044.0	1.5807407754051584e+18
14045.0	1.5804587604705275e+18
14046.0	1.580167994540032e+18
14047.0	1.5798711133143037e+18
14048.0	1.5795849023979515e+18
14049.0	1.5792962554298363e+18
14050.0	1.5790045432643581e+18
14051.0	1.578703400625766e+18
14052.0	1.5784210165923837e+18
14053.0	1.5781297221795837e+18
14054.0	1.5778383120039939e+18
14055.0	1.577546915250176e+18
14056.0	1.5772555403067387e+18
14057.0	1.5769643113250816e+18
14058.0	1.5766730957651963e+18
14059.0	1.5763819624136701e+18
14060.0	1.5760908777160704e+18
14061.0	1.575791718144409e+18
14062.0	1.575508877770752e+18
14063.0	1.5752011366531072e+18
14064.0	1.574803835401011e+18
14065.0	1.5746262754131965e+18
14066.0	1.5743457133854715e+18
14067.0	1.574049526736486e+18
14068.0	1.573764527135129e+18
14069.0	1.5734721472364541e+18
14070.0	1.5731832184111101e+18
14071.0	1.5728897077280765e+18
14072.0	1.572602807268147e+18
14073.0	1.5723124993556475e+18
14074.0	1.5720223994806272e+18
14075.0	1.571714411737907e+18
14076.0	1.5714349771390968e+18
14077.0	1.571016684234342e+18
14078.0	1.5708524705218557e+18
14079.0	1.5705617582784512e+18
14080.0	1.5702826189586432e+18
14081.0	1.5699928831492093e+18
14082.0	1.5696989345808384e+18
14083.0	1.569411955267993e+18
14084.0	1.5691239139573757e+18
14085.0	1.5685222309822464e+18
14086.0	1.5685344196296704e+18
14087.0	1.5682557316169725e+18
14088.0	1.5679534229618685e+18
14089.0	1.5676722619875323e+18
14090.0	1.5673014351822843e+18
14091.0	1.5667927499931643e+18
14092.0	1.5665036416516093e+18
14093.0	1.5662145802862587e+18
14094.0	1.5659255877074941e+18
14095.0	1.5656366253277181e+18
14096.0	1.5653188078141437e+18
14097.0	1.5650455455531003e+18
14098.0	1.564758418600755e+18
14099.0	1.564481507295232e+18
14100.0	1.564178388300595e+18
14101.0	1.563904416363315e+18
14102.0	1.563615692220006e+18
14103.0	1.563308417508966e+18
14104.0	1.563036317908992e+18
14105.0	1.562750395560755e+18
14106.0	1.562462448202547e+18
14107.0	1.5621730009612288e+18
14108.0	1.5618746332741624e+18
14109.0	1.5615928364433405e+18
14110.0	1.5613044025458688e+18
14111.0	1.5610096134389752e+18
14112.0	1.5607265784496125e+18
14113.0	1.5604463402221565e+18
14114.0	1.5601453687111675e+18
14115.0	1.5598693717639165e+18
14116.0	1.559556570637926e+18
14117.0	1.558259503936307e+18
14118.0	1.5590081150582781e+18
14119.0	1.5587009795981307e+18
14120.0	1.5584209628299264e+18
14121.0	1.5581342435639293e+18
14122.0	1.5578329784516603e+18
14123.0	1.5575584595771387e+18
14124.0	1.5572682389061632e+18
14125.0	1.5564833269219323e+18
14126.0	1.556426148492083e+18
14127.0	1.5560232604270592e+18
14128.0	1.555735001012633e+18
14129.0	1.5554369739030523e+18
14130.0	1.5551424330989565e+18
14131.0	1.554876725618278e+18
14132.0	1.5545847752163325e+18
14133.0	1.5537021544038395e+18
14134.0	1.5540170761699328e+18
14135.0	1.553714344728985e+18
14136.0	1.553419590854246e+18
14137.0	1.5531564737757184e+18
14138.0	1.552861339058176e+18
14139.0	1.5525858454274048e+18
14140.0	1.5522919924891643e+18
14141.0	1.5520091789590525e+18
14142.0	1.5516520088076288e+18
14143.0	1.5514364165488635e+18
14144.0	1.5511567386804221e+18
14145.0	1.5508693701361664e+18
14146.0	1.5505839846588416e+18
14147.0	1.550298661257216e+18
14148.0	1.550011806095769e+18
14149.0	1.5497268937359352e+18
14150.0	1.5494439090782205e+18
14151.0	1.549152000619315e+18
14152.0	1.5488734199807997e+18
14153.0	1.5485880630247421e+18
14154.0	1.5482771627573243e+18
14155.0	1.547890496582451e+18
14156.0	1.5477050747912187e+18
14157.0	1.5474480629415933e+18
14158.0	1.5471586895200253e+18
14159.0	1.5468778087251965e+18
14160.0	1.5465820482174976e+18
14161.0	1.546247918216806e+18
14162.0	1.545907740029747e+18
14163.0	1.5457378556182528e+18
14164.0	1.5454146190639101e+18
14165.0	1.54507921063936e+18
14166.0	1.544883532935987e+18
14167.0	1.5445873093771264e+18
14168.0	1.5443141024808952e+18
14169.0	1.5440334884438013e+18
14170.0	1.5437445680070653e+18
14171.0	1.5434617393774592e+18
14172.0	1.5431811672834043e+18
14173.0	1.542843765725593e+18
14174.0	1.5426065442799616e+18
14175.0	1.542329483657216e+18
14176.0	1.5420457054371835e+18
14177.0	1.5417620077477885e+18
14178.0	1.5414768336633853e+18
14179.0	1.5411837658988541e+18
14180.0	1.5409112485462013e+18
14181.0	1.5406277588942848e+18
14182.0	1.5403434169597947e+18
14183.0	1.5400609909833725e+18
14184.0	1.5397720822906875e+18
14185.0	1.5394943623233533e+18
14186.0	1.5390152922759165e+18
14187.0	1.5389016618696696e+18
14188.0	1.5386408734687224e+18
14189.0	1.538359695717171e+18
14190.0	1.5380774542901243e+18
14191.0	1.5377941173108733e+18
14192.0	1.5375042992930813e+18
14193.0	1.537201047758438e+18
14194.0	1.5369455039152125e+18
14195.0	1.5366654183604221e+18
14196.0	1.5363825578541053e+18
14197.0	1.5361000396029947e+18
14198.0	1.5358121677422587e+18
14199.0	1.535532085542912e+18
14200.0	1.5351421377445885e+18
14201.0	1.5349608179826685e+18
14202.0	1.5346884717576192e+18
14203.0	1.5343942480429053e+18
14204.0	1.5341126223396856e+18
14205.0	1.533825783955456e+18
14206.0	1.5334078249172987e+18
14207.0	1.5332646229901307e+18
14208.0	1.5329828899127293e+18
14209.0	1.5325584582246397e+18
14210.0	1.5323112056815613e+18
14211.0	1.532132555174707e+18
14212.0	1.5318550365339643e+18
14213.0	1.531573286679347e+18
14214.0	1.5312918505586685e+18
14215.0	1.5309953921187837e+18
14216.0	1.5307303255277563e+18
14217.0	1.5304486914359293e+18
14218.0	1.5301557847326715e+18
14219.0	1.529886290634342e+18
14220.0	1.5296052856881147e+18
14221.0	1.5293219034103805e+18
14222.0	1.5290180596400125e+18
14223.0	1.5287481645662203e+18
14224.0	1.5284677803769856e+18
14225.0	1.5278195540492288e+18
14226.0	1.5279022858567672e+18
14227.0	1.5276251262484475e+18
14228.0	1.5263845064900605e+18
14229.0	1.526800685465599e+18
14230.0	1.5267831012655096e+18
14231.0	1.5264929544142843e+18
14232.0	1.5262217523953664e+18
14233.0	1.5259363753066493e+18
14234.0	1.5256612742627325e+18
14235.0	1.5253780329136123e+18
14236.0	1.5251005813817344e+18
14237.0	1.5248189070245888e+18
14238.0	1.5245398130032635e+18
14239.0	1.5242537446932475e+18
14240.0	1.522020485850726e+18
14241.0	1.5236989540368384e+18
14242.0	1.523410057088204e+18
14243.0	1.522955082478387e+18
14244.0	1.5228470539845632e+18
14245.0	1.5225477836832763e+18
14246.0	1.5222636548194301e+18
14247.0	1.522003378123571e+18
14248.0	1.5217076562034685e+18
14249.0	1.5214466614427648e+18
14250.0	1.5211670188064768e+18
14251.0	1.5208902937280512e+18
14252.0	1.5206108322856952e+18
14253.0	1.5203304950726653e+18
14254.0	1.5200496310550525e+18
14255.0	1.5197329728471037e+18
14256.0	1.5191493505449981e+18
14257.0	1.5191828026359805e+18
14258.0	1.5189357967179773e+18
14259.0	1.5186367025774592e+18
14260.0	1.5183605730902013e+18
14261.0	1.5180798281908227e+18
14262.0	1.517837159183155e+18
14263.0	1.5170584648351747e+18
14264.0	1.5171556569251835e+18
14265.0	1.5169865174220797e+18
14266.0	1.5167089115398144e+18
14267.0	1.516432340811776e+18
14268.0	1.516153892713267e+18
14269.0	1.515869057528627e+18
14270.0	1.5155969881276413e+18
14271.0	1.515317389112115e+18
14272.0	1.5150403469443072e+18
14273.0	1.5147605046591488e+18
14274.0	1.513692406690611e+18
14275.0	1.5141353805578235e+18
14276.0	1.5139100625469435e+18
14277.0	1.5136313946669053e+18
14278.0	1.5133713964728315e+18
14279.0	1.5130919820066813e+18
14280.0	1.512808556108185e+18
14281.0	1.5125382986465277e+18
14282.0	1.5122609293230077e+18
14283.0	1.511983283175424e+18
14284.0	1.511705682326323e+18
14285.0	1.5114280328232957e+18
14286.0	1.5111490025553915e+18
14287.0	1.5108732119678976e+18
14288.0	1.5105956195074043e+18
14289.0	1.5090636583600113e+18
14290.0	1.5100302222950397e+18
14291.0	1.5097501602283515e+18
14292.0	1.5094740911390712e+18
14293.0	1.5091943293845504e+18
14294.0	1.5087658980081664e+18
14295.0	1.5086291049775101e+18
14296.0	1.5073607642251272e+18
14297.0	1.5080815721447421e+18
14298.0	1.5075685114576893e+18
14299.0	1.5075203390373888e+18
14300.0	1.5072495799369725e+18
14301.0	1.5069774333607936e+18
14302.0	1.5067024598237184e+18
14303.0	1.5063914572152824e+18
14304.0	1.5061314455994365e+18
14305.0	1.505873448927232e+18
14306.0	1.5055757657505787e+18
14307.0	1.505311598418329e+18
14308.0	1.5050460050227195e+18
14309.0	1.5047672062803965e+18
14310.0	1.5043899370242043e+18
14311.0	1.504055327195136e+18
14312.0	1.5038789063802875e+18
14313.0	1.503503284646707e+18
14314.0	1.5033856243531773e+18
14315.0	1.5031138938519547e+18
14316.0	1.5027803829305341e+18
14317.0	1.5025483741659136e+18
14318.0	1.5022751723028477e+18
14319.0	1.5019994018480125e+18
14320.0	1.501722928427827e+18
14321.0	1.501445314156953e+18
14322.0	1.5011310584463357e+18
14323.0	1.500873900634931e+18
14324.0	1.5006218699407357e+18
14325.0	1.500337063277363e+18
14326.0	1.5000711779581947e+18
14327.0	1.4997891210805248e+18
14328.0	1.499513006692761e+18
14329.0	1.499245586258329e+18
14330.0	1.4989704919252992e+18
14331.0	1.4986950821806083e+18
14332.0	1.498420375401267e+18
14333.0	1.4981454857502715e+18
14334.0	1.4978706296537088e+18
14335.0	1.4975773991501821e+18
14336.0	1.4972799122669565e+18
14337.0	1.4970456603885565e+18
14338.0	1.4967692423331837e+18
14339.0	1.4964857828802552e+18
14340.0	1.4962217682206715e+18
14341.0	1.4959453669425147e+18
14342.0	1.4956711953563648e+18
14343.0	1.4953935257206781e+18
14344.0	1.4951192819924992e+18
14345.0	1.494850573067878e+18
14346.0	1.4944650729095168e+18
14347.0	1.4940467196067837e+18
14348.0	1.4937977775980541e+18
14349.0	1.4935243576311805e+18
14350.0	1.4932103770669053e+18
14351.0	1.4929274695843835e+18
14352.0	1.4926797640564736e+18
14353.0	1.492413179127398e+18
14354.0	1.4921377844822013e+18
14355.0	1.4918586736836603e+18
14356.0	1.4915872636272637e+18
14357.0	1.4913216517767165e+18
14358.0	1.4910474583801853e+18
14359.0	1.4907602173427712e+18
14360.0	1.4904983132569595e+18
14361.0	1.4902265760448512e+18
14362.0	1.489954348938035e+18
14363.0	1.489680751132672e+18
14364.0	1.4893249097367544e+18
14365.0	1.4891132366356477e+18
14366.0	1.4888440344608765e+18
14367.0	1.4885885241720832e+18
14368.0	1.4883149095895037e+18
14369.0	1.4880425046441981e+18
14370.0	1.4877696349700093e+18
14371.0	1.4874968676368381e+18
14372.0	1.4872179279659005e+18
14373.0	1.4869499555610621e+18
14374.0	1.486677297279795e+18
14375.0	1.4864025166807037e+18
14376.0	1.4861332171980795e+18
14377.0	1.4858599297712123e+18
14378.0	1.4855850115989501e+18
14379.0	1.4853156265525245e+18
14380.0	1.485041144587878e+18
14381.0	1.4847594685530112e+18
14382.0	1.4844966417203197e+18
14383.0	1.484219740481126e+18
14384.0	1.4839346184060928e+18
14385.0	1.4836816934862848e+18
14386.0	1.4833918805016576e+18
14387.0	1.483125139544473e+18
14388.0	1.482850998157312e+18
14389.0	1.4825807658614781e+18
14390.0	1.482307030482944e+18
14391.0	1.4820369978359803e+18
14392.0	1.481763195348582e+18
14393.0	1.4814939898183675e+18
14394.0	1.4811821684817915e+18
14395.0	1.4809373452795904e+18
14396.0	1.4806788067033085e+18
14397.0	1.4804073513484285e+18
14398.0	1.480134916204134e+18
14399.0	1.4798641805918203e+18
14400.0	1.479570381340672e+18
14401.0	1.4793132302401536e+18
14402.0	1.4789873412079613e+18
14403.0	1.4765675197235174e+18
14404.0	1.4720256085852145e+18
14405.0	1.475762028806141e+18
14406.0	1.4775564946636795e+18
14407.0	1.4749064931311619e+18
14408.0	1.4769826400567293e+18
14409.0	1.476719422314905e+18
14410.0	1.476465525994291e+18
14411.0	1.476200482891366e+18
14412.0	1.4759264321011707e+18
14413.0	1.4756603236450296e+18
14414.0	1.4753865614229504e+18
14415.0	1.4751170908127232e+18
14416.0	1.4748452311269373e+18
14417.0	1.4745681033953277e+18
14418.0	1.4742848050036736e+18
14419.0	1.474033450431283e+18
14420.0	1.4737584047521787e+18
14421.0	1.4734935646535677e+18
14422.0	1.4732187588886525e+18
14423.0	1.4729440068108283e+18
14424.0	1.462606166491132e+18
14425.0	1.4724030254809088e+18
14426.0	1.4721422253359101e+18
14427.0	1.471866369317273e+18
14428.0	1.471567996597043e+18
14429.0	1.4713122229059581e+18
14430.0	1.471049505125171e+18
14431.0	1.4706176209977344e+18
14432.0	1.4705020008136704e+18
14433.0	1.4683242493902838e+18
14434.0	1.4699487066849277e+18
14435.0	1.4696679215202301e+18
14436.0	1.4694294115844093e+18
14437.0	1.4691598369554424e+18
14438.0	1.4688342633349115e+18
14439.0	1.4686055009615872e+18
14440.0	1.4683498866540544e+18
14441.0	1.4680667325464573e+18
14442.0	1.4677911432855547e+18
14443.0	1.4674727050149885e+18
14444.0	1.4672652966821885e+18
14445.0	1.4670027332517883e+18
14446.0	1.4639593898901517e+18
14447.0	1.4664400556261368e+18
14448.0	1.4661952341016576e+18
14449.0	1.4659260805808125e+18
14450.0	1.4656514627207165e+18
14451.0	1.4653855354585085e+18
14452.0	1.4651162795966464e+18
14453.0	1.464819871488409e+18
14454.0	1.4645798834798592e+18
14455.0	1.4643008649560064e+18
14456.0	1.4640355299295232e+18
14457.0	1.4637637658738685e+18
14458.0	1.4635022006878203e+18
14459.0	1.463231656335769e+18
14460.0	1.4629636654759936e+18
14461.0	1.462667673442713e+18
14462.0	1.4622875050835965e+18
14463.0	1.462152024031232e+18
14464.0	1.4618902625517565e+18
14465.0	1.4615916448841725e+18
14466.0	1.4613517759938557e+18
14467.0	1.4610464608616445e+18
14468.0	1.4608112291938301e+18
14469.0	1.4605129151938557e+18
14470.0	1.4602460702179328e+18
14471.0	1.459998017401651e+18
14472.0	1.4597369186222077e+18
14473.0	1.459474148832051e+18
14474.0	1.4592072585576448e+18
14475.0	1.458933645652787e+18
14476.0	1.458550809716326e+18
14477.0	1.4583925720481787e+18
14478.0	1.4581210445512701e+18
14479.0	1.457853377491763e+18
14480.0	1.4575677890101245e+18
14481.0	1.457320851878707e+18
14482.0	1.4570479536832507e+18
14483.0	1.4567733492449275e+18
14484.0	1.4565021958799357e+18
14485.0	1.4562088009596928e+18
14486.0	1.455622281232384e+18
14487.0	1.455712478901043e+18
14488.0	1.4554368309198845e+18
14489.0	1.4551642061930493e+18
14490.0	1.4549044898562045e+18
14491.0	1.454641703288832e+18
14492.0	1.4543760025190397e+18
14493.0	1.4541040925016064e+18
14494.0	1.453817483965235e+18
14495.0	1.4535737898696704e+18
14496.0	1.4531461034016765e+18
14497.0	1.4530374642171901e+18
14498.0	1.4527717953241085e+18
14499.0	1.4525049738362875e+18
14500.0	1.4522374208618493e+18
14501.0	1.451914394022707e+18
14502.0	1.4513851718434816e+18
14503.0	1.4514139967782912e+18
14504.0	1.4511614258577408e+18
14505.0	1.4508507403386877e+18
14506.0	1.450535103863193e+18
14507.0	1.4500720996777981e+18
14508.0	1.4501014212182013e+18
14509.0	1.4498346215407613e+18
14510.0	1.4495637282226173e+18
14511.0	1.4493003091542013e+18
14512.0	1.4490157424050176e+18
14513.0	1.448767164461875e+18
14514.0	1.448457809376051e+18
14515.0	1.4482321927307264e+18
14516.0	1.4447389968433167e+18
14517.0	1.4476974575583232e+18
14518.0	1.4474340049354747e+18
14519.0	1.4471674183286781e+18
14520.0	1.4468997328142336e+18
14521.0	1.4466325791375357e+18
14522.0	1.4463679588204544e+18
14523.0	1.4459804168749053e+18
14524.0	1.4457179624964093e+18
14525.0	1.4455622481215485e+18
14526.0	1.445299699790643e+18
14527.0	1.4449933646036987e+18
14528.0	1.4446111309692925e+18
14529.0	1.444489284760371e+18
14530.0	1.444217198582169e+18
14531.0	1.4439680787349501e+18
14532.0	1.4435368019427325e+18
14533.0	1.4434267534721021e+18
14534.0	1.4431612171190267e+18
14535.0	1.442882807608115e+18
14536.0	1.4426247991918587e+18
14537.0	1.442348282150912e+18
14538.0	1.4420969007349757e+18
14539.0	1.4418310254821373e+18
14540.0	1.441565010978406e+18
14541.0	1.4412764780953597e+18
14542.0	1.4410329433833467e+18
14543.0	1.4406838950821885e+18
14544.0	1.4405006274854907e+18
14545.0	1.4402282527391741e+18
14546.0	1.4256105228074957e+18
14547.0	1.4264934472875963e+18
14548.0	1.4394208861290493e+18
14549.0	1.4390264017715197e+18
14550.0	1.4388970259480573e+18
14551.0	1.4386407237746685e+18
14552.0	1.438372167522713e+18
14553.0	1.4380982828269565e+18
14554.0	1.437844114715443e+18
14555.0	1.4375780096147456e+18
14556.0	1.437310121095987e+18
14557.0	1.437047364727603e+18
14558.0	1.436781281437286e+18
14559.0	1.4341413294571494e+18
14560.0	1.436244105179955e+18
14561.0	1.4359766881009664e+18
14562.0	1.4356915375046653e+18
14563.0	1.4354526886690813e+18
14564.0	1.4351756347572221e+18
14565.0	1.434924144289382e+18
14566.0	1.4346588210069501e+18
14567.0	1.4343928585125888e+18
14568.0	1.4341087917244413e+18
14569.0	1.433862461928243e+18
14570.0	1.4329344352583672e+18
14571.0	1.4333282804039675e+18
14572.0	1.4330153618374653e+18
14573.0	1.4327445406613501e+18
14574.0	1.4325026400501757e+18
14575.0	1.432267203700326e+18
14576.0	1.4319991927078907e+18
14577.0	1.4317326228783101e+18
14578.0	1.4314713244499965e+18
14579.0	1.4312097559085053e+18
14580.0	1.430944862122803e+18
14581.0	1.4306745375522813e+18
14582.0	1.4304136551989245e+18
14583.0	1.4301492177534973e+18
14584.0	1.429867790021427e+18
14585.0	1.4296184269045757e+18
14586.0	1.4293492750614523e+18
14587.0	1.4290856714436608e+18
14588.0	1.428822653350707e+18
14589.0	1.4285644016648192e+18
14590.0	1.42830597046272e+18
14591.0	1.4280457038331904e+18
14592.0	1.4277824223379453e+18
14593.0	1.427388427875123e+18
14594.0	1.4272708598562813e+18
14595.0	1.4270060885442557e+18
14596.0	1.4261640954380285e+18
14597.0	1.4258697307947003e+18
14598.0	1.4256942847361021e+18
14599.0	1.4254453444050941e+18
14600.0	1.425184269113753e+18
14601.0	1.424927285785395e+18
14602.0	1.4246598603177981e+18
14603.0	1.4244094536581115e+18
14604.0	1.4240949815214077e+18
14605.0	1.4238703664758781e+18
14606.0	1.4235472171630587e+18
14607.0	1.4233520981409787e+18
14608.0	1.4231106102493181e+18
14609.0	1.4228471676927997e+18
14610.0	1.4225571366043648e+18
14611.0	1.422331305210675e+18
14612.0	1.4220786604703744e+18
14613.0	1.4218203064434685e+18
14614.0	1.4215567934226432e+18
14615.0	1.4213001120841725e+18
14616.0	1.421042927429222e+18
14617.0	1.4207833855754237e+18
14618.0	1.420518879343411e+18
14619.0	1.4201961175842813e+18
14620.0	1.4198053158256637e+18
14621.0	1.4197467096547323e+18
14622.0	1.4194840069734397e+18
14623.0	1.4192280923537408e+18
14624.0	1.4188986415185917e+18
14625.0	1.418706042434355e+18
14626.0	1.4184464636706813e+18
14627.0	1.4181818618085373e+18
14628.0	1.4179306682974203e+18
14629.0	1.4176711230881787e+18
14630.0	1.4174092693340157e+18
14631.0	1.4171510713352187e+18
14632.0	1.4160675551051779e+18
14633.0	1.4164954093453307e+18
14634.0	1.4163674847510525e+18
14635.0	1.4158821249253368e+18
14636.0	1.4154042125058045e+18
14637.0	1.415592706205286e+18
14638.0	1.415327971803136e+18
14639.0	1.4150567983054845e+18
14640.0	1.414807487198003e+18
14641.0	1.4112440081973233e+18
14642.0	1.4142853550702587e+18
14643.0	1.4140307373293565e+18
14644.0	1.4137584129146877e+18
14645.0	1.4134811190886397e+18
14646.0	1.4132368428236797e+18
