# Flux units: erg / (cm m2 s)
# Wavelength units: Angstrom
wave	flux
14000.0	2.1325455420293112e+18
14001.0	2.1321902257602557e+18
14002.0	2.1318273630994424e+18
14003.0	2.131396832893337e+18
14004.0	2.1309649101783037e+18
14005.0	2.130532559644262e+18
14006.0	2.1300941424689147e+18
14007.0	2.129659553854259e+18
14008.0	2.129152017904435e+18
14009.0	2.1288003053813755e+18
14010.0	2.1283578448969725e+18
14011.0	2.1274413726957568e+18
14012.0	2.1275047100415995e+18
14013.0	2.127074767038054e+18
14014.0	2.1266380510724093e+18
14015.0	2.126209510644121e+18
14016.0	2.1257799065403384e+18
14017.0	2.1253484837863421e+18
14018.0	2.124916945269555e+18
14019.0	2.124485703709491e+18
14020.0	2.1240537289850877e+18
14021.0	2.123621638497894e+18
14022.0	2.1231812349001725e+18
14023.0	2.1227314629050365e+18
14024.0	2.1223054340259835e+18
14025.0	2.1218963350355963e+18
14026.0	2.121466722543206e+18
14027.0	2.121037695575654e+18
14028.0	2.1206005064925176e+18
14029.0	2.120167129192857e+18
14030.0	2.1168846702379028e+18
14031.0	2.1192145893326843e+18
14032.0	2.1188793671352317e+18
14033.0	2.1184012684886016e+18
14034.0	2.118018682532659e+18
14035.0	2.1175962406223867e+18
14036.0	2.1171580499394557e+18
14037.0	2.116739238618726e+18
14038.0	2.1163102049402875e+18
14039.0	2.1158773242462203e+18
14040.0	2.1154465256046587e+18
14041.0	2.1150208557580283e+18
14042.0	2.114585000463564e+18
14043.0	2.1141330407194621e+18
14044.0	2.1137275622522877e+18
14045.0	2.1133058031747064e+18
14046.0	2.1128746522116093e+18
14047.0	2.1124339684343803e+18
14048.0	2.1120190930485245e+18
14049.0	2.1115942805176317e+18
14050.0	2.1111665118412792e+18
14051.0	2.1107312554934267e+18
14052.0	2.110306815416729e+18
14053.0	2.1098828467798008e+18
14054.0	2.1094553868042237e+18
14055.0	2.1090278211321853e+18
14056.0	2.1086002974031867e+18
14057.0	2.1081729464795133e+18
14058.0	2.107745657631539e+18
14059.0	2.1073136879403008e+18
14060.0	2.1068912107978747e+18
14061.0	2.106458918984089e+18
14062.0	2.1060371867500547e+18
14063.0	2.1055954862735355e+18
14064.0	2.1047205007720445e+18
14065.0	2.1047498692886525e+18
14066.0	2.104330599949926e+18
14067.0	2.1038737563582461e+18
14068.0	2.103478060685721e+18
14069.0	2.1030459701985275e+18
14070.0	2.1026234410467325e+18
14071.0	2.102197548063129e+18
14072.0	2.1017740340887547e+18
14073.0	2.1013481964699643e+18
14074.0	2.1009222095339515e+18
14075.0	2.1004790846717947e+18
14076.0	2.1000379747532797e+18
14077.0	2.0989988409704445e+18
14078.0	2.099169671616921e+18
14079.0	2.0987848593244155e+18
14080.0	2.098370198686924e+18
14081.0	2.097945599226675e+18
14082.0	2.097518097308057e+18
14083.0	2.0970943434194936e+18
14084.0	2.096667559565721e+18
14085.0	2.0957271160782843e+18
14086.0	2.095763680342835e+18
14087.0	2.0953963062886397e+18
14088.0	2.0949553171660797e+18
14089.0	2.0945239564877821e+18
14090.0	2.0941159798931448e+18
14091.0	2.0937009249910776e+18
14092.0	2.0932777180397565e+18
14093.0	2.092853813156249e+18
14094.0	2.092429441866137e+18
14095.0	2.0920026580123645e+18
14096.0	2.0914605542866944e+18
14097.0	2.0911090061803517e+18
14098.0	2.090677103597977e+18
14099.0	2.0903106506129405e+18
14100.0	2.089880429107609e+18
14101.0	2.0894678605889533e+18
14102.0	2.0890450411913216e+18
14103.0	2.0886110464901117e+18
14104.0	2.0881974428172288e+18
14105.0	2.0877772171771901e+18
14106.0	2.0873549346504701e+18
14107.0	2.0869317260214267e+18
14108.0	2.0864971827052536e+18
14109.0	2.0860828827779064e+18
14110.0	2.0856602177306621e+18
14111.0	2.0852347911536637e+18
14112.0	2.0848122385137661e+18
14113.0	2.0843836494315517e+18
14114.0	2.083962850010726e+18
14115.0	2.0835439531261952e+18
14116.0	2.0830297230671867e+18
14117.0	2.077786943730484e+18
14118.0	2.0822646484631547e+18
14119.0	2.0817774246887421e+18
14120.0	2.0813746741968893e+18
14121.0	2.0809965241368573e+18
14122.0	2.080548547303833e+18
14123.0	2.0801181311827968e+18
14124.0	2.0796927582928893e+18
14125.0	2.0789442092466168e+18
14126.0	2.0789074151342077e+18
14127.0	2.0785037871939581e+18
14128.0	2.0780836823498747e+18
14129.0	2.0776548046995448e+18
14130.0	2.0772263968112635e+18
14131.0	2.0768230574391293e+18
14132.0	2.0763978456104955e+18
14133.0	2.075524826398719e+18
14134.0	2.0755624006516733e+18
14135.0	2.0751130766082043e+18
14136.0	2.0746360835801083e+18
14137.0	2.0742885938823163e+18
14138.0	2.073833396135526e+18
14139.0	2.0734659096739837e+18
14140.0	2.0730388724842493e+18
14141.0	2.072561845901721e+18
14142.0	2.0718548640858115e+18
14143.0	2.0717793095712765e+18
14144.0	2.0713738260709373e+18
14145.0	2.070957366915891e+18
14146.0	2.0705313028046843e+18
14147.0	2.0701157009653755e+18
14148.0	2.0696901351374843e+18
14149.0	2.0692726240509947e+18
14150.0	2.0688681455058936e+18
14151.0	2.0684294817054715e+18
14152.0	2.0680326250495992e+18
14153.0	2.0676147968737277e+18
14154.0	2.0671744201195515e+18
14155.0	2.0666518517841917e+18
14156.0	2.0663439412166648e+18
14157.0	2.0659443616186363e+18
14158.0	2.0655232987955197e+18
14159.0	2.065110382988492e+18
14160.0	2.064686989810073e+18
14161.0	2.064224693623193e+18
14162.0	2.063766935673241e+18
14163.0	2.0634326580330493e+18
14164.0	2.0628718007353336e+18
14165.0	2.0625421418627067e+18
14166.0	2.0621883422539773e+18
14167.0	2.0617623486070781e+18
14168.0	2.0613507280011256e+18
14169.0	2.060939189603532e+18
14170.0	2.0605209587744763e+18
14171.0	2.0601102122614781e+18
14172.0	2.0596967679721467e+18
14173.0	2.0592437965619197e+18
14174.0	2.0588583668678653e+18
14175.0	2.0584492091572224e+18
14176.0	2.058033421090816e+18
14177.0	2.0576189785571325e+18
14178.0	2.057203151903129e+18
14179.0	2.056781704881766e+18
14180.0	2.0563738524385277e+18
14181.0	2.0559588042473464e+18
14182.0	2.0555430816120827e+18
14183.0	2.0551284998275067e+18
14184.0	2.054708183590502e+18
14185.0	2.0542906003619835e+18
14186.0	2.0529639654948864e+18
14187.0	2.0534280920760315e+18
14188.0	2.0530502440058877e+18
14189.0	2.0526327027204093e+18
14190.0	2.052220021794406e+18
14191.0	2.0518019654483968e+18
14192.0	2.051389225802137e+18
14193.0	2.050828975839641e+18
14194.0	2.050563619002777e+18
14195.0	2.0501587042500608e+18
14196.0	2.0497455636283384e+18
14197.0	2.0492251813642237e+18
14198.0	2.048775209720217e+18
14199.0	2.048362783807897e+18
14200.0	2.0473923225255936e+18
14201.0	2.0475040738836472e+18
14202.0	2.0471237494964221e+18
14203.0	2.046704444925542e+18
14204.0	2.0462966495248381e+18
14205.0	2.0458834552160248e+18
14206.0	2.0453653378760701e+18
14207.0	2.0450591637503992e+18
14208.0	2.0446472814198781e+18
14209.0	2.044119310820966e+18
14210.0	2.0437419727781883e+18
14211.0	2.043405139968e+18
14212.0	2.0429966952890365e+18
14213.0	2.0425800616509437e+18
14214.0	2.042172116933017e+18
14215.0	2.041571460723507e+18
14216.0	2.0411131961016315e+18
14217.0	2.0407010772123645e+18
14218.0	2.0402779927347197e+18
14219.0	2.0398764552355835e+18
14220.0	2.0394593367359483e+18
14221.0	2.0390450166759424e+18
14222.0	2.038586814129766e+18
14223.0	2.038226817017446e+18
14224.0	2.0378121664462845e+18
14225.0	2.0357654299803658e+18
14226.0	2.0369708008079352e+18
14227.0	2.036576135256473e+18
14228.0	2.0323256292605962e+18
14229.0	2.0350724017749983e+18
14230.0	2.0353454794866683e+18
14231.0	2.0348901324226555e+18
14232.0	2.0345263352709112e+18
14233.0	2.034112221570662e+18
14234.0	2.0337051157135352e+18
14235.0	2.0331637870952445e+18
14236.0	2.0327420112404477e+18
14237.0	2.032327808620953e+18
14238.0	2.0319171560603643e+18
14239.0	2.031495658707353e+18
14240.0	2.0298320115138563e+18
14241.0	2.030665714997657e+18
14242.0	2.0302682845609976e+18
14243.0	2.0297341718233083e+18
14244.0	2.0294562958278653e+18
14245.0	2.0290345149399035e+18
14246.0	2.0286213726404605e+18
14247.0	2.0282219339710464e+18
14248.0	2.0278037115305984e+18
14249.0	2.027404534585753e+18
14250.0	2.026994459161395e+18
14251.0	2.0265866805379072e+18
14252.0	2.0261765883363325e+18
14253.0	2.025765590165094e+18
14254.0	2.0253527750213627e+18
14255.0	2.0249096719695872e+18
14256.0	2.0227540496941066e+18
14257.0	2.0239623447904246e+18
14258.0	2.023447020856934e+18
14259.0	2.023023854170931e+18
14260.0	2.0225766407012347e+18
14261.0	2.0222015289950203e+18
14262.0	2.021822779988377e+18
14263.0	2.0188343115448333e+18
14264.0	2.02041936922542e+18
14265.0	2.020593971390054e+18
14266.0	2.0202011043561472e+18
14267.0	2.01979464777728e+18
14268.0	2.0193848995086333e+18
14269.0	2.018969852995174e+18
14270.0	2.018568827201126e+18
14271.0	2.018157849162547e+18
14272.0	2.0177448394031101e+18
14273.0	2.017305974276096e+18
14274.0	2.0129435189510162e+18
14275.0	2.0160858696974336e+18
14276.0	2.0160919967367165e+18
14277.0	2.0156961567801336e+18
14278.0	2.0153028015292416e+18
14279.0	2.0148953198624768e+18
14280.0	2.0144829694476283e+18
14281.0	2.014081831246233e+18
14282.0	2.0136746582802427e+18
14283.0	2.0131439865495547e+18
14284.0	2.012717489586176e+18
14285.0	2.0123085801783293e+18
14286.0	2.011898395702067e+18
14287.0	2.011493418873651e+18
14288.0	2.0110840816467965e+18
14289.0	2.0098662101155822e+18
14290.0	2.0102682911965181e+18
14291.0	2.0098629352030203e+18
14292.0	2.009456564187955e+18
14293.0	2.0090469132271608e+18
14294.0	2.0085232929603584e+18
14295.0	2.0082197042036736e+18
14296.0	2.007169348141056e+18
14297.0	2.0074110591696893e+18
14298.0	2.0064396516524027e+18
14299.0	2.006582591855001e+18
14300.0	2.006191669300428e+18
14301.0	2.0057878081568765e+18
14302.0	2.005382443774771e+18
14303.0	2.0049445282381821e+18
14304.0	2.0045525789179901e+18
14305.0	2.0041554571821056e+18
14306.0	2.003708706763571e+18
14307.0	2.003306840431001e+18
14308.0	2.0029127822147581e+18
14309.0	2.002479445180416e+18
14310.0	2.0019179822252027e+18
14311.0	2.00126218937303e+18
14312.0	2.0010122809966587e+18
14313.0	2.0006534398345216e+18
14314.0	2.000318767929753e+18
14315.0	1.99994173858775e+18
14316.0	1.9995010732654587e+18
14317.0	1.9990804114178043e+18
14318.0	1.9987415535976443e+18
14319.0	1.998341636777574e+18
14320.0	1.9979378897190907e+18
14321.0	1.9975317988835325e+18
14322.0	1.997095349675622e+18
14323.0	1.9967091532627965e+18
14324.0	1.9963210241146877e+18
14325.0	1.9959082156818427e+18
14326.0	1.995513040103014e+18
14327.0	1.9951025049829368e+18
14328.0	1.994698615318118e+18
14329.0	1.9942997370077184e+18
14330.0	1.9938953389932536e+18
14331.0	1.9934853290000381e+18
14332.0	1.993086594973696e+18
14333.0	1.9926823110443005e+18
14334.0	1.9922779298070525e+18
14335.0	1.9918622189158392e+18
14336.0	1.991290211480371e+18
14337.0	1.99106214536151e+18
14338.0	1.990658707003801e+18
14339.0	1.9902439289257981e+18
14340.0	1.9898510618918907e+18
14341.0	1.9894385537712125e+18
14342.0	1.989025502068736e+18
14343.0	1.9884988333817853e+18
14344.0	1.988091400368947e+18
14345.0	1.9876913946296317e+18
14346.0	1.9872786902155261e+18
14347.0	1.986827480412979e+18
14348.0	1.9864717195476987e+18
14349.0	1.9860751195832317e+18
14350.0	1.9855284339998715e+18
14351.0	1.98511382537175e+18
14352.0	1.984859101934387e+18
14353.0	1.9844628928790525e+18
14354.0	1.9840420498374656e+18
14355.0	1.9836034917335035e+18
14356.0	1.9832124299280381e+18
14357.0	1.9828514731589632e+18
14358.0	1.9824489206382587e+18
14359.0	1.982031721607987e+18
14360.0	1.9816303065825275e+18
14361.0	1.981233998541619e+18
14362.0	1.9808368650616827e+18
14363.0	1.9804320409059325e+18
14364.0	1.9795723428036605e+18
14365.0	1.9795244337856507e+18
14366.0	1.979148078887731e+18
14367.0	1.9788245789310973e+18
14368.0	1.978422170694451e+18
14369.0	1.9780204067028987e+18
14370.0	1.9776185722470397e+18
14371.0	1.9772170448142333e+18
14372.0	1.9768097661517821e+18
14373.0	1.9764100590469117e+18
14374.0	1.9760103989182461e+18
14375.0	1.9756074504552443e+18
14376.0	1.9752066041774077e+18
14377.0	1.9748041204432896e+18
14378.0	1.974400475725824e+18
14379.0	1.9739368876933115e+18
14380.0	1.9734617300926461e+18
14381.0	1.9730494283317245e+18
14382.0	1.9726567928233981e+18
14383.0	1.9722518747152381e+18
14384.0	1.9718367745146872e+18
14385.0	1.9714521769705472e+18
14386.0	1.9710336693174272e+18
14387.0	1.9706481809031165e+18
14388.0	1.9702448599859197e+18
14389.0	1.9698445354795005e+18
14390.0	1.9694413991116792e+18
14391.0	1.9690416064430077e+18
14392.0	1.9686388878278653e+18
14393.0	1.9682386455298043e+18
14394.0	1.9678023053737981e+18
14395.0	1.9673567209717755e+18
14396.0	1.9669130944708603e+18
14397.0	1.9665128823717883e+18
14398.0	1.9661109992620024e+18
14399.0	1.9657095993360381e+18
14400.0	1.9652910816165883e+18
14401.0	1.964900986178764e+18
14402.0	1.964501233775411e+18
14403.0	1.963117316459723e+18
14404.0	1.9598165636284393e+18
14405.0	1.9619636463009756e+18
14406.0	1.9628943288041472e+18
14407.0	1.9611090602164227e+18
14408.0	1.9620553774071805e+18
14409.0	1.9616851831029755e+18
14410.0	1.9612684387352573e+18
14411.0	1.9609005294878715e+18
14412.0	1.960499191637606e+18
14413.0	1.9601021001007101e+18
14414.0	1.9596994989260797e+18
14415.0	1.9593000569012221e+18
14416.0	1.9588902130024445e+18
14417.0	1.9584598270803963e+18
14418.0	1.9580449852489728e+18
14419.0	1.9576961282080765e+18
14420.0	1.957216507867955e+18
14421.0	1.9567646622089216e+18
14422.0	1.956354096889856e+18
14423.0	1.9558976861503483e+18
14424.0	1.949793210544944e+18
14425.0	1.955122639169126e+18
14426.0	1.954760298279731e+18
14427.0	1.9543656427945984e+18
14428.0	1.9539463180910587e+18
14429.0	1.953563621405491e+18
14430.0	1.9531617315848187e+18
14431.0	1.9520031473795072e+18
14432.0	1.952356655064678e+18
14433.0	1.9509127642349555e+18
14434.0	1.9515449096011773e+18
14435.0	1.9510706210603003e+18
14436.0	1.950763745647001e+18
14437.0	1.9503688485699581e+18
14438.0	1.949868853978726e+18
14439.0	1.9495552962002941e+18
14440.0	1.949170925148569e+18
14441.0	1.94876636439511e+18
14442.0	1.9483625133178877e+18
14443.0	1.9479284850622461e+18
14444.0	1.947568920802099e+18
14445.0	1.9471709383950333e+18
14446.0	1.9451677673259016e+18
14447.0	1.9463548425994237e+18
14448.0	1.9459755953094653e+18
14449.0	1.9455770978418683e+18
14450.0	1.945172335761817e+18
14451.0	1.944776817927782e+18
14452.0	1.9443756092620797e+18
14453.0	1.943960852994457e+18
14454.0	1.9435762789384187e+18
14455.0	1.943168894579507e+18
14456.0	1.9427645385080827e+18
14457.0	1.9423662121680893e+18
14458.0	1.9419631160655872e+18
14459.0	1.9415533577306107e+18
14460.0	1.9411306004086784e+18
14461.0	1.9406314681663483e+18
14462.0	1.9400514999418877e+18
14463.0	1.9398895461203965e+18
14464.0	1.9395496598568952e+18
14465.0	1.9391512949293048e+18
14466.0	1.9387780421386235e+18
14467.0	1.9383589271502845e+18
14468.0	1.937985731402137e+18
14469.0	1.9375001937379325e+18
14470.0	1.9370376492482552e+18
14471.0	1.9366656530710525e+18
14472.0	1.9362719136219133e+18
14473.0	1.9358771994165243e+18
14474.0	1.9354829029638144e+18
14475.0	1.9350818100609021e+18
14476.0	1.93461877735424e+18
14477.0	1.934284707751526e+18
14478.0	1.933888040678195e+18
14479.0	1.9334883436396536e+18
14480.0	1.9330766458585083e+18
14481.0	1.9326964338786296e+18
14482.0	1.9322947218964472e+18
14483.0	1.931890317171097e+18
14484.0	1.9314914875146237e+18
14485.0	1.9310670675705853e+18
14486.0	1.9304345614942205e+18
14487.0	1.930302358709862e+18
14488.0	1.9298457281888253e+18
14489.0	1.9294372432445435e+18
14490.0	1.9290961288888315e+18
14491.0	1.928713957330124e+18
14492.0	1.9283168389496832e+18
14493.0	1.927904240232038e+18
14494.0	1.9274992449486843e+18
14495.0	1.927120794576486e+18
14496.0	1.9266020027924477e+18
14497.0	1.9263254387752955e+18
14498.0	1.925928837133107e+18
14499.0	1.925531032564531e+18
14500.0	1.9251324159787003e+18
14501.0	1.9246976981794808e+18
14502.0	1.9241055715065853e+18
14503.0	1.9239071507283963e+18
14504.0	1.9235347384762368e+18
14505.0	1.923109719585587e+18
14506.0	1.922679810136473e+18
14507.0	1.9221234004787192e+18
14508.0	1.9219480919932925e+18
14509.0	1.9215511380295677e+18
14510.0	1.921150551798579e+18
14511.0	1.9207548712255483e+18
14512.0	1.9203427607248893e+18
14513.0	1.9199585104691197e+18
14514.0	1.9195300606377984e+18
14515.0	1.91915899224064e+18
14516.0	1.9167091361841167e+18
14517.0	1.9183562846633981e+18
14518.0	1.917968492737331e+18
14519.0	1.917571530384998e+18
14520.0	1.91717373420503e+18
14521.0	1.9167750924533755e+18
14522.0	1.9163700518715384e+18
14523.0	1.9158430325407741e+18
14524.0	1.9155022906392568e+18
14525.0	1.9151745057816573e+18
14526.0	1.9146607320629243e+18
14527.0	1.9142459707621373e+18
14528.0	1.9137459392610304e+18
14529.0	1.9134580690780155e+18
14530.0	1.9130531576807421e+18
14531.0	1.9126691272065021e+18
14532.0	1.9121793197408253e+18
14533.0	1.9118734526382075e+18
14534.0	1.9114775707385853e+18
14535.0	1.911068760316313e+18
14536.0	1.9106769485692925e+18
14537.0	1.9102711765008381e+18
14538.0	1.9098841194168317e+18
14539.0	1.9094857947545597e+18
14540.0	1.909087240244428e+18
14541.0	1.9086211792502781e+18
14542.0	1.9080903246479355e+18
14543.0	1.9076392608071675e+18
14544.0	1.9072929807466496e+18
14545.0	1.906880137081651e+18
14546.0	1.8999726317764564e+18
14547.0	1.900130503701294e+18
14548.0	1.9056804201758715e+18
14549.0	1.9051916478644221e+18
14550.0	1.9048957665607677e+18
14551.0	1.9045073320673275e+18
14552.0	1.904108254108057e+18
14553.0	1.903704528859955e+18
14554.0	1.9033123580805117e+18
14555.0	1.9029132885098493e+18
14556.0	1.9025128817950715e+18
14557.0	1.9021149832740861e+18
14558.0	1.9017109325479933e+18
14559.0	1.8997889883701212e+18
14560.0	1.9008973835337728e+18
14561.0	1.9005116971483133e+18
14562.0	1.9000832859045883e+18
14563.0	1.8997091741204477e+18
14564.0	1.899256690927206e+18
14565.0	1.898779815339622e+18
14566.0	1.8983822020313088e+18
14567.0	1.8979761531387904e+18
14568.0	1.8975372779454461e+18
14569.0	1.897178346186342e+18
14570.0	1.896332987570585e+18
14571.0	1.896380676807065e+18
14572.0	1.8959311313043453e+18
14573.0	1.8955285485846528e+18
14574.0	1.8950570249289725e+18
14575.0	1.8947560534179837e+18
14576.0	1.8943582874370045e+18
14577.0	1.8939883196252155e+18
14578.0	1.8935926658957312e+18
14579.0	1.893197485283737e+18
14580.0	1.8927970248818683e+18
14581.0	1.8923894240968696e+18
14582.0	1.8919864051695616e+18
14583.0	1.891600547656499e+18
14584.0	1.8911629508870136e+18
14585.0	1.8908005563105277e+18
14586.0	1.8903997972742144e+18
14587.0	1.8900020279377915e+18
14588.0	1.8896034851717115e+18
14589.0	1.8892100728782843e+18
14590.0	1.8887923252330493e+18
14591.0	1.8882988821446653e+18
14592.0	1.8879028140179453e+18
14593.0	1.88741007221719e+18
14594.0	1.8871222607544315e+18
14595.0	1.886722191261696e+18
14596.0	1.8859369554771955e+18
14597.0	1.8854572076302328e+18
14598.0	1.8854968052154363e+18
14599.0	1.885146488556748e+18
14600.0	1.8847426844557307e+18
14601.0	1.8843502452408312e+18
14602.0	1.8839428826923005e+18
14603.0	1.883556181285273e+18
14604.0	1.883105157709824e+18
14605.0	1.8826999963320315e+18
14606.0	1.8823032487280637e+18
14607.0	1.8819730664062973e+18
14608.0	1.8815805080731645e+18
14609.0	1.8811699377209344e+18
14610.0	1.880713255190528e+18
14611.0	1.8803691226136573e+18
14612.0	1.8800012418875387e+18
14613.0	1.8796134382174203e+18
14614.0	1.879217972392755e+18
14615.0	1.8788240332947456e+18
14616.0	1.8784322869788672e+18
14617.0	1.878036020880998e+18
14618.0	1.8776076247367672e+18
14619.0	1.8769083721842678e+18
14620.0	1.875757232029696e+18
14621.0	1.876448112751411e+18
14622.0	1.8760533230485504e+18
14623.0	1.875660523123507e+18
14624.0	1.8752106169106427e+18
14625.0	1.8748640096944125e+18
14626.0	1.8744689666555904e+18
14627.0	1.8740683451924475e+18
14628.0	1.8736765737107453e+18
14629.0	1.87327803597783e+18
14630.0	1.8728720843931643e+18
14631.0	1.8724825744801787e+18
14632.0	1.8716324930781184e+18
14633.0	1.8716063961186304e+18
14634.0	1.8712742307299325e+18
14635.0	1.8707353784287222e+18
14636.0	1.8700565018050555e+18
14637.0	1.87009523033047e+18
14638.0	1.8696707600547837e+18
14639.0	1.8692642279784443e+18
14640.0	1.8688880777625592e+18
14641.0	1.8667325662167025e+18
14642.0	1.8680862946099197e+18
14643.0	1.8676933873106941e+18
14644.0	1.8672785605787645e+18
14645.0	1.8668747380228096e+18
14646.0	1.866453655067033e+18
14647.0	1.8660107785076733e+18
14648.0	1.865663063995187e+18
