# Flux units: erg / (cm m2 s)
# Wavelength units: Angstrom
wave	flux
14000.0	2.0974024016265216e+18
14001.0	2.0968296929034237e+18
14002.0	2.0963717218828288e+18
14003.0	2.0958661555781627e+18
14004.0	2.0953572069867517e+18
14005.0	2.0948435607748603e+18
14006.0	2.0943160163172347e+18
14007.0	2.0937964443926525e+18
14008.0	2.0931147642961917e+18
14009.0	2.0927843303161848e+18
14010.0	2.0922436744642555e+18
14011.0	2.0908129520713725e+18
14012.0	2.091239680560332e+18
14013.0	2.0907328123437053e+18
14014.0	2.0902068600438784e+18
14015.0	2.0897025839071227e+18
14016.0	2.0891935195529216e+18
14017.0	2.0886788516085755e+18
14018.0	2.0881568520208384e+18
14019.0	2.087656354113126e+18
14020.0	2.087139276960563e+18
14021.0	2.0866263689461757e+18
14022.0	2.0861116187934715e+18
14023.0	2.085559785960243e+18
14024.0	2.085055843690086e+18
14025.0	2.084577156163174e+18
14026.0	2.0840636928229373e+18
14027.0	2.0835514726744061e+18
14028.0	2.0830330634108925e+18
14029.0	2.0825171858292733e+18
14030.0	2.080940362406298e+18
14031.0	2.0814639440855035e+18
14032.0	2.0809967019753464e+18
14033.0	2.0803995941470203e+18
14034.0	2.079980833157939e+18
14035.0	2.0794642240897021e+18
14036.0	2.078957043816857e+18
14037.0	2.0784406461415421e+18
14038.0	2.0779417387139072e+18
14039.0	2.0774249400631293e+18
14040.0	2.0769005715324925e+18
14041.0	2.0764070428803067e+18
14042.0	2.0758870615916536e+18
14043.0	2.075334628134092e+18
14044.0	2.07486825005056e+18
14045.0	2.0743668914716667e+18
14046.0	2.073857052010086e+18
14047.0	2.0733418690052096e+18
14048.0	2.0728455536574461e+18
14049.0	2.0723426951954427e+18
14050.0	2.0718334580359165e+18
14051.0	2.0713057357398008e+18
14052.0	2.070811997372416e+18
14053.0	2.0703084242010107e+18
14054.0	2.0698072870813693e+18
14055.0	2.0692870658785277e+18
14056.0	2.0687935691030525e+18
14057.0	2.0682808859033597e+18
14058.0	2.067778977031782e+18
14059.0	2.0672737395605501e+18
14060.0	2.066767953474355e+18
14061.0	2.0662502555647997e+18
14062.0	2.0657561497763837e+18
14063.0	2.0652217518260221e+18
14064.0	2.0646083080224763e+18
14065.0	2.0642267941306365e+18
14066.0	2.0637269656338427e+18
14067.0	2.063191284226457e+18
14068.0	2.062724067282124e+18
14069.0	2.0622108857991165e+18
14070.0	2.0617097470017533e+18
14071.0	2.0611999327059965e+18
14072.0	2.060698470108365e+18
14073.0	2.060195024443801e+18
14074.0	2.0596908120604667e+18
14075.0	2.0591550601887744e+18
14076.0	2.0586438701613053e+18
14077.0	2.0579073336016893e+18
14078.0	2.0576531319357437e+18
14079.0	2.0571553620033533e+18
14080.0	2.056673042209177e+18
14081.0	2.0561685848784893e+18
14082.0	2.0556018907873275e+18
14083.0	2.0551578264010747e+18
14084.0	2.054662183819673e+18
14085.0	2.0535690357899261e+18
14086.0	2.0536320107479037e+18
14087.0	2.0531560377745403e+18
14088.0	2.052631063586406e+18
14089.0	2.0521057907638272e+18
14090.0	2.0516428872417277e+18
14091.0	2.0511496505131003e+18
14092.0	2.050645382764953e+18
14093.0	2.0501467756494843e+18
14094.0	2.0496461233913853e+18
14095.0	2.0491457798340605e+18
14096.0	2.0485785102843901e+18
14097.0	2.0480817352409083e+18
14098.0	2.0475850256285693e+18
14099.0	2.0471357552721915e+18
14100.0	2.046609128528281e+18
14101.0	2.046138960471654e+18
14102.0	2.0456329898360827e+18
14103.0	2.0451172296949755e+18
14104.0	2.0446331902361597e+18
14105.0	2.0441098702815227e+18
14106.0	2.0436398465089533e+18
14107.0	2.043055345080729e+18
14108.0	2.042613607694336e+18
14109.0	2.0421347020636155e+18
14110.0	2.041576019093094e+18
14111.0	2.0410099088490496e+18
14112.0	2.0406295542628347e+18
14113.0	2.0401223102365693e+18
14114.0	2.039615463830323e+18
14115.0	2.0391460440375293e+18
14116.0	2.0384494640955387e+18
14117.0	2.0364403102711805e+18
14118.0	2.0376548045488128e+18
14119.0	2.0371237100322816e+18
14120.0	2.0366398383456253e+18
14121.0	2.0361207680598016e+18
14122.0	2.0356432062840827e+18
14123.0	2.0350857497280507e+18
14124.0	2.0346058156539901e+18
14125.0	2.0333753092014072e+18
14126.0	2.0336713381445627e+18
14127.0	2.033191979529011e+18
14128.0	2.0326904884101115e+18
14129.0	2.0321743507816445e+18
14130.0	2.0316575856852987e+18
14131.0	2.0312027822030845e+18
14132.0	2.030699224131174e+18
14133.0	2.0292775513685996e+18
14134.0	2.0297195773231101e+18
14135.0	2.0291912594358264e+18
14136.0	2.028583184341401e+18
14137.0	2.0282329666682877e+18
14138.0	2.0277162904911864e+18
14139.0	2.0272478689427456e+18
14140.0	2.0266437817925627e+18
14141.0	2.0262558707482621e+18
14142.0	2.0255526570950656e+18
14143.0	2.0249544788803584e+18
14144.0	2.0247800025448443e+18
14145.0	2.0242855914110973e+18
14146.0	2.0237892710301693e+18
14147.0	2.0232972120621048e+18
14148.0	2.022796311501209e+18
14149.0	2.0222985432465403e+18
14150.0	2.021820221462937e+18
14151.0	2.0212994868772861e+18
14152.0	2.0208354894807035e+18
14153.0	2.0203468446760952e+18
14154.0	2.0198065897996283e+18
14155.0	2.0185222318391296e+18
14156.0	2.018779780559666e+18
14157.0	2.0183745889828861e+18
14158.0	2.0178618202193917e+18
14159.0	2.0173935345663997e+18
14160.0	2.0168972158631933e+18
14161.0	2.0163023880585216e+18
14162.0	2.015735620147609e+18
14163.0	2.0154312294399997e+18
14164.0	2.014853353334374e+18
14165.0	2.0133279789219845e+18
14166.0	2.0139343997829115e+18
14167.0	2.013441392902144e+18
14168.0	2.0129547496194043e+18
14169.0	2.0124879588163581e+18
14170.0	2.011983991380377e+18
14171.0	2.0114899225018368e+18
14172.0	2.011020922139443e+18
14173.0	2.010036401550131e+18
14174.0	2.0100265147367424e+18
14175.0	2.0095538837848064e+18
14176.0	2.0090481614520315e+18
14177.0	2.0085657477054464e+18
14178.0	2.0080708533878776e+18
14179.0	2.0074943362367483e+18
14180.0	2.0071122233982973e+18
14181.0	2.0066224981409787e+18
14182.0	2.0061347458842621e+18
14183.0	2.005647887853158e+18
14184.0	2.005149579372134e+18
14185.0	2.0046707525943293e+18
14186.0	2.003812821132902e+18
14187.0	2.0036566185410552e+18
14188.0	2.0032037159174147e+18
14189.0	2.0027079928053755e+18
14190.0	2.0022349709443064e+18
14191.0	2.0017473461944317e+18
14192.0	2.001247891829555e+18
14193.0	2.0007223757373437e+18
14194.0	2.0002890001154045e+18
14195.0	1.9998080023658493e+18
14196.0	1.9993219529965563e+18
14197.0	1.9988332830261245e+18
14198.0	1.998342923590041e+18
14199.0	1.9978321378934781e+18
14200.0	1.9971877988466688e+18
14201.0	1.996888288631193e+18
14202.0	1.9964073043034112e+18
14203.0	1.9958046130176e+18
14204.0	1.9954245168005112e+18
14205.0	1.9949459601358845e+18
14206.0	1.9942472427765755e+18
14207.0	1.993982744933171e+18
14208.0	1.9934982927548408e+18
14209.0	1.9927764127711232e+18
14210.0	1.9923728955604987e+18
14211.0	1.992034071294771e+18
14212.0	1.9915619570810875e+18
14213.0	1.9910632123924477e+18
14214.0	1.9905956062167035e+18
14215.0	1.9900783227043837e+18
14216.0	1.9896274148917245e+18
14217.0	1.9891485545594877e+18
14218.0	1.988644350564761e+18
14219.0	1.9881765933940733e+18
14220.0	1.987699870479155e+18
14221.0	1.9872102811172861e+18
14222.0	1.9866590891737088e+18
14223.0	1.9862481044242432e+18
14224.0	1.985774290678579e+18
14225.0	1.9847636177649664e+18
14226.0	1.9848110469545981e+18
14227.0	1.9843287640702973e+18
14228.0	1.9827338631970819e+18
14229.0	1.9831474131828726e+18
14230.0	1.982886138242662e+18
14231.0	1.9823434892574717e+18
14232.0	1.9819239078625275e+18
14233.0	1.9814268979380221e+18
14234.0	1.9809638920749053e+18
14235.0	1.9804783560884221e+18
14236.0	1.9799919996960763e+18
14237.0	1.9795167850528765e+18
14238.0	1.979039152812851e+18
14239.0	1.9785471575982077e+18
14240.0	1.9758370315567107e+18
14241.0	1.977602435920691e+18
14242.0	1.9771250805047296e+18
14243.0	1.9763761673928701e+18
14244.0	1.9761699770859515e+18
14245.0	1.975649945465651e+18
14246.0	1.9751497042493437e+18
14247.0	1.9747205766184955e+18
14248.0	1.9742327169875963e+18
14249.0	1.9737686742925312e+18
14250.0	1.9732956742418427e+18
14251.0	1.9728192835158016e+18
14252.0	1.9723397822939133e+18
14253.0	1.9718606786920443e+18
14254.0	1.971379882269081e+18
14255.0	1.9708581695717373e+18
14256.0	1.9700981147107328e+18
14257.0	1.9699379023642621e+18
14258.0	1.9694764014174205e+18
14259.0	1.9689497142755325e+18
14260.0	1.968508958356275e+18
14261.0	1.9680028518252544e+18
14262.0	1.967568972886835e+18
14263.0	1.966600761429197e+18
14264.0	1.966525940079001e+18
14265.0	1.9661088467451901e+18
14266.0	1.965664010607001e+18
14267.0	1.9651859488702461e+18
14268.0	1.9647094658695163e+18
14269.0	1.9642220894224381e+18
14270.0	1.9637658162561021e+18
14271.0	1.9632692593164288e+18
14272.0	1.962813028093132e+18
14273.0	1.9623397260525563e+18
14274.0	1.9611249096523779e+18
14275.0	1.9613272462327803e+18
14276.0	1.9607966869094397e+18
14277.0	1.9603756140199933e+18
14278.0	1.9599692614598653e+18
14279.0	1.9594923623841787e+18
14280.0	1.9590090292461565e+18
14281.0	1.9585480601370621e+18
14282.0	1.9580741943820283e+18
14283.0	1.9576013570703355e+18
14284.0	1.95712868417536e+18
14285.0	1.9566555884945405e+18
14286.0	1.9561761040498683e+18
14287.0	1.9557036576473083e+18
14288.0	1.9552336657514493e+18
14289.0	1.9533257590702052e+18
14290.0	1.9542637044301821e+18
14291.0	1.953814274690252e+18
14292.0	1.953343588217651e+18
14293.0	1.9528729017450493e+18
14294.0	1.952162057814016e+18
14295.0	1.9518977428422653e+18
14296.0	1.9502911717376005e+18
14297.0	1.950989422690304e+18
14298.0	1.9501437855727608e+18
14299.0	1.9500099688202237e+18
14300.0	1.9495584587055101e+18
14301.0	1.9490621366468605e+18
14302.0	1.9486255532212221e+18
14303.0	1.948093343019827e+18
14304.0	1.9476644553031677e+18
14305.0	1.9472069976653821e+18
14306.0	1.9464995091775488e+18
14307.0	1.9462124359122941e+18
14308.0	1.9458023520993275e+18
14309.0	1.9453198158790648e+18
14310.0	1.9437134427455478e+18
14311.0	1.9440208382525437e+18
14312.0	1.9438260262535165e+18
14313.0	1.9433657752092672e+18
14314.0	1.9429777467244541e+18
14315.0	1.9425179654422528e+18
14316.0	1.9419628090425341e+18
14317.0	1.9412888246550525e+18
14318.0	1.941114021163827e+18
14319.0	1.9406482806145021e+18
14320.0	1.9401803690934272e+18
14321.0	1.939703580747366e+18
14322.0	1.9391704813535232e+18
14323.0	1.9387460412768248e+18
14324.0	1.9383016463794173e+18
14325.0	1.9378237440262144e+18
14326.0	1.937376042339532e+18
14327.0	1.9368894862983163e+18
14328.0	1.936427012272947e+18
14329.0	1.9359759350104061e+18
14330.0	1.9355068474064893e+18
14331.0	1.9350291245694979e+18
14332.0	1.934570796194201e+18
14333.0	1.9341081057427453e+18
14334.0	1.9336426470506493e+18
14335.0	1.9331089252220925e+18
14336.0	1.93261258974167e+18
14337.0	1.932238721227161e+18
14338.0	1.9317730008104955e+18
14339.0	1.9312881526898683e+18
14340.0	1.9308485611094016e+18
14341.0	1.930374913458176e+18
14342.0	1.92990931887063e+18
14343.0	1.9293966977466365e+18
14344.0	1.9289503164268536e+18
14345.0	1.9285215226626043e+18
14346.0	1.928055579108966e+18
14347.0	1.9275570726567933e+18
14348.0	1.927118689035878e+18
14349.0	1.9266661605441533e+18
14350.0	1.9261602352070656e+18
14351.0	1.9256864248168443e+18
14352.0	1.925259686261555e+18
14353.0	1.9248089948749821e+18
14354.0	1.924340034777907e+18
14355.0	1.9238746096402432e+18
14356.0	1.923414737761075e+18
14357.0	1.922959548402892e+18
14358.0	1.922495086277427e+18
14359.0	1.9220029350346752e+18
14360.0	1.9215676988194808e+18
14361.0	1.9211076910448635e+18
14362.0	1.9206435812409344e+18
14363.0	1.9201830164627453e+18
14364.0	1.9195659689132032e+18
14365.0	1.919232296930508e+18
14366.0	1.918771039253299e+18
14367.0	1.9183314107629563e+18
14368.0	1.917871392922009e+18
14369.0	1.91741332291584e+18
14370.0	1.9169514595811325e+18
14371.0	1.9164896683884541e+18
14372.0	1.9160114489458683e+18
14373.0	1.915563316084736e+18
14374.0	1.9150954330849277e+18
14375.0	1.9146390676439035e+18
14376.0	1.9141792863617021e+18
14377.0	1.9137210905264125e+18
14378.0	1.9132569488457725e+18
14379.0	1.9128017477435387e+18
14380.0	1.912336015582822e+18
14381.0	1.9118587474083835e+18
14382.0	1.911415463162675e+18
14383.0	1.9108780520243197e+18
14384.0	1.9104546705899512e+18
14385.0	1.91004362712023e+18
14386.0	1.909550038070067e+18
14387.0	1.9091220026359805e+18
14388.0	1.9086574465581056e+18
14389.0	1.9082050942271483e+18
14390.0	1.9077451669831677e+18
14391.0	1.907276440089395e+18
14392.0	1.9067746184593403e+18
14393.0	1.9063736513855483e+18
14394.0	1.905846972632268e+18
14395.0	1.905284388959027e+18
14396.0	1.904991584596787e+18
14397.0	1.9045418209902587e+18
14398.0	1.9040300672483325e+18
14399.0	1.90361866642391e+18
14400.0	1.9030328010080253e+18
14401.0	1.9026979579756541e+18
14402.0	1.902245179503411e+18
14403.0	1.8866390316351296e+18
14404.0	1.8672799816089562e+18
14405.0	1.8986305484488648e+18
14406.0	1.900424063038259e+18
14407.0	1.8771813391663204e+18
14408.0	1.899373369753599e+18
14409.0	1.8990181172379643e+18
14410.0	1.8985745377132536e+18
14411.0	1.8981395464454141e+18
14412.0	1.8976812868567035e+18
14413.0	1.8972299042488315e+18
14414.0	1.8967747803217917e+18
14415.0	1.8963227333361661e+18
14416.0	1.8958514898599933e+18
14417.0	1.8953367178969083e+18
14418.0	1.8948321984905216e+18
14419.0	1.8945013417246715e+18
14420.0	1.894038305662566e+18
14421.0	1.8935929645301755e+18
14422.0	1.8931285544140792e+18
14423.0	1.8926684510093312e+18
14424.0	1.818805526121647e+18
14425.0	1.891761499878195e+18
14426.0	1.891320133268275e+18
14427.0	1.8908689939300347e+18
14428.0	1.8903360321093627e+18
14429.0	1.8899546138476541e+18
14430.0	1.8895099521925115e+18
14431.0	1.888809573888819e+18
14432.0	1.8885165715554304e+18
14433.0	1.8707357945036705e+18
14434.0	1.8876673189478397e+18
14435.0	1.887190559123046e+18
14436.0	1.886791541561753e+18
14437.0	1.8863384409669624e+18
14438.0	1.8853179433156605e+18
14439.0	1.8852842160783355e+18
14440.0	1.8849815383244797e+18
14441.0	1.8845172590706683e+18
14442.0	1.8840639907037181e+18
14443.0	1.883547792677273e+18
14444.0	1.8831657603694587e+18
14445.0	1.8827198253236221e+18
14446.0	1.8642193610702912e+18
14447.0	1.8817629871407096e+18
14448.0	1.881370891858739e+18
14449.0	1.880916556460851e+18
14450.0	1.8804536361615355e+18
14451.0	1.8800033205846013e+18
14452.0	1.8795434050846715e+18
14453.0	1.8787186287575037e+18
14454.0	1.878652591957606e+18
14455.0	1.8781925237850112e+18
14456.0	1.8776723394920443e+18
14457.0	1.877173512595046e+18
14458.0	1.8767388518383608e+18
14459.0	1.8762847077007355e+18
14460.0	1.8759554112159741e+18
14461.0	1.8754575154544637e+18
14462.0	1.8747559006699517e+18
14463.0	1.8745940709998587e+18
14464.0	1.8741591988502525e+18
14465.0	1.8736825027788797e+18
14466.0	1.8732495868526595e+18
14467.0	1.8725351156875261e+18
14468.0	1.8723290226884603e+18
14469.0	1.8718755462840315e+18
14470.0	1.8714208384319483e+18
14471.0	1.8709814750216187e+18
14472.0	1.8705467521892347e+18
14473.0	1.8701235955695613e+18
14474.0	1.8696762747256824e+18
14475.0	1.8692021438906365e+18
14476.0	1.8675932709519365e+18
14477.0	1.8683331126231037e+18
14478.0	1.8678788007133181e+18
14479.0	1.8674195563020283e+18
14480.0	1.8669657460310013e+18
14481.0	1.8665503555846136e+18
14482.0	1.8660963909631992e+18
14483.0	1.8656334203322363e+18
14484.0	1.865193721377587e+18
14485.0	1.864689884803891e+18
14486.0	1.8637992579039235e+18
14487.0	1.8638645850275837e+18
14488.0	1.863341506664857e+18
14489.0	1.8629495741218813e+18
14490.0	1.862491188704051e+18
14491.0	1.8620838060228603e+18
14492.0	1.8616391678558205e+18
14493.0	1.861171551613747e+18
14494.0	1.860712107553587e+18
14495.0	1.8603051392696315e+18
14496.0	1.8596250362314752e+18
14497.0	1.859410135194009e+18
14498.0	1.858963124728627e+18
14499.0	1.8585268030275581e+18
14500.0	1.8580818309939197e+18
14501.0	1.8570495087607805e+18
14502.0	1.856253909689959e+18
14503.0	1.8566761334964221e+18
14504.0	1.8562905712623616e+18
14505.0	1.8552726002597875e+18
14506.0	1.854169253360435e+18
14507.0	1.8545522251923453e+18
14508.0	1.8545304013897723e+18
14509.0	1.854086071923507e+18
14510.0	1.8536405395308544e+18
14511.0	1.8532013975797755e+18
14512.0	1.852726088984166e+18
14513.0	1.852314657960755e+18
14514.0	1.8516446531289088e+18
14515.0	1.8514081749139456e+18
14516.0	1.8475462711836698e+18
14517.0	1.8505437456367616e+18
14518.0	1.8500999530414075e+18
14519.0	1.8496562007113725e+18
14520.0	1.8492160303169533e+18
14521.0	1.8487572674117627e+18
14522.0	1.8483230864834552e+18
14523.0	1.8465772426756088e+18
14524.0	1.846069931540479e+18
14525.0	1.846995439950233e+18
14526.0	1.8465583464972283e+18
14527.0	1.8459477212659707e+18
14528.0	1.8454144591331325e+18
14529.0	1.8452198300057597e+18
14530.0	1.844764545017446e+18
14531.0	1.8443538068930555e+18
14532.0	1.841606457242419e+18
14533.0	1.8434608865476603e+18
14534.0	1.8430371293036541e+18
14535.0	1.8425715565264893e+18
14536.0	1.842145915201126e+18
14537.0	1.841687004656435e+18
14538.0	1.8412642154577915e+18
14539.0	1.840830358329753e+18
14540.0	1.8403899647983613e+18
14541.0	1.839904970715955e+18
14542.0	1.839502299077017e+18
14543.0	1.838222702490419e+18
14544.0	1.8386270216519675e+18
14545.0	1.8381593886326781e+18
14546.0	1.778155205846615e+18
14547.0	1.7827147498389294e+18
14548.0	1.836843761296998e+18
14549.0	1.8362255594749947e+18
14550.0	1.8359790451294205e+18
14551.0	1.8355587322478587e+18
14552.0	1.83508709450711e+18
14553.0	1.8346380741312507e+18
14554.0	1.8342419355402237e+18
14555.0	1.8337981613998077e+18
14556.0	1.8333312498008061e+18
14557.0	1.8329282375843837e+18
14558.0	1.8324894093672443e+18
14559.0	1.8293375090294735e+18
14560.0	1.8314447340699643e+18
14561.0	1.8311647810551803e+18
14562.0	1.8306871169384443e+18
14563.0	1.8302988904824832e+18
14564.0	1.8298330593361917e+18
14565.0	1.8294272352583675e+18
14566.0	1.8289904588947453e+18
14567.0	1.8285490486640637e+18
14568.0	1.8279882031103997e+18
14569.0	1.827677349819187e+18
14570.0	1.8264722088394744e+18
14571.0	1.8267985844109307e+18
14572.0	1.8262682666795008e+18
14573.0	1.825841450949017e+18
14574.0	1.825413128624537e+18
14575.0	1.8250482426314752e+18
14576.0	1.824614147266969e+18
14577.0	1.824170777457459e+18
14578.0	1.8237481174433787e+18
14579.0	1.8233114736197627e+18
14580.0	1.822880773963776e+18
14581.0	1.8223468524863488e+18
14582.0	1.822006531692953e+18
14583.0	1.821573872458137e+18
14584.0	1.821116238659584e+18
14585.0	1.8207018665902075e+18
14586.0	1.8202616743854077e+18
14587.0	1.819805300555776e+18
14588.0	1.8193867476041725e+18
14589.0	1.8189799504478203e+18
14590.0	1.818565021374873e+18
14591.0	1.818138017739571e+18
14592.0	1.81771676197847e+18
14593.0	1.8171088697556987e+18
14594.0	1.8168918363340792e+18
14595.0	1.8164680086257661e+18
14596.0	1.8158451695812603e+18
14597.0	1.8155171129327613e+18
14598.0	1.8152210101698552e+18
14599.0	1.8148195179692027e+18
14600.0	1.8144000640811008e+18
14601.0	1.8139844018438141e+18
14602.0	1.8134913546977275e+18
14603.0	1.8131330369847296e+18
14604.0	1.8126568693956605e+18
14605.0	1.8122835511738365e+18
14606.0	1.8117753709789181e+18
14607.0	1.8114836923678715e+18
14608.0	1.8110535279050747e+18
14609.0	1.8104914542592003e+18
14610.0	1.8101698769715192e+18
14611.0	1.809826188990873e+18
14612.0	1.809419316337049e+18
14613.0	1.8090092677562363e+18
14614.0	1.8085886981832704e+18
14615.0	1.8081434124156925e+18
14616.0	1.8077640963391488e+18
14617.0	1.8073486454947837e+18
14618.0	1.8068536589025277e+18
14619.0	1.8064300543311864e+18
14620.0	1.8057547160223744e+18
14621.0	1.8056942626799613e+18
14622.0	1.8052738541682685e+18
14623.0	1.80486415623127e+18
14624.0	1.8043471277326333e+18
14625.0	1.8040312395988987e+18
14626.0	1.8035755905449981e+18
14627.0	1.803135658387046e+18
14628.0	1.8027963878473725e+18
14629.0	1.802382517416755e+18
14630.0	1.8019654760923133e+18
14631.0	1.801531801835929e+18
14632.0	1.7934779093614628e+18
14633.0	1.799711797700195e+18
14634.0	1.800287402170777e+18
14635.0	1.7988595973357535e+18
14636.0	1.7968646320029683e+18
14637.0	1.7990726797230075e+18
14638.0	1.7986397554081787e+18
14639.0	1.7982261030813693e+18
14640.0	1.7978219416256512e+18
14641.0	1.769618629512381e+18
14642.0	1.796994106812006e+18
14643.0	1.796590158426931e+18
14644.0	1.7961547577950203e+18
14645.0	1.7957177062850555e+18
14646.0	1.7952974017921021e+18
14647.0	1.7948892272263168e+18
