# Flux units: erg / (cm m2 s)
# Wavelength units: Angstrom
wave	flux
14000.0	1.0315402865278975e+18
14001.0	1.0312769437958144e+18
14002.0	1.0312546896576511e+18
14003.0	1.0311110741721085e+18
14004.0	1.0309655955767293e+18
14005.0	1.0308223844220927e+18
14006.0	1.0306746501300221e+18
14007.0	1.0305263554789375e+18
14008.0	1.0302591791529983e+18
14009.0	1.0302442138763263e+18
14010.0	1.0300999994441727e+18
14011.0	1.0298374880231423e+18
14012.0	1.0298130058706944e+18
14013.0	1.0296689474666492e+18
14014.0	1.0295249117118463e+18
14015.0	1.029380922094387e+18
14016.0	1.0292368276193277e+18
14017.0	1.0290923841781756e+18
14018.0	1.0288414196760575e+18
14019.0	1.0288052630978557e+18
14020.0	1.0286614563520511e+18
14021.0	1.0285176638668799e+18
14022.0	1.0283733722595327e+18
14023.0	1.0282301778821119e+18
14024.0	1.0280854978822141e+18
14025.0	1.0279428269539327e+18
14026.0	1.0277992047575039e+18
14027.0	1.0276556127600639e+18
14028.0	1.0275120568336383e+18
14029.0	1.027368532783923e+18
14030.0	1.027194251064115e+18
14031.0	1.0270788523393023e+18
14032.0	1.0269381409898493e+18
14033.0	1.0267887608528895e+18
14034.0	1.026651415851827e+18
14035.0	1.026505491821363e+18
14036.0	1.0263263287705599e+18
14037.0	1.0262097204084733e+18
14038.0	1.0260783279636477e+18
14039.0	1.0259351402971136e+18
14040.0	1.0257919811518464e+18
14041.0	1.0256488622718975e+18
14042.0	1.0255050135830527e+18
14043.0	1.0253565788422144e+18
14044.0	1.0251574861365247e+18
14045.0	1.025014248977203e+18
14046.0	1.0249337544114173e+18
14047.0	1.0247908318248959e+18
14048.0	1.0246457869205503e+18
14049.0	1.0245043818332159e+18
14050.0	1.0243621722783741e+18
14051.0	1.0242176634060799e+18
14052.0	1.0240767146590205e+18
14053.0	1.023933996754534e+18
14054.0	1.0237913048547327e+18
14055.0	1.0236486641254396e+18
14056.0	1.0235060577894399e+18
14057.0	1.0233634514534399e+18
14058.0	1.023220811563008e+18
14059.0	1.0229794729885692e+18
14060.0	1.0229358790705148e+18
14061.0	1.0227922073812988e+18
14062.0	1.0226510036205567e+18
14063.0	1.0225044126957565e+18
14064.0	1.0223551340609532e+18
14065.0	1.0222209188495357e+18
14066.0	1.0220816478240765e+18
14067.0	1.0219393929707519e+18
14068.0	1.0217971699941376e+18
14069.0	1.021654174426726e+18
14070.0	1.0215127768891391e+18
14071.0	1.0213696320045053e+18
14072.0	1.0212286127931391e+18
14073.0	1.0210853211078656e+18
14074.0	1.0209445334220799e+18
14075.0	1.0208001621229564e+18
14076.0	1.0206605832355839e+18
14077.0	1.0205119899500541e+18
14078.0	1.0203767681056765e+18
14079.0	1.0202349108723711e+18
14080.0	1.0200607356878845e+18
14081.0	1.019945516479283e+18
14082.0	1.0198095354658815e+18
14083.0	1.0196678074171391e+18
14084.0	1.0195254267346941e+18
14085.0	1.0193519989751808e+18
14086.0	1.0192071579140093e+18
14087.0	1.0190324844462077e+18
14088.0	1.0189577243328508e+18
14089.0	1.0188181437677567e+18
14090.0	1.0186766489223165e+18
14091.0	1.0185347203858431e+18
14092.0	1.0183936827195391e+18
14093.0	1.0182523631960063e+18
14094.0	1.0181109975351293e+18
14095.0	1.017969668784128e+18
14096.0	1.017827334239027e+18
14097.0	1.0176856137400319e+18
14098.0	1.0175458679193599e+18
14099.0	1.017404675063808e+18
14100.0	1.0172612072177663e+18
14101.0	1.0171223791108093e+18
14102.0	1.0169806124744703e+18
14103.0	1.0168359190527996e+18
14104.0	1.0166991746760701e+18
14105.0	1.0165581755973632e+18
14106.0	1.0164165767331837e+18
14107.0	1.0161915170914303e+18
14108.0	1.0161321836281853e+18
14109.0	1.0159945181822975e+18
14110.0	1.0158536801648637e+18
14111.0	1.0157128765407231e+18
14112.0	1.0155699464044541e+18
14113.0	1.015431363244851e+18
14114.0	1.0152886377906173e+18
14115.0	1.015148407108403e+18
14116.0	1.0150093407649792e+18
14117.0	1.0148149263859711e+18
14118.0	1.0147281596579837e+18
14119.0	1.0145876043366399e+18
14120.0	1.0144450206498813e+18
14121.0	1.0143056732880893e+18
14122.0	1.0141634855436285e+18
14123.0	1.0140257664106493e+18
14124.0	1.0138847228723199e+18
14125.0	1.0136818628427773e+18
14126.0	1.0136034150973439e+18
14127.0	1.0134644234125312e+18
14128.0	1.013323519963955e+18
14129.0	1.0131828102922239e+18
14130.0	1.0130300059254783e+18
14131.0	1.0128875883331583e+18
14132.0	1.0127634604228608e+18
14133.0	1.01255002235863e+18
14134.0	1.0124027033026557e+18
14135.0	1.0123418246578173e+18
14136.0	1.01220333125632e+18
14137.0	1.0120633773981695e+18
14138.0	1.0119234503835647e+18
14139.0	1.0117830108250111e+18
14140.0	1.0116433514070013e+18
14141.0	1.0115030838149119e+18
14142.0	1.0113600924418047e+18
14143.0	1.0112243152715773e+18
14144.0	1.0110833069654015e+18
14145.0	1.0109442272002047e+18
14146.0	1.0108052346765312e+18
14147.0	1.0106657237368832e+18
14148.0	1.0105256012677119e+18
14149.0	1.0103865575735293e+18
14150.0	1.0102470206291967e+18
14151.0	1.0101075197558781e+18
14152.0	1.0099680499204093e+18
14153.0	1.009828608606208e+18
14154.0	1.00968673878999e+18
14155.0	1.0095482445496319e+18
14156.0	1.00941045998551e+18
14157.0	1.0092711788937212e+18
14158.0	1.0091311445049344e+18
14159.0	1.0089926586531839e+18
14160.0	1.0088533607841788e+18
14161.0	1.0087059276431361e+18
14162.0	1.0085615269838845e+18
14163.0	1.0083695755001853e+18
14164.0	1.0082947994484736e+18
14165.0	1.0081568571785213e+18
14166.0	1.0080181599338493e+18
14167.0	1.0078775953850365e+18
14168.0	1.0077409072119808e+18
14169.0	1.0076019834748927e+18
14170.0	1.007462630241075e+18
14171.0	1.0073235748028413e+18
14172.0	1.0071847257243647e+18
14173.0	1.0070445160136704e+18
14174.0	1.0069070879653887e+18
14175.0	1.0067691255627776e+18
14176.0	1.0066300776742911e+18
14177.0	1.006491447538483e+18
14178.0	1.006353124425728e+18
14179.0	1.0062145261666303e+18
14180.0	1.0060759581065213e+18
14181.0	1.0059368036827132e+18
14182.0	1.0057983513853951e+18
14183.0	1.0056599007657983e+18
14184.0	1.0055219727564799e+18
14185.0	1.0053835607244799e+18
14186.0	1.0051862162046975e+18
14187.0	1.0051037477994495e+18
14188.0	1.0049534398824448e+18
14189.0	1.0048232243593213e+18
14190.0	1.0046919032176639e+18
14191.0	1.0045538074361855e+18
14192.0	1.0044099662970877e+18
14193.0	1.0042752284753919e+18
14194.0	1.0041393439309821e+18
14195.0	1.0040006466863101e+18
14196.0	1.0038631993442304e+18
14197.0	1.0037251706716157e+18
14198.0	1.0035860850343935e+18
14199.0	1.0034491737243645e+18
14200.0	1.0033048577900544e+18
14201.0	1.003171232297779e+18
14202.0	1.0030355188809724e+18
14203.0	1.0028964407934975e+18
14204.0	1.0027591637401599e+18
14205.0	1.0026206619500541e+18
14206.0	1.0024683348951037e+18
14207.0	1.0023455701336063e+18
14208.0	1.0022083677388799e+18
14209.0	1.0020518195363837e+18
14210.0	1.0019236608999421e+18
14211.0	1.0017961540583423e+18
14212.0	1.0016586010198016e+18
14213.0	1.0015203777314813e+18
14214.0	1.0013835847008255e+18
14215.0	1.0012435813498881e+18
14216.0	1.0011080533213181e+18
14217.0	1.0009706814767101e+18
14218.0	1.0008326410600445e+18
14219.0	1.0006952037842941e+18
14220.0	1.0005585625874431e+18
14221.0	1.0004214499508223e+18
14222.0	1.0002848347586557e+18
14223.0	1.0001459504480255e+18
14224.0	1.0000104685567999e+18
14225.0	9.998489576538111e+17
14226.0	9.997362223120383e+17
14227.0	9.995602309939199e+17
14228.0	9.993621843476477e+17
14229.0	9.993174126690303e+17
14230.0	9.991881148596223e+17
14231.0	9.99049913381683e+17
14232.0	9.989138182832124e+17
14233.0	9.987773641523196e+17
14234.0	9.986405098848255e+17
14235.0	9.985036883329021e+17
14236.0	9.983668994965503e+17
14237.0	9.98230141698048e+17
14238.0	9.980934107430911e+17
14239.0	9.979559365574653e+17
14240.0	9.974802026594304e+17
14241.0	9.976830131961855e+17
14242.0	9.975467100602367e+17
14243.0	9.973884002500605e+17
14244.0	9.972736810024959e+17
14245.0	9.971371958337535e+17
14246.0	9.969997300367357e+17
14247.0	9.968642582118396e+17
14248.0	9.96723618165555e+17
14249.0	9.96591472423731e+17
14250.0	9.9645512482816e+17
14251.0	9.96318280626995e+17
14252.0	9.961807921807357e+17
14253.0	9.960369627856895e+17
14254.0	9.959064075239423e+17
14255.0	9.957674493935613e+17
14256.0	9.956056029462524e+17
14257.0	9.954974947606527e+17
14258.0	9.953648473800701e+17
14259.0	9.952278614114303e+17
14260.0	9.950888235892735e+17
14261.0	9.949563540471805e+17
14262.0	9.948312136318975e+17
14263.0	9.946473571549183e+17
14264.0	9.945533770629119e+17
14265.0	9.944227429482493e+17
14266.0	9.942863517319165e+17
14267.0	9.94151293465395e+17
14268.0	9.94015351878451e+17
14269.0	9.938802558631935e+17
14270.0	9.937445248303103e+17
14271.0	9.936088298684413e+17
14272.0	9.934731651055616e+17
14273.0	9.933375196364799e+17
14274.0	9.93135277847347e+17
14275.0	9.930606360133631e+17
14276.0	9.929308130770944e+17
14277.0	9.927953043423231e+17
14278.0	9.926598266454016e+17
14279.0	9.925243380432893e+17
14280.0	9.923878126092285e+17
14281.0	9.922535747485693e+17
14282.0	9.921182186864639e+17
14283.0	9.919821261045756e+17
14284.0	9.918459034992639e+17
14285.0	9.917123124002813e+17
14286.0	9.915770813284348e+17
14287.0	9.914410399170557e+17
14288.0	9.913062995787773e+17
14289.0	9.909507006136311e+17
14290.0	9.910364649029628e+17
14291.0	9.909009628790781e+17
14292.0	9.90765293921894e+17
14293.0	9.906310074073085e+17
14294.0	9.904771402039293e+17
14295.0	9.90360116605747e+17
14296.0	9.900502875635712e+17
14297.0	9.900915712589821e+17
14298.0	9.899272099069953e+17
14299.0	9.898205537894396e+17
14300.0	9.89686242947891e+17
14301.0	9.895522953330685e+17
14302.0	9.894164225327103e+17
14303.0	9.892791085694975e+17
14304.0	9.891452834283517e+17
14305.0	9.890124363988992e+17
14306.0	9.88878545826611e+17
14307.0	9.887441661984767e+17
14308.0	9.886097823760381e+17
14309.0	9.884752601415676e+17
14310.0	9.883407655895039e+17
14311.0	9.881931764203517e+17
14312.0	9.880695769923583e+17
14313.0	9.878412441157631e+17
14314.0	9.878023687897087e+17
14315.0	9.876677786075135e+17
14316.0	9.875263164776445e+17
14317.0	9.873980244623361e+17
14318.0	9.872659282132991e+17
14319.0	9.871317113241599e+17
14320.0	9.869967142944767e+17
14321.0	9.868628665040893e+17
14322.0	9.867232985219072e+17
14323.0	9.865938220351487e+17
14324.0	9.86458953351168e+17
14325.0	9.863222207184895e+17
14326.0	9.861895959871487e+17
14327.0	9.860566449389567e+17
14328.0	9.859240504066047e+17
14329.0	9.857912461590527e+17
14330.0	9.856573597810685e+17
14331.0	9.855235103129599e+17
14332.0	9.853896868495357e+17
14333.0	9.852558952628221e+17
14334.0	9.851221347139583e+17
14335.0	9.849860530372605e+17
14336.0	9.848526657814527e+17
14337.0	9.847210325835773e+17
14338.0	9.845873919918077e+17
14339.0	9.844532145291264e+17
14340.0	9.843202072772604e+17
14341.0	9.84186617017139e+17
14342.0	9.840313363333119e+17
14343.0	9.839188862042111e+17
14344.0	9.837360514596863e+17
14345.0	9.836239830122493e+17
14346.0	9.835187319865341e+17
14347.0	9.833851517927421e+17
14348.0	9.832526612791293e+17
14349.0	9.831193235161085e+17
14350.0	9.82984138581606e+17
14351.0	9.828516682006527e+17
14352.0	9.827129684393983e+17
14353.0	9.825808503799805e+17
14354.0	9.824532747517948e+17
14355.0	9.823192214405119e+17
14356.0	9.821632965115903e+17
14357.0	9.820281451315199e+17
14358.0	9.81919465681715e+17
14359.0	9.817867914575872e+17
14360.0	9.816530032263167e+17
14361.0	9.815220235010045e+17
14362.0	9.813884105916412e+17
14363.0	9.812562262622205e+17
14364.0	9.811159997743103e+17
14365.0	9.809893343100927e+17
14366.0	9.808560737222653e+17
14367.0	9.807249975279613e+17
14368.0	9.805889879932927e+17
14369.0	9.804565545222141e+17
14370.0	9.803235564978173e+17
14371.0	9.801942377168893e+17
14372.0	9.800594814402559e+17
14373.0	9.799240943403005e+17
14374.0	9.797842361122816e+17
14375.0	9.796449357266944e+17
14376.0	9.795314470879231e+17
14377.0	9.79398113519206e+17
14378.0	9.792659249954816e+17
14379.0	9.79133114037043e+17
14380.0	9.790007233478655e+17
14381.0	9.788685012697087e+17
14382.0	9.787371130191872e+17
14383.0	9.786048229933053e+17
14384.0	9.784708275634173e+17
14385.0	9.783403410882559e+17
14386.0	9.782066870747136e+17
14387.0	9.7807597830144e+17
14388.0	9.779438560477183e+17
14389.0	9.778109905633277e+17
14390.0	9.776790755082239e+17
14391.0	9.775473542299647e+17
14392.0	9.77412295963443e+17
14393.0	9.772812701007872e+17
14394.0	9.771472142729213e+17
14395.0	9.770185917464573e+17
14396.0	9.768763050164223e+17
14397.0	9.767552121044991e+17
14398.0	9.766240931282941e+17
14399.0	9.764809994141695e+17
14400.0	9.763564713672703e+17
14401.0	9.762287422275583e+17
14402.0	9.760962215149567e+17
14403.0	9.759618662137855e+17
14404.0	9.752539851390968e+17
14405.0	9.75386636713982e+17
14406.0	9.755682031009791e+17
14407.0	9.754299101872127e+17
14408.0	9.753073073258495e+17
14409.0	9.751713825161213e+17
14410.0	9.750443026546685e+17
14411.0	9.749128439398399e+17
14412.0	9.747805782409216e+17
14413.0	9.746483997835263e+17
14414.0	9.745186515058685e+17
14415.0	9.743873119092736e+17
14416.0	9.742560025116672e+17
14417.0	9.741244875931647e+17
14418.0	9.739934701191165e+17
14419.0	9.738622488018941e+17
14420.0	9.737301651357693e+17
14421.0	9.735952285040636e+17
14422.0	9.73467855041331e+17
14423.0	9.733362293932031e+17
14424.0	9.731838989828095e+17
14425.0	9.730717625876477e+17
14426.0	9.729445191483391e+17
14427.0	9.728123742453759e+17
14428.0	9.726788703879167e+17
14429.0	9.725430361751551e+17
14430.0	9.724206983938045e+17
14431.0	9.722806807822335e+17
14432.0	9.721590325444605e+17
14433.0	9.720207127871485e+17
14434.0	9.718954792583167e+17
14435.0	9.717647436414973e+17
14436.0	9.71635573338931e+17
14437.0	9.715051539726332e+17
14438.0	9.713727431507965e+17
14439.0	9.712439612407808e+17
14440.0	9.71113358163968e+17
14441.0	9.709794063548412e+17
14442.0	9.708442063208445e+17
14443.0	9.707089551163392e+17
14444.0	9.705902890287101e+17
14445.0	9.704607345278975e+17
14446.0	9.701606891192321e+17
14447.0	9.701989998919677e+17
14448.0	9.700695099834367e+17
14449.0	9.699391736643583e+17
14450.0	9.698088574779392e+17
14451.0	9.69678570651648e+17
14452.0	9.695483106689021e+17
14453.0	9.694180800462847e+17
14454.0	9.692876178980863e+17
14455.0	9.691566985707517e+17
14456.0	9.690241870856191e+17
14457.0	9.68893984145408e+17
14458.0	9.687646645256191e+17
14459.0	9.686335556157439e+17
14460.0	9.685070973501439e+17
14461.0	9.683753366454271e+17
14462.0	9.682361025298428e+17
14463.0	9.6811744231424e+17
14464.0	9.679868400762877e+17
14465.0	9.678446556872703e+17
14466.0	9.67725559264051e+17
14467.0	9.675955115130876e+17
14468.0	9.674673352605695e+17
14469.0	9.672904354562045e+17
14470.0	9.672025337495552e+17
14471.0	9.670751669977085e+17
14472.0	9.669492791574527e+17
14473.0	9.668196214767613e+17
14474.0	9.666893656883199e+17
14475.0	9.665604000677887e+17
14476.0	9.664308371783677e+17
14477.0	9.663012944216063e+17
14478.0	9.661717827026941e+17
14479.0	9.66042305377075e+17
14480.0	9.659100556165119e+17
14481.0	9.657834262233085e+17
14482.0	9.656538373292031e+17
14483.0	9.655229767221245e+17
14484.0	9.653941285421053e+17
14485.0	9.652601582780416e+17
14486.0	9.65090282255155e+17
14487.0	9.650074732724221e+17
14488.0	9.648770513895421e+17
14489.0	9.647479591010301e+17
14490.0	9.64619895255859e+17
14491.0	9.644907568300031e+17
14492.0	9.64360016180019e+17
14493.0	9.642321956044799e+17
14494.0	9.640992512671741e+17
14495.0	9.639734708011005e+17
14496.0	9.6382467702784e+17
14497.0	9.63713242759168e+17
14498.0	9.635829190230016e+17
14499.0	9.634567409369087e+17
14500.0	9.633289925033981e+17
14501.0	9.632001669726205e+17
14502.0	9.630245036490752e+17
14503.0	9.629393827659773e+17
14504.0	9.628136484372477e+17
14505.0	9.626852373037055e+17
14506.0	9.625568513359871e+17
14507.0	9.623894088482816e+17
14508.0	9.622946259664895e+17
14509.0	9.62170664989491e+17
14510.0	9.620415836061695e+17
14511.0	9.619131741503485e+17
14512.0	9.617832513896447e+17
14513.0	9.616556606619647e+17
14514.0	9.615238831800317e+17
14515.0	9.613994239197183e+17
14516.0	9.606761447161859e+17
14517.0	9.61143106646835e+17
14518.0	9.610144908312573e+17
14519.0	9.608255298863103e+17
14520.0	9.60757427811123e+17
14521.0	9.606291869663231e+17
14522.0	9.60501517385728e+17
14523.0	9.603730668257277e+17
14524.0	9.602439518879741e+17
14525.0	9.601156464508927e+17
14526.0	9.599877965152253e+17
14527.0	9.598583670046719e+17
14528.0	9.59699792114483e+17
14529.0	9.596030504927231e+17
14530.0	9.594736822190076e+17
14531.0	9.593484218466304e+17
14532.0	9.592204234326013e+17
14533.0	9.590902959898623e+17
14534.0	9.589627178450944e+17
14535.0	9.58835585135411e+17
14536.0	9.587087938420732e+17
14537.0	9.585772839567357e+17
14538.0	9.584531283640317e+17
14539.0	9.583253497315325e+17
14540.0	9.581972397490175e+17
14541.0	9.580645118377981e+17
14542.0	9.579421522460671e+17
14543.0	9.578123217600511e+17
14544.0	9.576822471655421e+17
14545.0	9.575592080965631e+17
14546.0	9.573887641649152e+17
14547.0	9.572336638361599e+17
14548.0	9.571730058117119e+17
14549.0	9.570300219883519e+17
14550.0	9.569215279267839e+17
14551.0	9.567940714168317e+17
14552.0	9.56664440579686e+17
14553.0	9.565352258174975e+17
14554.0	9.564118805643263e+17
14555.0	9.562843082915837e+17
14556.0	9.561527203921919e+17
14557.0	9.560294841909245e+17
14558.0	9.559020536856573e+17
14559.0	9.5533187412787e+17
14560.0	9.556482404122621e+17
14561.0	9.555196296298495e+17
14562.0	9.553908997292031e+17
14563.0	9.552661468676095e+17
14564.0	9.550562622177277e+17
14565.0	9.550126297120765e+17
14566.0	9.548855901159423e+17
14567.0	9.547585798799361e+17
14568.0	9.546315956486141e+17
14569.0	9.545035963957247e+17
14570.0	9.542598075088895e+17
14571.0	9.542508107268095e+17
14572.0	9.541170946375677e+17
14573.0	9.539898579091453e+17
14574.0	9.538668221956095e+17
14575.0	9.537434551320575e+17
14576.0	9.536160556646399e+17
14577.0	9.534894816362495e+17
14578.0	9.533630275649535e+17
14579.0	9.532367370715135e+17
14580.0	9.531098593755135e+17
14581.0	9.529832199159805e+17
14582.0	9.528568581193727e+17
14583.0	9.527302849298431e+17
14584.0	9.526024467382271e+17
14585.0	9.524772207591423e+17
14586.0	9.523507297779711e+17
14587.0	9.522239250628607e+17
14588.0	9.521325311787007e+17
14589.0	9.52051201946419e+17
14590.0	9.519236766498813e+17
14591.0	9.517974566207487e+17
14592.0	9.516722759401468e+17
14593.0	9.51527258718208e+17
14594.0	9.514196848869373e+17
14595.0	9.512932861804544e+17
14596.0	9.511574192521216e+17
14597.0	9.510336646348796e+17
14598.0	9.509143274586111e+17
14599.0	9.507890645696511e+17
14600.0	9.50662996374323e+17
14601.0	9.505361883037693e+17
14602.0	9.504105420554237e+17
14603.0	9.502837927051263e+17
14604.0	9.501371430600704e+17
14605.0	9.49939843838771e+17
14606.0	9.498870358736893e+17
14607.0	9.497804049219583e+17
14608.0	9.496055032840191e+17
14609.0	9.49438306582528e+17
14610.0	9.493118374117375e+17
14611.0	9.491546432864256e+17
14612.0	9.491522097512447e+17
14613.0	9.490265878298621e+17
14614.0	9.488377602637819e+17
14615.0	9.487305689530365e+17
14616.0	9.486491742896128e+17
14617.0	9.483864397316095e+17
14618.0	9.483031978967039e+17
14619.0	9.482653896015871e+17
14620.0	9.48127745127219e+17
14621.0	9.480218397900799e+17
14622.0	9.478956986138623e+17
14623.0	9.477709163921407e+17
14624.0	9.476197083774975e+17
14625.0	9.474414747844608e+17
14626.0	9.472580142497791e+17
14627.0	9.471326070767612e+17
14628.0	9.470640083959807e+17
14629.0	9.469401329827837e+17
14630.0	9.467623850901501e+17
14631.0	9.466317786578941e+17
14632.0	9.464574239571967e+17
14633.0	9.464127730745341e+17
14634.0	9.463240115355648e+17
14635.0	9.461905009672191e+17
14636.0	9.46038026272768e+17
14637.0	9.45934211376742e+17
14638.0	9.458342384631807e+17
14639.0	9.456659772473341e+17
14640.0	9.455554908913663e+17
14641.0	9.454603078729727e+17
14642.0	9.45276008477491e+17
14643.0	9.452136769257468e+17
14644.0	9.450531055468541e+17
14645.0	9.448582599933952e+17
14646.0	9.447789364772864e+17
14647.0	9.446455047618557e+17
14648.0	9.446114017148927e+17
14649.0	9.44383809552384e+17
14650.0	9.443698878185472e+17
14651.0	9.440234995449856e+17
14652.0	9.441093158436864e+17
14653.0	9.438185507520511e+17
14654.0	9.438094096859136e+17
14655.0	9.436096425361407e+17
14656.0	9.435331803742207e+17
14657.0	9.433978746437628e+17
14658.0	9.432239058190336e+17
