# Flux units: erg / (cm m2 s)
# Wavelength units: Angstrom
wave	flux
14000.0	1.0758489148227583e+18
14001.0	1.0756039758577664e+18
14002.0	1.075562016879411e+18
14003.0	1.0754106209599485e+18
14004.0	1.0752581689147391e+18
14005.0	1.0751071714541567e+18
14006.0	1.0749527615078397e+18
14007.0	1.0747982072774655e+18
14008.0	1.0745657916653567e+18
14009.0	1.0744963113418751e+18
14010.0	1.074343022113587e+18
14011.0	1.0740894755979263e+18
14012.0	1.0740378948861948e+18
14013.0	1.0738938960412672e+18
14014.0	1.0737434069303295e+18
14015.0	1.0735921821384703e+18
14016.0	1.0734411452514303e+18
14017.0	1.0732900118953983e+18
14018.0	1.0730673916608511e+18
14019.0	1.0729876201930751e+18
14020.0	1.0728364172115967e+18
14021.0	1.072685248623411e+18
14022.0	1.072534194959155e+18
14023.0	1.0723829332574205e+18
14024.0	1.0722315734089724e+18
14025.0	1.0720811136581631e+18
14026.0	1.0719300818042879e+18
14027.0	1.0717791967510527e+18
14028.0	1.0716281732857855e+18
14029.0	1.0714764049121276e+18
14030.0	1.0713038629896191e+18
14031.0	1.0711669919449087e+18
14032.0	1.0710244476846077e+18
14033.0	1.070868712338227e+18
14034.0	1.0707238528221183e+18
14035.0	1.0705718856384511e+18
14036.0	1.0703965528260604e+18
14037.0	1.0702642149851132e+18
14038.0	1.0701217202175997e+18
14039.0	1.0699712336232445e+18
14040.0	1.0698207604506623e+18
14041.0	1.0696702176526336e+18
14042.0	1.0695184736059391e+18
14043.0	1.0693640401715197e+18
14044.0	1.0691779405807613e+18
14045.0	1.069027161223987e+18
14046.0	1.0689188718444544e+18
14047.0	1.0687686360694783e+18
14048.0	1.0686169532596221e+18
14049.0	1.0684683700404223e+18
14050.0	1.0683182466727933e+18
14051.0	1.0681674555719677e+18
14052.0	1.0680179445727231e+18
14053.0	1.0678681735266303e+18
14054.0	1.067718232191795e+18
14055.0	1.0675683118284797e+18
14056.0	1.0674184141144063e+18
14057.0	1.0672685583433728e+18
14058.0	1.0671186715344893e+18
14059.0	1.0669034114646015e+18
14060.0	1.0668191176982524e+18
14061.0	1.0666682812989437e+18
14062.0	1.0665194195779583e+18
14063.0	1.0663664474390524e+18
14064.0	1.0662104654675967e+18
14065.0	1.0660694085074941e+18
14066.0	1.0659212573016063e+18
14067.0	1.0657718419324927e+18
14068.0	1.065622372037427e+18
14069.0	1.0654728920760319e+18
14070.0	1.0653235178110973e+18
14071.0	1.0651736872058877e+18
14072.0	1.0650248095465472e+18
14073.0	1.0648755225231357e+18
14074.0	1.064726246404915e+18
14075.0	1.0645750702669821e+18
14076.0	1.0644275029082111e+18
14077.0	1.0642730929618941e+18
14078.0	1.0641282820997119e+18
14079.0	1.0639798104489983e+18
14080.0	1.0638091207311357e+18
14081.0	1.0636782878064637e+18
14082.0	1.0635331363667965e+18
14083.0	1.0633837226754045e+18
14084.0	1.0632332411142144e+18
14085.0	1.0630617486065663e+18
14086.0	1.0629101580713983e+18
14087.0	1.0627433883500541e+18
14088.0	1.0626385399775231e+18
14089.0	1.0624912880304124e+18
14090.0	1.0623426301526013e+18
14091.0	1.0621940007960575e+18
14092.0	1.0620453806669823e+18
14093.0	1.0618967756374013e+18
14094.0	1.0617481873850365e+18
14095.0	1.0615995756445695e+18
14096.0	1.0614506728194047e+18
14097.0	1.0613007239348224e+18
14098.0	1.0611540063420413e+18
14099.0	1.0610055757955072e+18
14100.0	1.0608554834657277e+18
14101.0	1.0607090561187839e+18
14102.0	1.0605606574489597e+18
14103.0	1.0604093236051967e+18
14104.0	1.0602642501795839e+18
14105.0	1.0601161493053437e+18
14106.0	1.0599679947440124e+18
14107.0	1.0597637405278205e+18
14108.0	1.0596689861672957e+18
14109.0	1.0595232869515263e+18
14110.0	1.0593754947780605e+18
14111.0	1.059227396420403e+18
14112.0	1.0590777444925439e+18
14113.0	1.0589315209887741e+18
14114.0	1.0587814966067197e+18
14115.0	1.0586335911870463e+18
14116.0	1.0584819318652927e+18
14117.0	1.0582953809674239e+18
14118.0	1.0581891375693823e+18
14119.0	1.0580436665237501e+18
14120.0	1.057895393683046e+18
14121.0	1.0577481937453055e+18
14122.0	1.0576008805613567e+18
14123.0	1.0574526765072383e+18
14124.0	1.0572998973063167e+18
14125.0	1.0571095002316796e+18
14126.0	1.057006852191027e+18
14127.0	1.056863176307507e+18
14128.0	1.0567162414497791e+18
14129.0	1.0565678494908413e+18
14130.0	1.0564115059703808e+18
14131.0	1.0562625939177468e+18
14132.0	1.0561210093142013e+18
14133.0	1.0559220407599101e+18
14134.0	1.0557730733424639e+18
14135.0	1.0556835668951039e+18
14136.0	1.0555382787211263e+18
14137.0	1.0553914982137855e+18
14138.0	1.0552445155409919e+18
14139.0	1.055097206551347e+18
14140.0	1.054950338802483e+18
14141.0	1.0548031388647423e+18
14142.0	1.0546558407802877e+18
14143.0	1.0545097909207039e+18
14144.0	1.0543622067847165e+18
14145.0	1.0542156544475133e+18
14146.0	1.0540694821142527e+18
14147.0	1.0539228240805885e+18
14148.0	1.0537761568194559e+18
14149.0	1.0536294996246527e+18
14150.0	1.053482792937062e+18
14151.0	1.0533359587426303e+18
14152.0	1.0531896278646783e+18
14153.0	1.0530430688165885e+18
14154.0	1.0528937641771005e+18
14155.0	1.052748424832614e+18
14156.0	1.0526034990465021e+18
14157.0	1.0524570238844927e+18
14158.0	1.0523103264243712e+18
14159.0	1.0521640148402173e+18
14160.0	1.0520151094984703e+18
14161.0	1.0518654693146623e+18
14162.0	1.0517146362707967e+18
14163.0	1.0515342417723388e+18
14164.0	1.051430940259123e+18
14165.0	1.0512857930137599e+18
14166.0	1.0511406961000445e+18
14167.0	1.0509931597791231e+18
14168.0	1.0508486249021439e+18
14169.0	1.0507027260375039e+18
14170.0	1.0505562491977727e+18
14171.0	1.0504102404423677e+18
14172.0	1.0502647643635711e+18
14173.0	1.0501177229705213e+18
14174.0	1.0499721604890621e+18
14175.0	1.0498272816791551e+18
14176.0	1.0496815774302208e+18
14177.0	1.0495358454988799e+18
14178.0	1.049390088401715e+18
14179.0	1.0492440116985855e+18
14180.0	1.0490987621122047e+18
14181.0	1.0489531392327677e+18
14182.0	1.048807457633075e+18
14183.0	1.0486619186397183e+18
14184.0	1.0485158629081087e+18
14185.0	1.0483702475784192e+18
14186.0	1.0481853618192383e+18
14187.0	1.0480754232393727e+18
14188.0	1.0479239954431996e+18
14189.0	1.0477843486081023e+18
14190.0	1.0476438746562557e+18
14191.0	1.0474985546055677e+18
14192.0	1.0473505426505727e+18
14193.0	1.0472068248240124e+18
14194.0	1.0470629677465599e+18
14195.0	1.0469180000174077e+18
14196.0	1.0467728888430591e+18
14197.0	1.0466277776687103e+18
14198.0	1.0464820583202813e+18
14199.0	1.0463371426004991e+18
14200.0	1.0461884058697728e+18
14201.0	1.0460446645551101e+18
14202.0	1.0459026093506557e+18
14203.0	1.0457573706694655e+18
14204.0	1.045612035519283e+18
14205.0	1.0454658078212092e+18
14206.0	1.0453110732357632e+18
14207.0	1.0451755628232703e+18
14208.0	1.0450326100377599e+18
14209.0	1.044874857231155e+18
14210.0	1.0447317777776639e+18
14211.0	1.0445989550751741e+18
14212.0	1.0444551634288637e+18
14213.0	1.0443108902764541e+18
14214.0	1.0441661314236417e+18
14215.0	1.0440198315835391e+18
14216.0	1.04387756163072e+18
14217.0	1.0437332305969151e+18
14218.0	1.0435874365898751e+18
14219.0	1.043443454522163e+18
14220.0	1.043300160320307e+18
14221.0	1.0431558158647295e+18
14222.0	1.0430115058024447e+18
14223.0	1.04286589550592e+18
14224.0	1.0427222615654399e+18
14225.0	1.0425586384109564e+18
14226.0	1.0424312741756927e+18
14227.0	1.0422629785665533e+18
14228.0	1.0420683041406973e+18
14229.0	1.0419745899675645e+18
14230.0	1.0418573776257023e+18
14231.0	1.0417134031077375e+18
14232.0	1.0415702817112063e+18
14233.0	1.0414267475951613e+18
14234.0	1.0412827873378303e+18
14235.0	1.0411385594839037e+18
14236.0	1.040994777903923e+18
14237.0	1.0408502203777023e+18
14238.0	1.040704754365235e+18
14239.0	1.040550081016627e+18
14240.0	1.0401129196158976e+18
14241.0	1.0402521419874303e+18
14242.0	1.0401260503039999e+18
14243.0	1.0399723668111357e+18
14244.0	1.0398442274684927e+18
14245.0	1.0397021001220095e+18
14246.0	1.0395582656937983e+18
14247.0	1.0394154387374077e+18
14248.0	1.0392687094005757e+18
14249.0	1.0391287563812864e+18
14250.0	1.0389855712313341e+18
14251.0	1.0388421017075711e+18
14252.0	1.0386979543842815e+18
14253.0	1.038549209264947e+18
14254.0	1.0384092856057855e+18
14255.0	1.0382621066395645e+18
14256.0	1.0381096118124541e+18
14257.0	1.0379723657969663e+18
14258.0	1.0378389978349567e+18
14259.0	1.0376949545304063e+18
14260.0	1.0375502896300032e+18
14261.0	1.037408736064307e+18
14262.0	1.0372761297879037e+18
14263.0	1.0371113129345023e+18
14264.0	1.0369769450504191e+18
14265.0	1.0368482537373695e+18
14266.0	1.0367061960163327e+18
14267.0	1.0365644453183485e+18
14268.0	1.0364221904650237e+18
14269.0	1.0362791814758399e+18
14270.0	1.0361366439264253e+18
14271.0	1.0359937288896511e+18
14272.0	1.0358501645746173e+18
14273.0	1.035702917660672e+18
14274.0	1.0355253794832383e+18
14275.0	1.0354098306023421e+18
14276.0	1.0352790261989375e+18
14277.0	1.0351379868549117e+18
14278.0	1.034996201763635e+18
14279.0	1.034853800948531e+18
14280.0	1.034711252493926e+18
14281.0	1.0345695915540477e+18
14282.0	1.0344273778049023e+18
14283.0	1.0342850835251196e+18
14284.0	1.0341419797446655e+18
14285.0	1.0340003464871936e+18
14286.0	1.0338577065967615e+18
14287.0	1.0337135701786621e+18
14288.0	1.0335623135100927e+18
14289.0	1.0332353540915196e+18
14290.0	1.0332790151184381e+18
14291.0	1.0331456773554175e+18
14292.0	1.0330039904108541e+18
14293.0	1.0328615677853693e+18
14294.0	1.0327065203048447e+18
14295.0	1.0325702767280127e+18
14296.0	1.0322897423826944e+18
14297.0	1.0322737721507837e+18
14298.0	1.0321278011441151e+18
14299.0	1.0320081938546684e+18
14300.0	1.031869931139891e+18
14301.0	1.031729673614131e+18
14302.0	1.0315877358501885e+18
14303.0	1.0314421381365759e+18
14304.0	1.0313032253046781e+18
14305.0	1.0311624485240831e+18
14306.0	1.0310218420322301e+18
14307.0	1.0308801181777919e+18
14308.0	1.0307387214790653e+18
14309.0	1.030597014401843e+18
14310.0	1.0304550028181503e+18
14311.0	1.030311298413363e+18
14312.0	1.0301606507577341e+18
14313.0	1.0299516091629567e+18
14314.0	1.0298898656526333e+18
14315.0	1.0297477013962751e+18
14316.0	1.0296025893830655e+18
14317.0	1.0294651059699711e+18
14318.0	1.0293262476640255e+18
14319.0	1.0291853207273472e+18
14320.0	1.0290436857921532e+18
14321.0	1.0289030365183999e+18
14322.0	1.0287588044701693e+18
14323.0	1.0286185066790911e+18
14324.0	1.0284785914085373e+18
14325.0	1.0283361260011517e+18
14326.0	1.0281962166026239e+18
14327.0	1.0280560177971199e+18
14328.0	1.0279162048675837e+18
14329.0	1.027776249331712e+18
14330.0	1.0276355379822592e+18
14331.0	1.027494786367488e+18
14332.0	1.0273541261885439e+18
14333.0	1.0272134559432703e+18
14334.0	1.027072763048755e+18
14335.0	1.026930086248448e+18
14336.0	1.026789751547494e+18
14337.0	1.0266509242793983e+18
14338.0	1.0265103656026111e+18
14339.0	1.0263698580963327e+18
14340.0	1.0262296366415872e+18
14341.0	1.0260892264431613e+18
14342.0	1.025934462497587e+18
14343.0	1.0258085050318847e+18
14344.0	1.0256350177132541e+18
14345.0	1.0255088564043773e+18
14346.0	1.0253872702423039e+18
14347.0	1.0252463600828415e+18
14348.0	1.0251069833609213e+18
14349.0	1.0249669246451711e+18
14350.0	1.0248254692261885e+18
14351.0	1.0246854314819581e+18
14352.0	1.0245417941860351e+18
14353.0	1.0244027974680575e+18
14354.0	1.024266365986406e+18
14355.0	1.0241263173369853e+18
14356.0	1.02397112221696e+18
14357.0	1.0238298773520381e+18
14358.0	1.0237062301089791e+18
14359.0	1.0235658970857472e+18
14360.0	1.0234259172229119e+18
14361.0	1.0232875924324351e+18
14362.0	1.0231478038298623e+18
14363.0	1.0230077929291775e+18
14364.0	1.0228645725470719e+18
14365.0	1.0227263081545728e+18
14366.0	1.0225880093687805e+18
14367.0	1.0224495411331072e+18
14368.0	1.0223077216485375e+18
14369.0	1.0221689866551293e+18
14370.0	1.0220289170341885e+18
14371.0	1.0218916550803455e+18
14372.0	1.0217506450964476e+18
14373.0	1.0216100578983936e+18
14374.0	1.021465427391283e+18
14375.0	1.021320606462771e+18
14376.0	1.0211947697930237e+18
14377.0	1.0210553897156605e+18
14378.0	1.0209159005863932e+18
14379.0	1.0207761967087613e+18
14380.0	1.0206369122615295e+18
14381.0	1.0204973493125119e+18
14382.0	1.0203592526921727e+18
14383.0	1.0202203289550845e+18
14384.0	1.0200793718194175e+18
14385.0	1.0199422726045695e+18
14386.0	1.0198015998427136e+18
14387.0	1.0196642087043072e+18
14388.0	1.0195252153417728e+18
14389.0	1.0193862010077181e+18
14390.0	1.019247189190246e+18
14391.0	1.0191085833814013e+18
14392.0	1.018967530615603e+18
14393.0	1.0188294113460221e+18
14394.0	1.0186871992745983e+18
14395.0	1.0185520747380735e+18
14396.0	1.018407049966387e+18
14397.0	1.0182757179195388e+18
14398.0	1.0181368436752383e+18
14399.0	1.0179903290867711e+18
14400.0	1.0178557087055872e+18
14401.0	1.0177175927914495e+18
14402.0	1.0175768915083263e+18
14403.0	1.017422416130867e+18
14404.0	1.0168376764661757e+18
14405.0	1.0167572339097595e+18
14406.0	1.0170085582831613e+18
14407.0	1.0168776322449408e+18
14408.0	1.016748810908467e+18
14409.0	1.0166092387319805e+18
14410.0	1.0164744690335744e+18
14411.0	1.0163369487106047e+18
14412.0	1.0161985995931645e+18
14413.0	1.0160605382049792e+18
14414.0	1.0159230724079615e+18
14415.0	1.0157850999390205e+18
14416.0	1.0156472021286911e+18
14417.0	1.0155091289964541e+18
14418.0	1.0153710239875072e+18
14419.0	1.0152328854241277e+18
14420.0	1.015094450742886e+18
14421.0	1.0149545455386621e+18
14422.0	1.0148182742794237e+18
14423.0	1.0146793513811968e+18
14424.0	1.0145238853091324e+18
14425.0	1.0144014544142335e+18
14426.0	1.014267880931328e+18
14427.0	1.0141293506199551e+18
14428.0	1.0139895376904191e+18
14429.0	1.0138491115536383e+18
14430.0	1.0137162813014013e+18
14431.0	1.0135722707124221e+18
14432.0	1.0134411467030527e+18
14433.0	1.0132987953807359e+18
14434.0	1.0131644233023485e+18
14435.0	1.0130273953906685e+18
14436.0	1.0128914764529663e+18
14437.0	1.012754450219008e+18
14438.0	1.0126162378358783e+18
14439.0	1.0124793391087613e+18
14440.0	1.0123421744627712e+18
14441.0	1.012200659484672e+18
14442.0	1.01206109234135e+18
14443.0	1.0119193525485565e+18
14444.0	1.0117894398541823e+18
14445.0	1.0116502401318911e+18
14446.0	1.0113741131612159e+18
14447.0	1.0113632339755005e+18
14448.0	1.0112424162099199e+18
14449.0	1.011106889020211e+18
14450.0	1.010970272150323e+18
14451.0	1.0108334388543487e+18
14452.0	1.0106965577433087e+18
14453.0	1.0105595893907453e+18
14454.0	1.010422584128307e+18
14455.0	1.0102850772271101e+18
14456.0	1.0101475225108477e+18
14457.0	1.0100096255393792e+18
14458.0	1.0098731907022847e+18
14459.0	1.0097354673750015e+18
14460.0	1.009600961078886e+18
14461.0	1.0094625515634685e+18
14462.0	1.0093257157509117e+18
14463.0	1.0091905308164092e+18
14464.0	1.0090537822453761e+18
14465.0	1.0089084194127872e+18
14466.0	1.0087806432968701e+18
14467.0	1.0086433268170751e+18
14468.0	1.0085084178677759e+18
14469.0	1.0083385502334973e+18
14470.0	1.008231265809203e+18
14471.0	1.0080963786702845e+18
14472.0	1.0079631424094205e+18
14473.0	1.0078269701357567e+18
14474.0	1.0076906980376573e+18
14475.0	1.0075543688970239e+18
14476.0	1.0074178778562559e+18
14477.0	1.00728179785728e+18
14478.0	1.0071456532660223e+18
14479.0	1.0070093492912128e+18
14480.0	1.00687108154327e+18
14481.0	1.0067368772370431e+18
14482.0	1.0066000070311935e+18
14483.0	1.0064632911757312e+18
14484.0	1.0063254520856576e+18
14485.0	1.0061834119806975e+18
14486.0	1.0060206184595455e+18
14487.0	1.0059175644102655e+18
14488.0	1.0057841796710396e+18
14489.0	1.0056482104016893e+18
14490.0	1.0055128652447741e+18
14491.0	1.005377171960627e+18
14492.0	1.0052404485554173e+18
14493.0	1.0051054699806719e+18
14494.0	1.0049660496379901e+18
14495.0	1.004830613045248e+18
14496.0	1.0046837402632191e+18
14497.0	1.0045596006088703e+18
14498.0	1.0044240004382717e+18
14499.0	1.0042902944153596e+18
14500.0	1.0041555146506237e+18
14501.0	1.0040147051544575e+18
14502.0	1.0038439449722877e+18
14503.0	1.0037454677475324e+18
14504.0	1.0036124068085759e+18
14505.0	1.003477273044582e+18
14506.0	1.0033381815353341e+18
14507.0	1.0031776118341631e+18
14508.0	1.0030663218495487e+18
14509.0	1.0029364980744191e+18
14510.0	1.0028004407246847e+18
14511.0	1.0026656458604541e+18
14512.0	1.0025290214408191e+18
14513.0	1.0023927233380351e+18
14514.0	1.0022529741619199e+18
14515.0	1.0021042399477757e+18
14516.0	1.0014609150836736e+18
14517.0	1.0018017819754495e+18
14518.0	1.0017130699292668e+18
14519.0	1.0015428172578812e+18
14520.0	1.0014489579618301e+18
14521.0	1.001315290526515e+18
14522.0	1.0011806332354559e+18
14523.0	1.0010454566895613e+18
14524.0	1.0009099328552959e+18
14525.0	1.0007753586114559e+18
14526.0	1.0006402793734144e+18
14527.0	1.0004959743442941e+18
14528.0	1.0003499270012927e+18
14529.0	1.0002351557443581e+18
14530.0	1.0001009002676223e+18
14531.0	9.999678703665148e+17
14532.0	9.99833329677107e+17
14533.0	9.996974937866237e+17
14534.0	9.995632240492541e+17
14535.0	9.994286732935164e+17
14536.0	9.992951811801087e+17
14537.0	9.991584451919868e+17
14538.0	9.990263724310527e+17
14539.0	9.988920548786173e+17
14540.0	9.987573573222399e+17
14541.0	9.986189352239101e+17
14542.0	9.984886685302783e+17
14543.0	9.983522202714111e+17
14544.0	9.982165680914431e+17
14545.0	9.980839601373183e+17
14546.0	9.978993704959996e+17
14547.0	9.977484896370685e+17
14548.0	9.976751404875776e+17
14549.0	9.975329871364092e+17
14550.0	9.974123497259008e+17
14551.0	9.972802157281277e+17
14552.0	9.971440694591487e+17
14553.0	9.970092779503616e+17
14554.0	9.968782462156799e+17
14555.0	9.967439034974205e+17
14556.0	9.966065920507904e+17
14557.0	9.964721797070845e+17
14558.0	9.963197243064319e+17
14559.0	9.958162601869308e+17
14560.0	9.96050423984947e+17
14561.0	9.959357122871295e+17
14562.0	9.958022109462527e+17
14563.0	9.956729349472255e+17
14564.0	9.954843548450813e+17
14565.0	9.95406221672448e+17
14566.0	9.952726154739711e+17
14567.0	9.951387844607999e+17
14568.0	9.950043486289919e+17
14569.0	9.948631238967293e+17
14570.0	9.946334605869055e+17
14571.0	9.945990630998016e+17
14572.0	9.944649720397823e+17
14573.0	9.943307182407676e+17
14574.0	9.94203889198694e+17
14575.0	9.940710019039231e+17
14576.0	9.939377060839421e+17
14577.0	9.938046308843517e+17
14578.0	9.93670740312064e+17
14579.0	9.935381155807231e+17
14580.0	9.934049204240383e+17
14581.0	9.932714014670847e+17
14582.0	9.931384277696511e+17
14583.0	9.930051252387837e+17
14584.0	9.928709989466111e+17
14585.0	9.927387995176957e+17
14586.0	9.926056362377213e+17
14587.0	9.924725903982591e+17
14588.0	9.923398331269119e+17
14589.0	9.922068191641599e+17
14590.0	9.920737682915327e+17
14591.0	9.919405320306687e+17
14592.0	9.918056742518783e+17
14593.0	9.91661407810355e+17
14594.0	9.915403291590653e+17
14595.0	9.914082085830655e+17
14596.0	9.912678638157821e+17
14597.0	9.911370032087039e+17
14598.0	9.910096070967293e+17
14599.0	9.90878129926963e+17
14600.0	9.907456066977792e+17
14601.0	9.906129417011196e+17
14602.0	9.904801131266045e+17
14603.0	9.90346443174707e+17
14604.0	9.902001424957437e+17
14605.0	9.90020113740595e+17
14606.0	9.899287710269437e+17
14607.0	9.898167537500157e+17
14608.0	9.896504663736317e+17
14609.0	9.894904125718528e+17
14610.0	9.89359020127027e+17
14611.0	9.892033921548287e+17
14612.0	9.891553757626365e+17
14613.0	9.890232660918272e+17
14614.0	9.88848107762483e+17
14615.0	9.887286162358268e+17
14616.0	9.886264413126655e+17
14617.0	9.884004949950464e+17
14618.0	9.882962497634301e+17
14619.0	9.882193622990847e+17
14620.0	9.880872870215677e+17
14621.0	9.87964577624883e+17
14622.0	9.878332027961344e+17
14623.0	9.877007340929023e+17
14624.0	9.87563593773875e+17
14625.0	9.874363755003903e+17
14626.0	9.872665984630781e+17
14627.0	9.871344778870783e+17
14628.0	9.870417225318399e+17
14629.0	9.86909903106867e+17
14630.0	9.867433019965439e+17
14631.0	9.866109532504063e+17
14632.0	9.86446856139571e+17
14633.0	9.863650160410623e+17
14634.0	9.862506935746557e+17
14635.0	9.861176309579775e+17
14636.0	9.859807808847871e+17
14637.0	9.858550549446655e+17
14638.0	9.857228152504317e+17
14639.0	9.855908465082365e+17
14640.0	9.854596436459519e+17
14641.0	9.853235519029245e+17
14642.0	9.851966230364157e+17
14643.0	9.850658412822524e+17
14644.0	9.849343020367871e+17
14645.0	9.847590900203519e+17
14646.0	9.846291806814205e+17
14647.0	9.845398453616639e+17
14648.0	9.844085376417791e+17
