# Flux units: erg / (cm m2 s)
# Wavelength units: Angstrom
wave	flux
14000.0	2.2379605499314166e+18
14001.0	2.2373670005506045e+18
14002.0	2.2368905729146877e+18
14003.0	2.236355936727859e+18
14004.0	2.2358025872343037e+18
14005.0	2.235266704500326e+18
14006.0	2.2347036510650365e+18
14007.0	2.2341483772248061e+18
14008.0	2.233394070238003e+18
14009.0	2.2330769607229432e+18
14010.0	2.2324954959708155e+18
14011.0	2.2307925733146627e+18
14012.0	2.231429268661862e+18
14013.0	2.2308930856157181e+18
14014.0	2.2303276095504384e+18
14015.0	2.2297958657556477e+18
14016.0	2.2292486349127677e+18
14017.0	2.2287031992319992e+18
14018.0	2.2281430264446973e+18
14019.0	2.2276080714907643e+18
14020.0	2.2270583341318136e+18
14021.0	2.2265157774213117e+18
14022.0	2.2259371379523581e+18
14023.0	2.2250948311121915e+18
14024.0	2.22474630458245e+18
14025.0	2.224331021510246e+18
14026.0	2.2237914360446973e+18
14027.0	2.2232430828060667e+18
14028.0	2.2226918019432443e+18
14029.0	2.222145574377881e+18
14030.0	2.2089001921937518e+18
14031.0	2.2209715014467574e+18
14032.0	2.220511817472409e+18
14033.0	2.2196987180875776e+18
14034.0	2.2194226976522237e+18
14035.0	2.2188939536236544e+18
14036.0	2.2183251019825147e+18
14037.0	2.2177331330154493e+18
14038.0	2.2172616445919227e+18
14039.0	2.2167139288875005e+18
14040.0	2.2161523484917755e+18
14041.0	2.2156332446515195e+18
14042.0	2.215076969211494e+18
14043.0	2.214478693688934e+18
14044.0	2.213997771436851e+18
14045.0	2.2134683026325501e+18
14046.0	2.2129205198192637e+18
14047.0	2.2123217325916157e+18
14048.0	2.2118233301581821e+18
14049.0	2.2113138816057344e+18
14050.0	2.2107722308648955e+18
14051.0	2.2102011277213693e+18
14052.0	2.20967837148119e+18
14053.0	2.209148894288281e+18
14054.0	2.2086160918511608e+18
14055.0	2.208061604862361e+18
14056.0	2.2075376591175677e+18
14057.0	2.2069914265190395e+18
14058.0	2.2064562014519293e+18
14059.0	2.2059024493051896e+18
14060.0	2.2053698163179517e+18
14061.0	2.204816735259852e+18
14062.0	2.204294524279193e+18
14063.0	2.203720127768166e+18
14064.0	2.201561358086964e+18
14065.0	2.2026644315176955e+18
14066.0	2.2021338973601787e+18
14067.0	2.2011156193345536e+18
14068.0	2.2010647323607037e+18
14069.0	2.2004854301917181e+18
14070.0	2.1999874572550136e+18
14071.0	2.1994459155660795e+18
14072.0	2.1989107324420093e+18
14073.0	2.198359111001702e+18
14074.0	2.1978442652188672e+18
14075.0	2.1972513500168187e+18
14076.0	2.196256023222682e+18
14077.0	2.1928765701488645e+18
14078.0	2.1954340587569152e+18
14079.0	2.1951426066382843e+18
14080.0	2.194633335924326e+18
14081.0	2.1940963240837115e+18
14082.0	2.1934824088403965e+18
14083.0	2.193018705045094e+18
14084.0	2.1924885634744317e+18
14085.0	2.189038372624793e+18
14086.0	2.1911472888086523e+18
14087.0	2.1908795512848381e+18
14088.0	2.1902752359645181e+18
14089.0	2.1893630536974336e+18
14090.0	2.1892104548515832e+18
14091.0	2.1887437580009464e+18
14092.0	2.1882058754228221e+18
14093.0	2.1876767924944896e+18
14094.0	2.1871437618872317e+18
14095.0	2.1866111574212605e+18
14096.0	2.1853502858854403e+18
14097.0	2.1851826999525368e+18
14098.0	2.1846095197896701e+18
14099.0	2.1844778639425533e+18
14100.0	2.1838722349662205e+18
14101.0	2.1834180941840376e+18
14102.0	2.1828785791827963e+18
14103.0	2.1823281875124221e+18
14104.0	2.1818160395059195e+18
14105.0	2.181263236949606e+18
14106.0	2.1807599657680893e+18
14107.0	2.1801466259832824e+18
14108.0	2.1796250860912632e+18
14109.0	2.1791535255257083e+18
14110.0	2.1785442894479352e+18
14111.0	2.177938341704499e+18
14112.0	2.1775173174689792e+18
14113.0	2.1767282363465728e+18
14114.0	2.176384660773273e+18
14115.0	2.1759178229940221e+18
14116.0	2.1743114716708846e+18
14117.0	2.155943789015867e+18
14118.0	2.174362209327513e+18
14119.0	2.1734527701352433e+18
14120.0	2.1729446704709624e+18
14121.0	2.172706952419737e+18
14122.0	2.1719008659111928e+18
14123.0	2.170970386412339e+18
14124.0	2.1702811129479168e+18
14125.0	2.169670432351846e+18
14126.0	2.1699299674947584e+18
14127.0	2.1696189229432827e+18
14128.0	2.169095765727641e+18
14129.0	2.1685436594257912e+18
14130.0	2.1679896791089147e+18
14131.0	2.1674719073796093e+18
14132.0	2.166968181535539e+18
14133.0	2.1652949159641047e+18
14134.0	2.1659364985143296e+18
14135.0	2.1652700068315128e+18
14136.0	2.163019534565377e+18
14137.0	2.1643250150408187e+18
14138.0	2.1634812049620987e+18
14139.0	2.163304616375091e+18
14140.0	2.1626466508734461e+18
14141.0	2.162203702172057e+18
14142.0	2.1595400490188815e+18
14143.0	2.1608924352348157e+18
14144.0	2.160668719448064e+18
14145.0	2.1601427654705147e+18
14146.0	2.1595846227263483e+18
14147.0	2.1590646246604795e+18
14148.0	2.1584219985674232e+18
14149.0	2.157811965571891e+18
14150.0	2.1575160423251965e+18
14151.0	2.1566697156640765e+18
14152.0	2.1564699543863293e+18
14153.0	2.1559504327933947e+18
14154.0	2.1553656763514875e+18
14155.0	2.1479216927211576e+18
14156.0	2.1540731696971738e+18
14157.0	2.1538331749777403e+18
14158.0	2.1532176222781437e+18
14159.0	2.1528074059251704e+18
14160.0	2.1522844450029563e+18
14161.0	2.1516150307291133e+18
14162.0	2.1510053517328376e+18
14163.0	2.150714867659571e+18
14164.0	2.1493692443394033e+18
14165.0	2.1483282784845827e+18
14166.0	2.1491327694798845e+18
14167.0	2.1485978296254461e+18
14168.0	2.147917557137408e+18
14169.0	2.1475737668157437e+18
14170.0	2.146951015012761e+18
14171.0	2.1464590634188795e+18
14172.0	2.146027783271219e+18
14173.0	2.144908654044774e+18
14174.0	2.144927192868454e+18
14175.0	2.1444570164232184e+18
14176.0	2.1437844195115003e+18
14177.0	2.143380341941862e+18
14178.0	2.1428881554669558e+18
14179.0	2.142254317279641e+18
14180.0	2.141856688871833e+18
14181.0	2.1413348822220795e+18
14182.0	2.140815721339289e+18
14183.0	2.1402971745026045e+18
14184.0	2.1397661554835453e+18
14185.0	2.1392528347496443e+18
14186.0	2.1345610946838554e+18
14187.0	2.1381651862913021e+18
14188.0	2.1376929479262203e+18
14189.0	2.137129523714457e+18
14190.0	2.136632872822374e+18
14191.0	2.1360944063971325e+18
14192.0	2.1356085365440504e+18
14193.0	2.1343826622808061e+18
14194.0	2.1345508136058875e+18
14195.0	2.134079494632243e+18
14196.0	2.1335581460004861e+18
14197.0	2.1330413137952765e+18
14198.0	2.132517592865177e+18
14199.0	2.1319730027560955e+18
14200.0	2.1290587651047442e+18
14201.0	2.1309398819274742e+18
14202.0	2.130455384450662e+18
14203.0	2.1297994305372155e+18
14204.0	2.1293768040775677e+18
14205.0	2.1289060639178747e+18
14206.0	2.1281195278991363e+18
14207.0	2.12788186185728e+18
14208.0	2.1273673818177533e+18
14209.0	2.126537785396428e+18
14210.0	2.1261567278448627e+18
14211.0	2.1258048827817976e+18
14212.0	2.1253045308358653e+18
14213.0	2.12468563443712e+18
14214.0	2.1242747285405693e+18
14215.0	2.123716067380428e+18
14216.0	2.1232428660031488e+18
14217.0	2.1227359776538614e+18
14218.0	2.1221941977284603e+18
14219.0	2.1217008469147643e+18
14220.0	2.1211683666001917e+18
14221.0	2.120568337858559e+18
14222.0	2.1193834100686845e+18
14223.0	2.1195813292081147e+18
14224.0	2.119132189714022e+18
14225.0	2.1122916305338422e+18
14226.0	2.1181021928030203e+18
14227.0	2.1175923583746045e+18
14228.0	2.104178388657772e+18
14229.0	2.1149173873115023e+18
14230.0	2.1160568840781821e+18
14231.0	2.1147911370833925e+18
14232.0	2.1150350660599803e+18
14233.0	2.1145019230453755e+18
14234.0	2.1140126088298493e+18
14235.0	2.113495031716249e+18
14236.0	2.1129770771152893e+18
14237.0	2.1124571864236024e+18
14238.0	2.1119451189477373e+18
14239.0	2.1113715327762424e+18
14240.0	2.108218317104744e+18
14241.0	2.1103882654449661e+18
14242.0	2.109909450411212e+18
14243.0	2.1090758375243773e+18
14244.0	2.1089075301711867e+18
14245.0	2.1083494411141117e+18
14246.0	2.1077835959500792e+18
14247.0	2.1073620532985853e+18
14248.0	2.1068332690046973e+18
14249.0	2.106347989709619e+18
14250.0	2.1058445574668283e+18
14251.0	2.105336400760012e+18
14252.0	2.1048298999644157e+18
14253.0	2.1043021021708283e+18
14254.0	2.103810383780249e+18
14255.0	2.1032466038915072e+18
14256.0	2.0982144440467492e+18
14257.0	2.1022361742475261e+18
14258.0	2.101778226715033e+18
14259.0	2.1011064653086717e+18
14260.0	2.1006291551911936e+18
14261.0	2.10020317832151e+18
14262.0	2.0997529801850875e+18
14263.0	2.092557997283743e+18
14264.0	2.0977833501261821e+18
14265.0	2.097995811756441e+18
14266.0	2.0977244000223227e+18
14267.0	2.0972164077322237e+18
14268.0	2.0966973676453883e+18
14269.0	2.096177203485081e+18
14270.0	2.0956890166984701e+18
14271.0	2.0951618094628864e+18
14272.0	2.094654387598131e+18
14273.0	2.094171450402406e+18
14274.0	2.084218417342062e+18
14275.0	2.0922621998661635e+18
14276.0	2.092513735632486e+18
14277.0	2.0920770750316536e+18
14278.0	2.0916504706940925e+18
14279.0	2.0911437232734205e+18
14280.0	2.0906238560698365e+18
14281.0	2.0901366473949181e+18
14282.0	2.0896303932243963e+18
14283.0	2.0891280917659643e+18
14284.0	2.088623359288934e+18
14285.0	2.0881181906042877e+18
14286.0	2.0875893979217917e+18
14287.0	2.0871059590873083e+18
14288.0	2.0866055450656763e+18
14289.0	2.0843535611723717e+18
14290.0	2.0855700217397243e+18
14291.0	2.08509047186391e+18
14292.0	2.084591361431961e+18
14293.0	2.084090044796108e+18
14294.0	2.0832439966367744e+18
14295.0	2.0830259414827003e+18
14296.0	2.0811560603615242e+18
14297.0	2.082086216060108e+18
14298.0	2.0789584380035057e+18
14299.0	2.0809344165609467e+18
14300.0	2.0805632391118845e+18
14301.0	2.080040966055526e+18
14302.0	2.0795709523492861e+18
14303.0	2.078951784159641e+18
14304.0	2.0785379388948475e+18
14305.0	2.0780483428220925e+18
14306.0	2.0771167509938173e+18
14307.0	2.076881844803993e+18
14308.0	2.076491113509683e+18
14309.0	2.0758924638552061e+18
14310.0	2.0735934165155825e+18
14311.0	2.0712052267941888e+18
14312.0	2.0737046125477883e+18
14313.0	2.0737690823557117e+18
14314.0	2.0733974737321984e+18
14315.0	2.0730111565234179e+18
14316.0	2.072448660091699e+18
14317.0	2.0713846087876603e+18
14318.0	2.0715715120070653e+18
14319.0	2.071078971532902e+18
14320.0	2.070581778736742e+18
14321.0	2.070073247898009e+18
14322.0	2.0694833341399037e+18
14323.0	2.0690600886009848e+18
14324.0	2.068501466028441e+18
14325.0	2.0680617419079677e+18
14326.0	2.0675898306985981e+18
14327.0	2.0670690910797824e+18
14328.0	2.0665764633640952e+18
14329.0	2.0660985358450683e+18
14330.0	2.065598598296371e+18
14331.0	2.0650038090792955e+18
14332.0	2.0646017548419072e+18
14333.0	2.0641091153821693e+18
14334.0	2.0636118554771453e+18
14335.0	2.0630484748861437e+18
14336.0	2.0618432231768064e+18
14337.0	2.0621129907437565e+18
14338.0	2.0616120599838717e+18
14339.0	2.0610584806424573e+18
14340.0	2.0606352770465787e+18
14341.0	2.060066982409011e+18
14342.0	2.0596328887222267e+18
14343.0	2.05908805198807e+18
14344.0	2.0586125890420733e+18
14345.0	2.0581653336293373e+18
14346.0	2.0576523970936824e+18
14347.0	2.056842181712281e+18
14348.0	2.056662682278297e+18
14349.0	2.0561883199176696e+18
14350.0	2.0551575210557427e+18
14351.0	2.05463925943173e+18
14352.0	2.0546852222926845e+18
14353.0	2.0542121215787003e+18
14354.0	2.053666833537433e+18
14355.0	2.0530786578989053e+18
14356.0	2.052637069829734e+18
14357.0	2.052241902639513e+18
14358.0	2.0517470318100477e+18
14359.0	2.051216630192537e+18
14360.0	2.0507238330269693e+18
14361.0	2.0502603926339576e+18
14362.0	2.049774621766451e+18
14363.0	2.0492840794587133e+18
14364.0	2.046748666311476e+18
14365.0	2.0480501437431788e+18
14366.0	2.0475079007666173e+18
14367.0	2.047310365825433e+18
14368.0	2.0468242157928443e+18
14369.0	2.0463367739146235e+18
14370.0	2.0458426245054461e+18
14371.0	2.0453582696349693e+18
14372.0	2.0448309147598843e+18
14373.0	2.044370135233331e+18
14374.0	2.0438761049423867e+18
14375.0	2.0433891462479872e+18
14376.0	2.0428997296914427e+18
14377.0	2.0424106671341563e+18
14378.0	2.0419162627112955e+18
14379.0	2.041431862542336e+18
14380.0	2.040936057221939e+18
14381.0	2.040420602426163e+18
14382.0	2.0399545280102392e+18
14383.0	2.039369920885555e+18
14384.0	2.0389224255586301e+18
14385.0	2.038491172254515e+18
14386.0	2.037957962131046e+18
14387.0	2.0375084719931392e+18
14388.0	2.037004177401446e+18
14389.0	2.0365238356410363e+18
14390.0	2.0360321860370427e+18
14391.0	2.0355072990904315e+18
14392.0	2.0350030565081083e+18
14393.0	2.034570407339622e+18
14394.0	2.0339885047021565e+18
14395.0	2.0320270753464315e+18
14396.0	2.0330258599247872e+18
14397.0	2.0326174135681024e+18
14398.0	2.0320754843254781e+18
14399.0	2.031582876742451e+18
14400.0	2.0301044533690365e+18
14401.0	2.0306313502261243e+18
14402.0	2.0301668411244536e+18
14403.0	2.0135635696221965e+18
14404.0	1.990256340710189e+18
14405.0	2.0262003599736727e+18
14406.0	2.0282289401364477e+18
14407.0	2.0015782503121024e+18
14408.0	2.0266839716134907e+18
14409.0	2.0267271695892477e+18
14410.0	2.0261323065524221e+18
14411.0	2.02574056694743e+18
14412.0	2.0253052283912187e+18
14413.0	2.0248258362212347e+18
14414.0	2.024335486851481e+18
14415.0	2.0238567355711483e+18
14416.0	2.0232346850557944e+18
14417.0	2.0223403520688125e+18
14418.0	2.0219762025955328e+18
14419.0	2.0219147409424381e+18
14420.0	2.0214197224734717e+18
14421.0	2.0209452359614461e+18
14422.0	2.0204471153852416e+18
14423.0	2.019918787431628e+18
14424.0	1.9395287890001536e+18
14425.0	2.0189861789040637e+18
14426.0	2.0185213359357947e+18
14427.0	2.018040811303731e+18
14428.0	2.017466995284377e+18
14429.0	2.0170718079614973e+18
14430.0	2.016591571897548e+18
14431.0	2.0131020485427215e+18
14432.0	2.0155212845023224e+18
14433.0	1.9951976166981507e+18
14434.0	2.0146226699698168e+18
14435.0	2.01367139511173e+18
14436.0	2.0136961532493821e+18
14437.0	2.0132148451213307e+18
14438.0	2.0118683091206144e+18
14439.0	2.0120789571338235e+18
14440.0	2.01176815585198e+18
14441.0	2.011272942767308e+18
14442.0	2.010785227420467e+18
14443.0	2.010219016513126e+18
14444.0	2.0098257317265405e+18
14445.0	2.009354036943257e+18
14446.0	1.9881851615182938e+18
14447.0	2.0083592453423096e+18
14448.0	2.0079099749859328e+18
14449.0	2.0074301432528893e+18
14450.0	2.0069382772228093e+18
14451.0	2.0064602255523835e+18
14452.0	2.0059723088789496e+18
14453.0	2.0050310449856512e+18
14454.0	2.0050071760404477e+18
14455.0	2.0045222255788032e+18
14456.0	2.0039380244627453e+18
14457.0	2.0033819503493115e+18
14458.0	2.0023716331126784e+18
14459.0	2.0024560124428288e+18
14460.0	2.002047829488435e+18
14461.0	2.0010705516232696e+18
14462.0	1.9976979033882632e+18
14463.0	2.0004562018500603e+18
14464.0	2.0001608305737725e+18
14465.0	1.999680316008038e+18
14466.0	1.999228453571788e+18
14467.0	1.99842902090711e+18
14468.0	1.998257447029964e+18
14469.0	1.9976078751694843e+18
14470.0	1.9972765519970296e+18
14471.0	1.9968185507774461e+18
14472.0	1.996355508004454e+18
14473.0	1.99590610510807e+18
14474.0	1.9954349740392443e+18
14475.0	1.9949365934161912e+18
14476.0	1.9930675830325256e+18
14477.0	1.993992517661491e+18
14478.0	1.9935156118749181e+18
14479.0	1.9930055073333243e+18
14480.0	1.9925330307317755e+18
14481.0	1.9921004302172155e+18
14482.0	1.9916158320771072e+18
14483.0	1.9911178104864763e+18
14484.0	1.9906650202701821e+18
14485.0	1.9900998176735227e+18
14486.0	1.9890779795226627e+18
14487.0	1.9892084760641528e+18
14488.0	1.9876806286901253e+18
14489.0	1.9879349461188603e+18
14490.0	1.9877347234676733e+18
14491.0	1.987343005673062e+18
14492.0	1.9868313425281021e+18
14493.0	1.9862520890130427e+18
14494.0	1.9858315680940027e+18
14495.0	1.9854437442912253e+18
14496.0	1.984675471949824e+18
14497.0	1.984492283206041e+18
14498.0	1.984014333876633e+18
14499.0	1.9835506938347515e+18
14500.0	1.9830753047085048e+18
14501.0	1.981898792370176e+18
14502.0	1.980522134555854e+18
14503.0	1.9813758029266934e+18
14504.0	1.9811633463295997e+18
14505.0	1.980039351710514e+18
14506.0	1.978710138185318e+18
14507.0	1.9792315891580928e+18
14508.0	1.9792837226790907e+18
14509.0	1.9788098518908925e+18
14510.0	1.9783339913248765e+18
14511.0	1.977865886865817e+18
14512.0	1.9773521953554427e+18
14513.0	1.9769156471619581e+18
14514.0	1.976217766985728e+18
14515.0	1.975953770781081e+18
14516.0	1.9713563186692127e+18
14517.0	1.9750279805140987e+18
14518.0	1.9745542187778045e+18
14519.0	1.9740796752232443e+18
14520.0	1.9736099718955005e+18
14521.0	1.9731234611527675e+18
14522.0	1.9725865717858296e+18
14523.0	1.9701840996204529e+18
14524.0	1.9700723281297393e+18
14525.0	1.9712356904861693e+18
14526.0	1.9707610009698301e+18
14527.0	1.9701387508056061e+18
14528.0	1.9689849195855862e+18
14529.0	1.969339752670822e+18
14530.0	1.968845083167948e+18
14531.0	1.9684164152328187e+18
14532.0	1.9653936440934397e+18
14533.0	1.9674759902003197e+18
14534.0	1.9670101523431421e+18
14535.0	1.9665092299718653e+18
14536.0	1.9660562216517627e+18
14537.0	1.965560835761766e+18
14538.0	1.9651170213560315e+18
14539.0	1.964654525520281e+18
14540.0	1.964184889301401e+18
14541.0	1.9636590561198075e+18
14542.0	1.963235798836838e+18
14543.0	1.961763646786764e+18
14544.0	1.9623001905430528e+18
14545.0	1.9617942685614077e+18
14546.0	1.900429933386118e+18
14547.0	1.9053444094492406e+18
14548.0	1.9603929062965245e+18
14549.0	1.959696250857062e+18
14550.0	1.9594641649172475e+18
14551.0	1.959022575170355e+18
14552.0	1.9585157824512e+18
14553.0	1.958033533121331e+18
14554.0	1.9576129971027963e+18
14555.0	1.9571382203449341e+18
14556.0	1.9566225659002877e+18
14557.0	1.956196231675904e+18
14558.0	1.955713502517657e+18
14559.0	1.950228649764442e+18
14560.0	1.953007944912073e+18
14561.0	1.9543077630771197e+18
14562.0	1.953722375811891e+18
14563.0	1.953386207379456e+18
14564.0	1.9525480327675901e+18
14565.0	1.9524677135237117e+18
14566.0	1.9520007163609083e+18
14567.0	1.9515140781113341e+18
14568.0	1.9497875532677128e+18
14569.0	1.9505632696598525e+18
14570.0	1.948561403858125e+18
14571.0	1.9496506293747712e+18
14572.0	1.9486352303194112e+18
14573.0	1.9485050173128701e+18
14574.0	1.9472184497930235e+18
14575.0	1.947670000173056e+18
14576.0	1.9472397300137981e+18
14577.0	1.946838318343782e+18
14578.0	1.9463871722946555e+18
14579.0	1.9459242704502784e+18
14580.0	1.9454578655231997e+18
14581.0	1.9448784375250936e+18
14582.0	1.9444965125914624e+18
14583.0	1.9440653666615296e+18
14584.0	1.94349810885591e+18
14585.0	1.9431328470532093e+18
14586.0	1.9426602714660861e+18
14587.0	1.9421683718815744e+18
14588.0	1.9417228680101888e+18
14589.0	1.9412880109600765e+18
14590.0	1.9408450622586875e+18
14591.0	1.9403314579898365e+18
14592.0	1.939922778429849e+18
14593.0	1.9392173787054077e+18
14594.0	1.9390474842275835e+18
14595.0	1.9385888001753088e+18
14596.0	1.9366089477586913e+18
14597.0	1.9360310498426847e+18
14598.0	1.937150514613452e+18
14599.0	1.9368160490684416e+18
14600.0	1.936294786000486e+18
14601.0	1.9358863933308925e+18
14602.0	1.935197192008499e+18
14603.0	1.9348888167120893e+18
14604.0	1.93427828375552e+18
14605.0	1.9336016871555064e+18
14606.0	1.9331410938560512e+18
14607.0	1.9332281172754424e+18
14608.0	1.9327561389572088e+18
14609.0	1.932095896787353e+18
14610.0	1.930952237593395e+18
14611.0	1.9313151858180093e+18
14612.0	1.9309902497316861e+18
14613.0	1.9305653935800315e+18
14614.0	1.930111472579379e+18
14615.0	1.9293678023475197e+18
14616.0	1.9292342909403133e+18
14617.0	1.928787179811635e+18
14618.0	1.9278159836872707e+18
14619.0	1.9269761397424082e+18
14620.0	1.9229056197197832e+18
14621.0	1.9270072329568253e+18
14622.0	1.9265538052063227e+18
14623.0	1.9261132254478333e+18
14624.0	1.9255369633103864e+18
14625.0	1.9252115054526461e+18
14626.0	1.9247227633401853e+18
14627.0	1.924240576086016e+18
14628.0	1.923885529930137e+18
14629.0	1.92343918552023e+18
14630.0	1.9229628535144443e+18
14631.0	1.9225227821055997e+18
14632.0	1.9130356842102835e+18
14633.0	1.920367317535945e+18
14634.0	1.9211391667798016e+18
14635.0	1.915052592463837e+18
14636.0	1.901252877641311e+18
14637.0	1.919868955367833e+18
14638.0	1.9192363486281728e+18
14639.0	1.9188863742246907e+18
14640.0	1.9185197652115453e+18
14641.0	1.8867640638373668e+18
14642.0	1.9176255429541883e+18
14643.0	1.917172157146726e+18
14644.0	1.91667712861143e+18
14645.0	1.9162183237631997e+18
14646.0	1.9152699664629755e+18
14647.0	1.9148782469906424e+18
14648.0	1.9148803592421368e+18
