# Flux units: erg / (cm m2 s)
# Wavelength units: Angstrom
wave	flux
14000.0	2.243349504117964e+18
14001.0	2.2428610690285565e+18
14002.0	2.2423821600423933e+18
14003.0	2.2418780315451387e+18
14004.0	2.2413736128020477e+18
14005.0	2.2408691370164221e+18
14006.0	2.2403616715309053e+18
14007.0	2.239856078382694e+18
14008.0	2.239310125963673e+18
14009.0	2.2388518244319227e+18
14010.0	2.23834175176704e+18
14011.0	2.2375897482919933e+18
14012.0	2.2373407911837693e+18
14013.0	2.2368374747037693e+18
14014.0	2.2363313480400893e+18
14015.0	2.2358298250444795e+18
14016.0	2.235327852419481e+18
14017.0	2.2348249033605115e+18
14018.0	2.2343218351833083e+18
14019.0	2.23381935924183e+18
14020.0	2.2333163950833661e+18
14021.0	2.2328135148109821e+18
14022.0	2.2322708406599677e+18
14023.0	2.231701973919334e+18
14024.0	2.2312134482329595e+18
14025.0	2.2307347355402237e+18
14026.0	2.230234192334028e+18
14027.0	2.229733372303769e+18
14028.0	2.2292315255078904e+18
14029.0	2.2287288029413373e+18
14030.0	2.2256157921902612e+18
14031.0	2.227675690382131e+18
14032.0	2.227222843123302e+18
14033.0	2.2266803954647037e+18
14034.0	2.226216280627609e+18
14035.0	2.2257225103835133e+18
14036.0	2.2252140684640253e+18
14037.0	2.2247207377829883e+18
14038.0	2.2242224561455096e+18
14039.0	2.22372233740288e+18
14040.0	2.223131319703961e+18
14041.0	2.2225873553850365e+18
14042.0	2.2220841748004861e+18
14043.0	2.2215726693613565e+18
14044.0	2.221085329824153e+18
14045.0	2.2205888735477755e+18
14046.0	2.220088080361062e+18
14047.0	2.2195776335642621e+18
14048.0	2.2190879334727677e+18
14049.0	2.2185930307665915e+18
14050.0	2.2180943884189686e+18
14051.0	2.2175916306202624e+18
14052.0	2.217097024870809e+18
14053.0	2.2165984865419261e+18
14054.0	2.2161002132930555e+18
14055.0	2.215601966887731e+18
14056.0	2.2151038412783616e+18
14057.0	2.2146058733748221e+18
14058.0	2.2141080111677437e+18
14059.0	2.2136028626157565e+18
14060.0	2.213045869110886e+18
14061.0	2.212545627894579e+18
14062.0	2.212050859406131e+18
14063.0	2.211545902114406e+18
14064.0	2.2106834642927616e+18
14065.0	2.2105555061440512e+18
14066.0	2.2100618550181883e+18
14067.0	2.2095087387279357e+18
14068.0	2.2090684928360443e+18
14069.0	2.2085655655874555e+18
14070.0	2.2080733908566016e+18
14071.0	2.2075779244359677e+18
14072.0	2.2070829126778875e+18
14073.0	2.2065868070453243e+18
14074.0	2.2060907064459261e+18
14075.0	2.2055841016315901e+18
14076.0	2.2050386659508221e+18
14077.0	2.203985729552384e+18
14078.0	2.2040608109494272e+18
14079.0	2.2036094014980093e+18
14080.0	2.203117881078579e+18
14081.0	2.202622818988851e+18
14082.0	2.2020911540469755e+18
14083.0	2.2015667033079805e+18
14084.0	2.201071965018521e+18
14085.0	2.2001006850080765e+18
14086.0	2.2000322591326203e+18
14087.0	2.199588599077273e+18
14088.0	2.1990804406927357e+18
14089.0	2.198551738607206e+18
14090.0	2.1980956835446784e+18
14091.0	2.197612058483097e+18
14092.0	2.1971185835180024e+18
14093.0	2.1966248803827704e+18
14094.0	2.1961311101386747e+18
14095.0	2.1956366872608765e+18
14096.0	2.1950163027230717e+18
14097.0	2.1946066316296187e+18
14098.0	2.194098359160012e+18
14099.0	2.193664523842355e+18
14100.0	2.1931632223059963e+18
14101.0	2.192680358930022e+18
14102.0	2.1921877513469947e+18
14103.0	2.1916898304196605e+18
14104.0	2.191203281089331e+18
14105.0	2.190710504056422e+18
14106.0	2.1902190373240827e+18
14107.0	2.189686015105433e+18
14108.0	2.1891592356888573e+18
14109.0	2.1886757632999421e+18
14110.0	2.1881793892319224e+18
14111.0	2.187684008375091e+18
14112.0	2.1871969993490427e+18
14113.0	2.1866783300386816e+18
14114.0	2.1862123294425083e+18
14115.0	2.185722087446937e+18
14116.0	2.1851116434096123e+18
14117.0	2.1804463694020608e+18
14118.0	2.1842514336022523e+18
14119.0	2.1836847445442555e+18
14120.0	2.1832056761745405e+18
14121.0	2.1827621872467965e+18
14122.0	2.1822265360383992e+18
14123.0	2.1816985922830333e+18
14124.0	2.1812012937904123e+18
14125.0	2.1806115343826936e+18
14126.0	2.1803092206944248e+18
14127.0	2.1798464631341048e+18
14128.0	2.1793570432221184e+18
14129.0	2.1788629055569917e+18
14130.0	2.1783692846301176e+18
14131.0	2.177885785397657e+18
14132.0	2.1773975986110461e+18
14133.0	2.1766671840575478e+18
14134.0	2.1764101470420987e+18
14135.0	2.1758380540428283e+18
14136.0	2.1751807629852672e+18
14137.0	2.17488247750656e+18
14138.0	2.1743488966066168e+18
14139.0	2.1739176953118717e+18
14140.0	2.173419858270617e+18
14141.0	2.1729063815086077e+18
14142.0	2.172076447865241e+18
14143.0	2.1719557794168827e+18
14144.0	2.1714793803022328e+18
14145.0	2.1709925675696125e+18
14146.0	2.1704992603766776e+18
14147.0	2.170012615416217e+18
14148.0	2.1695107283550203e+18
14149.0	2.1690191307603965e+18
14150.0	2.1685575895482358e+18
14151.0	2.1680333418135547e+18
14152.0	2.1675844304895995e+18
14153.0	2.1670978358607872e+18
14154.0	2.1665992136458232e+18
14155.0	2.1658517937061883e+18
14156.0	2.1656028349202424e+18
14157.0	2.1651522962063357e+18
14158.0	2.1646630155452416e+18
14159.0	2.164181511123763e+18
14160.0	2.163693218640691e+18
14161.0	2.1631825805836283e+18
14162.0	2.1626757375328256e+18
14163.0	2.162236063744e+18
14164.0	2.161602603044044e+18
14165.0	2.1611729167319032e+18
14166.0	2.1607453930029048e+18
14167.0	2.1602301512777725e+18
14168.0	2.1597322974593021e+18
14169.0	2.159264065493401e+18
14170.0	2.1587704345001981e+18
14171.0	2.158296323797811e+18
14172.0	2.157815190152806e+18
14173.0	2.1572848036347901e+18
14174.0	2.1568405110783995e+18
14175.0	2.1563629576912893e+18
14176.0	2.1558753010647037e+18
14177.0	2.1553939795148795e+18
14178.0	2.1549104735715325e+18
14179.0	2.15441896154071e+18
14180.0	2.1539449783451645e+18
14181.0	2.153461708960563e+18
14182.0	2.1529781862399992e+18
14183.0	2.152495410105548e+18
14184.0	2.1520098875408376e+18
14185.0	2.151527881480601e+18
14186.0	2.1502108616359936e+18
14187.0	2.1505488671735805e+18
14188.0	2.1500811150360573e+18
14189.0	2.1495911951630333e+18
14190.0	2.1491107711942648e+18
14191.0	2.148620621473382e+18
14192.0	2.1480649097478144e+18
14193.0	2.1474438574768125e+18
14194.0	2.1470977888092157e+18
14195.0	2.1466243626172416e+18
14196.0	2.1461429991243773e+18
14197.0	2.145661697707212e+18
14198.0	2.1451783612137467e+18
14199.0	2.1446973919854587e+18
14200.0	2.1437274658963456e+18
14201.0	2.143715466831462e+18
14202.0	2.143233370174259e+18
14203.0	2.1427043560325112e+18
14204.0	2.1422280760360955e+18
14205.0	2.1417519805890555e+18
14206.0	2.1412158461968376e+18
14207.0	2.140792736553369e+18
14208.0	2.1403128075124733e+18
14209.0	2.139773487126937e+18
14210.0	2.139310801708646e+18
14211.0	2.1388725925707773e+18
14212.0	2.1383926987620352e+18
14213.0	2.1379025993727995e+18
14214.0	2.1374335319015421e+18
14215.0	2.1369468735193083e+18
14216.0	2.136475205579571e+18
14217.0	2.1359962680721405e+18
14218.0	2.1355114233069565e+18
14219.0	2.135038231996006e+18
14220.0	2.1345555179372544e+18
14221.0	2.1340670509711355e+18
14222.0	2.1335116915671037e+18
14223.0	2.1331204770889725e+18
14224.0	2.1326443883528184e+18
14225.0	2.1307816727805962e+18
14226.0	2.1316825690144765e+18
14227.0	2.1312101008015357e+18
14228.0	2.1277143950426117e+18
14229.0	2.1296924506193892e+18
14230.0	2.1297772762234877e+18
14231.0	2.12921111061463e+18
14232.0	2.1288225670692861e+18
14233.0	2.1283424014696445e+18
14234.0	2.1278681448054784e+18
14235.0	2.1273899605950461e+18
14236.0	2.126913834949017e+18
14237.0	2.1264347917451261e+18
14238.0	2.1259583003557883e+18
14239.0	2.1254715178221565e+18
14240.0	2.124380013959577e+18
14241.0	2.12451684557783e+18
14242.0	2.1240477881729021e+18
14243.0	2.1234482275155965e+18
14244.0	2.12304276750336e+18
14245.0	2.1225595903934461e+18
14246.0	2.1220783946727421e+18
14247.0	2.1216122581811195e+18
14248.0	2.1211327838027773e+18
14249.0	2.1206622466473984e+18
14250.0	2.1201865387540477e+18
14251.0	2.1197122049146877e+18
14252.0	2.1192367553904637e+18
14253.0	2.1187610458193917e+18
14254.0	2.1182848312541176e+18
14255.0	2.117795825739366e+18
14256.0	2.1158548561985544e+18
14257.0	2.116804047326412e+18
14258.0	2.1163856738910203e+18
14259.0	2.1159019531993088e+18
14260.0	2.1153942108897275e+18
14261.0	2.1149524365934587e+18
14262.0	2.114500278878208e+18
14263.0	2.1118734013825037e+18
14264.0	2.1131612456484856e+18
14265.0	2.1130707778666493e+18
14266.0	2.112607040516915e+18
14267.0	2.112133669689753e+18
14268.0	2.1116602770522112e+18
14269.0	2.1111856932323325e+18
14270.0	2.110713295483699e+18
14271.0	2.11023821841367e+18
14272.0	2.109765030458163e+18
14273.0	2.109286673442406e+18
14274.0	2.1055912131166223e+18
14275.0	2.1080424667152384e+18
14276.0	2.1078598534299643e+18
14277.0	2.107392027472691e+18
14278.0	2.1069296624992248e+18
14279.0	2.1064569879265275e+18
14280.0	2.1059818454253565e+18
14281.0	2.1055129910247421e+18
14282.0	2.1050409791520765e+18
14283.0	2.104568891781939e+18
14284.0	2.1040967742128125e+18
14285.0	2.1036239117352955e+18
14286.0	2.1031489118404603e+18
14287.0	2.1026812469444608e+18
14288.0	2.1022099564920827e+18
14289.0	2.1013364608073718e+18
14290.0	2.1012653891649533e+18
14291.0	2.1007837639475197e+18
14292.0	2.1002677320155133e+18
14293.0	2.0997955305603067e+18
14294.0	2.0992612601167867e+18
14295.0	2.0988470121988093e+18
14296.0	2.0980566526525437e+18
14297.0	2.0979117495156733e+18
14298.0	2.096943046485606e+18
14299.0	2.0969512572551165e+18
14300.0	2.096497490604851e+18
14301.0	2.0960300454903805e+18
14302.0	2.0955584295600125e+18
14303.0	2.095070076678963e+18
14304.0	2.0946108356231163e+18
14305.0	2.0941423654207483e+18
14306.0	2.0936244443742203e+18
14307.0	2.0931689211494397e+18
14308.0	2.092710201865011e+18
14309.0	2.092216587649024e+18
14310.0	2.09155968246743e+18
14311.0	2.0909002858692605e+18
14312.0	2.0906864468295677e+18
14313.0	2.0903122192826365e+18
14314.0	2.0898786540781565e+18
14315.0	2.0894376095907837e+18
14316.0	2.08895501968343e+18
14317.0	2.0884383351177216e+18
14318.0	2.0880471474831355e+18
14319.0	2.087581455587737e+18
14320.0	2.0871141312692221e+18
14321.0	2.0866470384762877e+18
14322.0	2.0861605914869755e+18
14323.0	2.0857034861707261e+18
14324.0	2.085242453308211e+18
14325.0	2.0847720453373947e+18
14326.0	2.0842324347060221e+18
14327.0	2.0837609798369275e+18
14328.0	2.083294081659699e+18
14329.0	2.0828296983871483e+18
14330.0	2.0823624696987645e+18
14331.0	2.081871793173299e+18
14332.0	2.081376361984819e+18
14333.0	2.0809094621298683e+18
14334.0	2.0804425924739072e+18
14335.0	2.0799691914477565e+18
14336.0	2.0793533250142205e+18
14337.0	2.0790422016098301e+18
14338.0	2.0785750467411968e+18
14339.0	2.0780984697880573e+18
14340.0	2.0776417839022072e+18
14341.0	2.0771649603239933e+18
14342.0	2.076711094688153e+18
14343.0	2.0762413410287616e+18
14344.0	2.0757756172566528e+18
14345.0	2.0753117842767872e+18
14346.0	2.074838566122291e+18
14347.0	2.0742785292304376e+18
14348.0	2.0738539633246203e+18
14349.0	2.0733937810669563e+18
14350.0	2.0728086236495864e+18
14351.0	2.0723322866106365e+18
14352.0	2.07199543534551e+18
14353.0	2.0715337532047355e+18
14354.0	2.0710537151119355e+18
14355.0	2.0705590523199483e+18
14356.0	2.0701057420099581e+18
14357.0	2.069674542392934e+18
14358.0	2.06920984035328e+18
14359.0	2.068737580177817e+18
14360.0	2.0682697995190272e+18
14361.0	2.067811810043494e+18
14362.0	2.0673518173683712e+18
14363.0	2.066887046542131e+18
14364.0	2.066021387495014e+18
14365.0	2.0658829687521275e+18
14366.0	2.065431017396633e+18
14367.0	2.065031895816601e+18
14368.0	2.0645678514438136e+18
14369.0	2.064104330520166e+18
14370.0	2.0636410176339965e+18
14371.0	2.0631780386144256e+18
14372.0	2.0627112192901117e+18
14373.0	2.062249387832115e+18
14374.0	2.0617877207908347e+18
14375.0	2.0613244515254267e+18
14376.0	2.0608612728569853e+18
14377.0	2.0603979213832187e+18
14378.0	2.0599339978063867e+18
14379.0	2.0594722653339643e+18
14380.0	2.0590089608364027e+18
14381.0	2.0585409671069693e+18
14382.0	2.0580832611663872e+18
14383.0	2.0576150493331448e+18
14384.0	2.0571490554478587e+18
14385.0	2.0566966259417083e+18
14386.0	2.0562269695901693e+18
14387.0	2.0557719849140221e+18
14388.0	2.0553088800653307e+18
14389.0	2.0548477247291387e+18
14390.0	2.0543850158227456e+18
14391.0	2.0539199195185144e+18
14392.0	2.053460537534054e+18
14393.0	2.0530005163376637e+18
14394.0	2.0525201376673787e+18
14395.0	2.0520400391766016e+18
14396.0	2.0516138005823488e+18
14397.0	2.0511545779814397e+18
14398.0	2.0506919210844155e+18
14399.0	2.0502294487367675e+18
14400.0	2.049749427421184e+18
14401.0	2.0493054569873403e+18
14402.0	2.048847437312819e+18
14403.0	2.0468677459574756e+18
14404.0	2.043780520109669e+18
14405.0	2.0467966055284718e+18
14406.0	2.047004470201549e+18
14407.0	2.0443700228259845e+18
14408.0	2.046018000099737e+18
14409.0	2.0456158988861437e+18
14410.0	2.0451348038287355e+18
14411.0	2.0446625134542845e+18
14412.0	2.0441886644764667e+18
14413.0	2.0437298243960827e+18
14414.0	2.0432682462740477e+18
14415.0	2.0428084633141243e+18
14416.0	2.042328769154252e+18
14417.0	2.041825445963366e+18
14418.0	2.041366459921203e+18
14419.0	2.0409668434132987e+18
14420.0	2.0405058239725565e+18
14421.0	2.0400474821754875e+18
14422.0	2.0395854661681147e+18
14423.0	2.0390974068883448e+18
14424.0	2.029763560472571e+18
14425.0	2.038196438512435e+18
14426.0	2.037748983450828e+18
14427.0	2.0372912959651837e+18
14428.0	2.0368212537376765e+18
14429.0	2.036371184785817e+18
14430.0	2.0359135946080253e+18
14431.0	2.0348080347938816e+18
14432.0	2.034988072776499e+18
14433.0	2.032919648403455e+18
14434.0	2.0340678542229501e+18
14435.0	2.0335243244339197e+18
14436.0	2.0331589972000765e+18
14437.0	2.0327022291058683e+18
14438.0	2.0321386002120701e+18
14439.0	2.0317690585415675e+18
14440.0	2.0313267574407168e+18
14441.0	2.030866115487334e+18
14442.0	2.0304059919499261e+18
14443.0	2.0299302890897403e+18
14444.0	2.0294918350045176e+18
14445.0	2.0290352749477888e+18
14446.0	2.0267044817600515e+18
14447.0	2.028110377228697e+18
14448.0	2.0276616101888e+18
14449.0	2.0272037398315003e+18
14450.0	2.0267429032624128e+18
14451.0	2.0262868817543165e+18
14452.0	2.0258270920835072e+18
14453.0	2.0253399773609976e+18
14454.0	2.0249126214041592e+18
14455.0	2.0244517647024125e+18
14456.0	2.0239825646911483e+18
14457.0	2.02352312230871e+18
14458.0	2.0230596047405053e+18
14459.0	2.0226019088662525e+18
14460.0	2.0221251372974077e+18
14461.0	2.021561144338022e+18
14462.0	2.0208233025110016e+18
14463.0	2.0207103767478264e+18
14464.0	2.0203084735053821e+18
14465.0	2.019857941502361e+18
14466.0	2.0194169305694203e+18
14467.0	2.0189346745286653e+18
14468.0	2.018505211353497e+18
14469.0	2.017992702636851e+18
14470.0	2.017580917614182e+18
14471.0	2.0171352963022843e+18
14472.0	2.0166812125626365e+18
14473.0	2.0162284106022907e+18
14474.0	2.0157730568273912e+18
14475.0	2.0153134030520312e+18
14476.0	2.0147545002999805e+18
14477.0	2.014400918795059e+18
14478.0	2.0139475766083584e+18
14479.0	2.0134868474134528e+18
14480.0	2.0130256987881464e+18
14481.0	2.0125792285491197e+18
14482.0	2.0121213061824512e+18
14483.0	2.0116617681698816e+18
14484.0	2.0112066845081597e+18
14485.0	2.010736690934579e+18
14486.0	2.0101592745246715e+18
14487.0	2.0098337378140155e+18
14488.0	2.0092640590561277e+18
14489.0	2.0088142988050427e+18
14490.0	2.0084118016491517e+18
14491.0	2.0079685392138237e+18
14492.0	2.0075120160669693e+18
14493.0	2.0070474365009917e+18
14494.0	2.006587801180569e+18
14495.0	2.006145005151846e+18
14496.0	2.0056260523065344e+18
14497.0	2.0052337791860733e+18
14498.0	2.0047782693830653e+18
14499.0	2.0043229843947515e+18
14500.0	2.003867070260838e+18
14501.0	2.0033596869836797e+18
14502.0	2.0027660923043837e+18
14503.0	2.0024633759629307e+18
14504.0	2.002041507833446e+18
14505.0	2.001538656082329e+18
14506.0	2.001028353569587e+18
14507.0	2.0005621264809984e+18
14508.0	2.0002215540293635e+18
14509.0	1.9997659485962235e+18
14510.0	1.9993089774977021e+18
14511.0	1.9988544625836027e+18
14512.0	1.998391050711859e+18
14513.0	1.997943115821875e+18
14514.0	1.9974682602110968e+18
14515.0	1.9970313831841787e+18
14516.0	1.995578377293005e+18
14517.0	1.9961197713424381e+18
14518.0	1.9956648000880637e+18
14519.0	1.9952092701523963e+18
14520.0	1.9947536110321661e+18
14521.0	1.9942973647093755e+18
14522.0	1.9938315486625787e+18
14523.0	1.9931995526135808e+18
14524.0	1.992810618159103e+18
14525.0	1.992471956632371e+18
14526.0	1.992019181515571e+18
14527.0	1.9915514612547581e+18
14528.0	1.9910352699391997e+18
14529.0	1.990646619019673e+18
14530.0	1.9901890170978301e+18
14531.0	1.9897397467414528e+18
14532.0	1.9891291064107005e+18
14533.0	1.9888282120749053e+18
14534.0	1.9883737978241024e+18
14535.0	1.987912570345881e+18
14536.0	1.9874622413471744e+18
14537.0	1.9870006045048832e+18
14538.0	1.9865508543201277e+18
14539.0	1.986095317673574e+18
14540.0	1.9856395495014392e+18
14541.0	1.9851732066500603e+18
14542.0	1.9847277531103224e+18
14543.0	1.984196007637811e+18
14544.0	1.9838155305779192e+18
14545.0	1.983353165604454e+18
14546.0	1.973426724431457e+18
14547.0	1.9739168858963901e+18
14548.0	1.9819849484075008e+18
14549.0	1.9814797948223483e+18
14550.0	1.9810775543578624e+18
14551.0	1.9806249419800573e+18
14552.0	1.9801679171944443e+18
14553.0	1.9797095720419325e+18
14554.0	1.9792567465934843e+18
14555.0	1.9787999332007933e+18
14556.0	1.9783408716611584e+18
14557.0	1.9778867359121405e+18
14558.0	1.9774275435102205e+18
14559.0	1.9761771225022446e+18
14560.0	1.9764546595979261e+18
14561.0	1.9760553014591483e+18
14562.0	1.975576773315788e+18
14563.0	1.9751410606276605e+18
14564.0	1.9746234717700093e+18
14565.0	1.9742343057899517e+18
14566.0	1.9737775846719483e+18
14567.0	1.9733137550475261e+18
14568.0	1.9727584359088125e+18
14569.0	1.9723988632600573e+18
14570.0	1.9716679504232445e+18
14571.0	1.97148847112192e+18
14572.0	1.9709641109798907e+18
14573.0	1.970536219829862e+18
14574.0	1.969958498074624e+18
14575.0	1.9696335435333627e+18
14576.0	1.969179320542822e+18
14577.0	1.9687456479641597e+18
14578.0	1.9682895794798587e+18
14579.0	1.9678026895720445e+18
14580.0	1.9673286795329533e+18
14581.0	1.9668633332482043e+18
14582.0	1.9664038908657664e+18
14583.0	1.9659563905056765e+18
14584.0	1.9654695375077373e+18
14585.0	1.9650405692604416e+18
14586.0	1.9645812577402875e+18
14587.0	1.9641224294039552e+18
14588.0	1.9636663441424381e+18
14589.0	1.9632202211917824e+18
14590.0	1.962775000855347e+18
14591.0	1.962321398621798e+18
14592.0	1.9618778828505083e+18
14593.0	1.961380787362201e+18
14594.0	1.9609906684362747e+18
14595.0	1.9605413007720443e+18
14596.0	1.959770136038604e+18
14597.0	1.9592617780051958e+18
14598.0	1.9591691979718648e+18
14599.0	1.958754936632115e+18
14600.0	1.9582965914796027e+18
14601.0	1.9578532971675643e+18
14602.0	1.9573851675426816e+18
14603.0	1.9569542296502264e+18
14604.0	1.95646475772887e+18
14605.0	1.9559882092969984e+18
14606.0	1.9555715270049784e+18
14607.0	1.9551655368327165e+18
14608.0	1.9546261812150272e+18
14609.0	1.9541328941547515e+18
14610.0	1.9535982596456443e+18
14611.0	1.9532279948771325e+18
14612.0	1.9528077608484861e+18
14613.0	1.9523651510468603e+18
14614.0	1.9519168504135677e+18
14615.0	1.951461743263744e+18
14616.0	1.951021423552102e+18
14617.0	1.9505718780493824e+18
14618.0	1.9500656272343037e+18
14619.0	1.9494175468683256e+18
14620.0	1.9482923912658944e+18
14621.0	1.9487711442239488e+18
14622.0	1.94831976497152e+18
14623.0	1.9478707445956605e+18
14624.0	1.9473915571077117e+18
14625.0	1.9469664073547773e+18
14626.0	1.94651335205847e+18
14627.0	1.9460573825597435e+18
14628.0	1.945611939086336e+18
14629.0	1.945158860301926e+18
14630.0	1.9446976277905408e+18
14631.0	1.9442522514259965e+18
14632.0	1.943103607721165e+18
14633.0	1.9432180501446648e+18
14634.0	1.9428774508494843e+18
14635.0	1.9420834472919025e+18
14636.0	1.941086040122982e+18
14637.0	1.9415280811769853e+18
14638.0	1.9410511183478781e+18
14639.0	1.940593833515417e+18
14640.0	1.9401585603903483e+18
14641.0	1.9369643059707884e+18
14642.0	1.9392091847131133e+18
14643.0	1.9387522639462397e+18
14644.0	1.938285508375347e+18
14645.0	1.937825812656947e+18
14646.0	1.9373153960591355e+18
14647.0	1.9368340661207037e+18
14648.0	1.936442400335462e+18
