# Flux units: erg / (cm m2 s)
# Wavelength units: Angstrom
wave	flux
14000.0	1.7825215887179776e+18
14001.0	1.7820810861346816e+18
14002.0	1.781644068179148e+18
14003.0	1.7812059597045755e+18
14004.0	1.780767960281907e+18
14005.0	1.7803299138830333e+18
14006.0	1.7798916745461755e+18
14007.0	1.779453968724787e+18
14008.0	1.7790113790558205e+18
14009.0	1.7785776276242427e+18
14010.0	1.778140228825907e+18
14011.0	1.7776815850389504e+18
14012.0	1.7772657466408955e+18
14013.0	1.776828825993216e+18
14014.0	1.7763919640657915e+18
14015.0	1.7759551356928e+18
14016.0	1.7755186294423547e+18
14017.0	1.7750818983772155e+18
14018.0	1.774643001373491e+18
14019.0	1.7742071896997888e+18
14020.0	1.7737710324154365e+18
14021.0	1.7733350814908416e+18
14022.0	1.7728992547176448e+18
14023.0	1.77246273840087e+18
14024.0	1.7720274904416253e+18
14025.0	1.7715927290216443e+18
14026.0	1.7711573887877115e+18
14027.0	1.7707223069229053e+18
14028.0	1.7702873357877248e+18
14029.0	1.7698521213829123e+18
14030.0	1.7693796733026304e+18
14031.0	1.7689822311219197e+18
14032.0	1.7685486457847803e+18
14033.0	1.7681121126907904e+18
14034.0	1.7676801161560061e+18
14035.0	1.7672460610568187e+18
14036.0	1.7668121233981437e+18
14037.0	1.766377957569331e+18
14038.0	1.7659446591225853e+18
14039.0	1.765511129150259e+18
14040.0	1.7650777233293312e+18
14041.0	1.764644446692966e+18
14042.0	1.7642101013479421e+18
14043.0	1.7637743416836093e+18
14044.0	1.7633425817075707e+18
14045.0	1.762910207685427e+18
14046.0	1.7624775920713725e+18
14047.0	1.7620449529692157e+18
14048.0	1.761612681288089e+18
14049.0	1.7611805320806397e+18
14050.0	1.7607484768256e+18
14051.0	1.7603161531351035e+18
14052.0	1.7598846599167997e+18
14053.0	1.7594528579977213e+18
14054.0	1.7590214352437243e+18
14055.0	1.7585896182251517e+18
14056.0	1.758158715564851e+18
14057.0	1.7577274907820027e+18
14058.0	1.757296534434611e+18
14059.0	1.7568656300965885e+18
14060.0	1.756434863331737e+18
14061.0	1.7560039455719421e+18
14062.0	1.7555737274220541e+18
14063.0	1.7551427190652925e+18
14064.0	1.754708204270387e+18
14065.0	1.7542827156176893e+18
14066.0	1.7538529319976957e+18
14067.0	1.7534219051859965e+18
14068.0	1.752993480520499e+18
14069.0	1.7525636012703744e+18
14070.0	1.7521319839006717e+18
14071.0	1.7517025777680381e+18
14072.0	1.7512734753030141e+18
14073.0	1.750844418136473e+18
14074.0	1.7504154834436093e+18
14075.0	1.7499859263160315e+18
14076.0	1.749556570515046e+18
14077.0	1.7491203075342333e+18
14078.0	1.7487003520073725e+18
14079.0	1.7482725246107643e+18
14080.0	1.7478446384939003e+18
14081.0	1.7474166332588032e+18
14082.0	1.746987186860851e+18
14083.0	1.746560892901785e+18
14084.0	1.7461333557510141e+18
14085.0	1.7456909304987643e+18
14086.0	1.7452778032988157e+18
14087.0	1.7448512711032827e+18
14088.0	1.7444240443310075e+18
14089.0	1.743995624698675e+18
14090.0	1.7435701897330688e+18
14091.0	1.7431436407603197e+18
14092.0	1.7427170548776957e+18
14093.0	1.7422906065682427e+18
14094.0	1.7418642773770235e+18
14095.0	1.7414380840812541e+18
14096.0	1.7410100184481787e+18
14097.0	1.7405854944854013e+18
14098.0	1.7401587206979581e+18
14099.0	1.7397345255686141e+18
14100.0	1.7393086627839997e+18
14101.0	1.7388821960196093e+18
14102.0	1.7384558802501627e+18
14103.0	1.738030292611891e+18
14104.0	1.737605773682278e+18
14105.0	1.737179998139187e+18
14106.0	1.7367560982888443e+18
14107.0	1.7363288346066941e+18
14108.0	1.7359069513777147e+18
14109.0	1.7354823670169595e+18
14110.0	1.7350568330657787e+18
14111.0	1.734631257171558e+18
14112.0	1.7342101222064125e+18
14113.0	1.733786311275315e+18
14114.0	1.7333621195014141e+18
14115.0	1.73293893100503e+18
14116.0	1.7325102379040768e+18
14117.0	1.732032672772915e+18
14118.0	1.7316687078490112e+18
14119.0	1.7312448230981627e+18
14120.0	1.730821859416473e+18
14121.0	1.7303993134874621e+18
14122.0	1.7299763800047616e+18
14123.0	1.7295517268574205e+18
14124.0	1.7291296473350141e+18
14125.0	1.7286921378070525e+18
14126.0	1.7282877783801853e+18
14127.0	1.7278657273790467e+18
14128.0	1.7274437401313275e+18
14129.0	1.7270215180025853e+18
14130.0	1.7265996700057597e+18
14131.0	1.726178753144422e+18
14132.0	1.7257573279334397e+18
14133.0	1.7253153422442493e+18
14134.0	1.7249148180889597e+18
14135.0	1.7244931110207488e+18
14136.0	1.7240675804250107e+18
14137.0	1.7236507437826048e+18
14138.0	1.723228147521945e+18
14139.0	1.7228085342502907e+18
14140.0	1.7223856359997435e+18
14141.0	1.7219678178902013e+18
14142.0	1.7215407622455293e+18
14143.0	1.7211181223641085e+18
14144.0	1.7207078170918912e+18
14145.0	1.7202880477921277e+18
14146.0	1.719868337212621e+18
14147.0	1.7194488044716027e+18
14148.0	1.7190293891710976e+18
14149.0	1.7186102674718715e+18
14150.0	1.7181910266544123e+18
14151.0	1.7177720341397496e+18
14152.0	1.717353263084339e+18
14153.0	1.7169345037729784e+18
14154.0	1.7165148418473981e+18
14155.0	1.7160502069166075e+18
14156.0	1.7156773467127805e+18
14157.0	1.7152606644207616e+18
14158.0	1.71484200912814e+18
14159.0	1.714424539984691e+18
14160.0	1.7140067671736315e+18
14161.0	1.7135866052870144e+18
14162.0	1.7131673795690493e+18
14163.0	1.7127539587678205e+18
14164.0	1.7123344696475648e+18
14165.0	1.7118937573490688e+18
14166.0	1.7115021200850941e+18
14167.0	1.7110853606178813e+18
14168.0	1.7106679753605112e+18
14169.0	1.7102517561196544e+18
14170.0	1.7098347936481275e+18
14171.0	1.7094182455738365e+18
14172.0	1.70900238368768e+18
14173.0	1.70857484821463e+18
14174.0	1.7081698327986168e+18
14175.0	1.7077541135187968e+18
14176.0	1.7073374110941181e+18
14177.0	1.7069213814358013e+18
14178.0	1.7065043434668027e+18
14179.0	1.706086683063091e+18
14180.0	1.7056738259763195e+18
14181.0	1.705258613368422e+18
14182.0	1.7048434963906557e+18
14183.0	1.7044285606068221e+18
14184.0	1.7040135275151357e+18
14185.0	1.7035990178725885e+18
14186.0	1.7031721736208384e+18
14187.0	1.7027690288644093e+18
14188.0	1.7023555845750784e+18
14189.0	1.701941027956326e+18
14190.0	1.7015272363786237e+18
14191.0	1.7011132250193915e+18
14192.0	1.7006991985606656e+18
14193.0	1.700283846701875e+18
14194.0	1.69987208684503e+18
14195.0	1.6994587784511485e+18
14196.0	1.6990454432137213e+18
14197.0	1.6986322270945277e+18
14198.0	1.6982189639991293e+18
14199.0	1.6978055784300536e+18
14200.0	1.6973865540386813e+18
14201.0	1.6969805655441403e+18
14202.0	1.6965680725229568e+18
14203.0	1.696152875014553e+18
14204.0	1.6957431301013504e+18
14205.0	1.6953309474586624e+18
14206.0	1.6949143977066493e+18
14207.0	1.6945070049591293e+18
14208.0	1.694095179671142e+18
14209.0	1.6936781987446781e+18
14210.0	1.6932687306555387e+18
14211.0	1.6928603748958203e+18
14212.0	1.692449010981273e+18
14213.0	1.6920377712181243e+18
14214.0	1.691626979406643e+18
14215.0	1.691215031644979e+18
14216.0	1.6908051357368323e+18
14217.0	1.6903944328445952e+18
14218.0	1.6899838541037565e+18
14219.0	1.6895733777039352e+18
14220.0	1.6891630321663997e+18
14221.0	1.6887527956807677e+18
14222.0	1.688341388145459e+18
14223.0	1.6879323898183675e+18
14224.0	1.687522866364416e+18
14225.0	1.6870946161819643e+18
14226.0	1.6867017189490685e+18
14227.0	1.6862917576097787e+18
14228.0	1.6858400545570813e+18
14229.0	1.685467736257331e+18
14230.0	1.685064034497331e+18
14231.0	1.6846531319562237e+18
14232.0	1.6842461703831547e+18
14233.0	1.6838374253920253e+18
14234.0	1.6834288011968507e+18
14235.0	1.683020217266995e+18
14236.0	1.6826116182376448e+18
14237.0	1.682203584600473e+18
14238.0	1.6817954955984896e+18
14239.0	1.6813870777630715e+18
14240.0	1.6809287846199293e+18
14241.0	1.6805718644490237e+18
14242.0	1.680164246886809e+18
14243.0	1.6797508025974781e+18
14244.0	1.679349335562649e+18
14245.0	1.6789414009110525e+18
14246.0	1.6785334629040123e+18
14247.0	1.6781277612998653e+18
14248.0	1.677720474248806e+18
14249.0	1.6773141015560187e+18
14250.0	1.6769074352619515e+18
14251.0	1.6765009954603003e+18
14252.0	1.676094582502195e+18
14253.0	1.675688263496499e+18
14254.0	1.675282003211059e+18
14255.0	1.6748749661405181e+18
14256.0	1.67445988942807e+18
14257.0	1.6740642205990907e+18
14258.0	1.6736586582458363e+18
14259.0	1.673252483524198e+18
14260.0	1.6728473959661565e+18
14261.0	1.672441469547315e+18
14262.0	1.6720382727815165e+18
14263.0	1.671617753540198e+18
14264.0	1.671225963603558e+18
14265.0	1.6708222668767232e+18
14266.0	1.6704187026898941e+18
14267.0	1.6700139573870587e+18
14268.0	1.6696096281591803e+18
14269.0	1.6692052167229435e+18
14270.0	1.668801082110771e+18
14271.0	1.668396563300352e+18
14272.0	1.667992779331993e+18
14273.0	1.6675890456952832e+18
14274.0	1.6671631174795261e+18
14275.0	1.6667797446721533e+18
14276.0	1.6663758600404987e+18
14277.0	1.6659739718975485e+18
14278.0	1.665571585471283e+18
14279.0	1.665168435681689e+18
14280.0	1.6647651399303165e+18
14281.0	1.6643611881897981e+18
14282.0	1.6639575719935997e+18
14283.0	1.6635549188096e+18
14284.0	1.6631523209904125e+18
14285.0	1.662749904365158e+18
14286.0	1.662347502839398e+18
14287.0	1.6619454452465661e+18
14288.0	1.6615433457106941e+18
14289.0	1.6611089718444032e+18
14290.0	1.6607390862409728e+18
14291.0	1.66033791951831e+18
14292.0	1.6599363920855037e+18
14293.0	1.6595348612972541e+18
14294.0	1.6591281463492603e+18
14295.0	1.6587322879377403e+18
14296.0	1.6583049588244477e+18
14297.0	1.6579303504347133e+18
14298.0	1.6575202951430141e+18
14299.0	1.6571283844104192e+18
14300.0	1.656728180699955e+18
14301.0	1.656326651589427e+18
14302.0	1.655927113934438e+18
14303.0	1.6555254254403581e+18
14304.0	1.6551264699547648e+18
14305.0	1.654726549779251e+18
14306.0	1.654320911928524e+18
14307.0	1.653925815202611e+18
14308.0	1.6535275626823675e+18
14309.0	1.653127781757747e+18
14310.0	1.6527021622427648e+18
14311.0	1.652313581787545e+18
14312.0	1.651925966022246e+18
14313.0	1.6515260039036928e+18
14314.0	1.6511288888786941e+18
14315.0	1.6507303662452733e+18
14316.0	1.6503297145831421e+18
14317.0	1.6499250531663872e+18
14318.0	1.649534655738675e+18
14319.0	1.6491363377872893e+18
14320.0	1.6487380970110976e+18
14321.0	1.648340000518963e+18
14322.0	1.6479402682482688e+18
14323.0	1.6475436397625341e+18
14324.0	1.6471460230987776e+18
14325.0	1.6467488057327613e+18
14326.0	1.646351304831795e+18
14327.0	1.6459537586323453e+18
14328.0	1.6455563936268285e+18
14329.0	1.6451594883170304e+18
14330.0	1.6447624471117821e+18
14331.0	1.6443654562381821e+18
14332.0	1.6439687421886461e+18
14333.0	1.643572066726707e+18
14334.0	1.6431755053498363e+18
14335.0	1.642777241085542e+18
14336.0	1.6423807199739904e+18
14337.0	1.6419865040519163e+18
14338.0	1.6415903637831675e+18
14339.0	1.641194399675187e+18
14340.0	1.640798613405696e+18
14341.0	1.64040268620759e+18
14342.0	1.6400072472264704e+18
14343.0	1.639610571764531e+18
14344.0	1.6392157887725563e+18
14345.0	1.6388193012154363e+18
14346.0	1.6384237179502595e+18
14347.0	1.6380276766670843e+18
14348.0	1.6376338197774333e+18
14349.0	1.6372390686621696e+18
14350.0	1.6368429569146877e+18
14351.0	1.6364484104814587e+18
14352.0	1.6360553303769085e+18
14353.0	1.6356611194879997e+18
14354.0	1.635266656940851e+18
14355.0	1.6348724141752315e+18
14356.0	1.6344785488969725e+18
14357.0	1.6340848966893563e+18
14358.0	1.6336911522070523e+18
14359.0	1.6332974983217147e+18
14360.0	1.6329039115452413e+18
14361.0	1.63251059991511e+18
14362.0	1.6321173402943485e+18
14363.0	1.6317241595265021e+18
14364.0	1.6313255244857341e+18
14365.0	1.6309375664652285e+18
14366.0	1.6305445585027067e+18
14367.0	1.630152691390873e+18
14368.0	1.6297601045364733e+18
14369.0	1.629367668677017e+18
14370.0	1.6289753217368061e+18
14371.0	1.6285830939148285e+18
14372.0	1.628190847637913e+18
14373.0	1.6277989805260795e+18
14374.0	1.6274071067033595e+18
14375.0	1.6270153419325435e+18
14376.0	1.626623689569075e+18
14377.0	1.6262321294802941e+18
14378.0	1.6258406197231616e+18
14379.0	1.6254494354440187e+18
14380.0	1.6250582444539896e+18
14381.0	1.624667056819404e+18
14382.0	1.624276062122803e+18
14383.0	1.6238834115149821e+18
14384.0	1.6234936784650237e+18
14385.0	1.6231040444006397e+18
14386.0	1.622712935618969e+18
14387.0	1.6223231539150843e+18
14388.0	1.621932806819021e+18
14389.0	1.6215426727936e+18
14390.0	1.6211526377537533e+18
14391.0	1.6207626698227707e+18
14392.0	1.620371064435507e+18
14393.0	1.6199833144524797e+18
14394.0	1.6195922392252408e+18
14395.0	1.619197060290969e+18
14396.0	1.6188145934532605e+18
14397.0	1.618425704297267e+18
14398.0	1.6180349646143485e+18
14399.0	1.617647483066777e+18
14400.0	1.617252750406451e+18
14401.0	1.6168696795889661e+18
14402.0	1.6164812467732477e+18
14403.0	1.6157063491092472e+18
14404.0	1.6147089016750075e+18
14405.0	1.6152706263547896e+18
14406.0	1.614927778912665e+18
14407.0	1.613958973541581e+18
14408.0	1.6141493563555835e+18
14409.0	1.6137607540899837e+18
14410.0	1.613370838168371e+18
14411.0	1.612983812961075e+18
14412.0	1.6125965109297147e+18
14413.0	1.612209249163673e+18
14414.0	1.6118218598907901e+18
14415.0	1.6114347323424763e+18
14416.0	1.611047398434406e+18
14417.0	1.6106586283966461e+18
14418.0	1.6102707576176635e+18
14419.0	1.6098871700619261e+18
14420.0	1.6095004401336315e+18
14421.0	1.6091140927258621e+18
14422.0	1.608726507159552e+18
14423.0	1.6083390927208448e+18
14424.0	1.6055561938272238e+18
14425.0	1.607566850890137e+18
14426.0	1.6071810588082176e+18
14427.0	1.6067954160435197e+18
14428.0	1.6064075234541563e+18
14429.0	1.606024003007283e+18
14430.0	1.6056386236448765e+18
14431.0	1.605244692935475e+18
14432.0	1.6048659992936443e+18
14433.0	1.604050049459814e+18
14434.0	1.6040974299955195e+18
14435.0	1.6037113141133307e+18
14436.0	1.6033281308884987e+18
14437.0	1.6029434461028347e+18
14438.0	1.6025455475818493e+18
14439.0	1.6021714475417595e+18
14440.0	1.601789999081062e+18
14441.0	1.601405460257177e+18
14442.0	1.601021277110272e+18
14443.0	1.6006358927147003e+18
14444.0	1.6002535567392763e+18
14445.0	1.5998698668425213e+18
14446.0	1.5990357640609795e+18
14447.0	1.5991020692963328e+18
14448.0	1.598719224971264e+18
14449.0	1.5983358790074365e+18
14450.0	1.5979526269960187e+18
14451.0	1.5975695041691643e+18
14452.0	1.5971862420914176e+18
14453.0	1.5967946299932672e+18
14454.0	1.596420662493184e+18
14455.0	1.5960379137982464e+18
14456.0	1.5956536283103232e+18
14457.0	1.595269945124454e+18
14458.0	1.594885688157798e+18
14459.0	1.5945049174966267e+18
14460.0	1.5941262053998592e+18
14461.0	1.5937431597481981e+18
14462.0	1.5933513614229501e+18
14463.0	1.592980324902502e+18
14464.0	1.5925989083185147e+18
14465.0	1.5922166461628413e+18
14466.0	1.591835576867225e+18
14467.0	1.591448335233843e+18
14468.0	1.5910724618420221e+18
14469.0	1.5906909664051195e+18
14470.0	1.5903097159155707e+18
14471.0	1.589928998941491e+18
14472.0	1.5895488020611072e+18
14473.0	1.5891684827070467e+18
14474.0	1.5887879133724672e+18
14475.0	1.5884071091568637e+18
14476.0	1.5879989949890552e+18
14477.0	1.587646717073817e+18
14478.0	1.587266513482547e+18
14479.0	1.5868860666216443e+18
14480.0	1.5865064233893888e+18
14481.0	1.586126862365491e+18
14482.0	1.5857470094180347e+18
14483.0	1.5853671145275392e+18
14484.0	1.5849878672375805e+18
14485.0	1.584606959003238e+18
14486.0	1.5842180446814203e+18
14487.0	1.5838501387894781e+18
14488.0	1.5834686165090301e+18
14489.0	1.5830914042953725e+18
14490.0	1.5827122559909888e+18
14491.0	1.5823346025365501e+18
14492.0	1.5819558233309184e+18
14493.0	1.5815770525138941e+18
14494.0	1.5811981961330688e+18
14495.0	1.5808208077586424e+18
14496.0	1.5804374114631675e+18
14497.0	1.5800645009276923e+18
14498.0	1.579686394488422e+18
14499.0	1.5793086756028413e+18
14500.0	1.5789308946415616e+18
14501.0	1.578540158314086e+18
14502.0	1.578153758896947e+18
14503.0	1.5777972145356797e+18
14504.0	1.5774207287754747e+18
14505.0	1.5770310544457725e+18
14506.0	1.5766371858120701e+18
14507.0	1.5762802673188867e+18
14508.0	1.575912666772275e+18
14509.0	1.5755358605672443e+18
14510.0	1.5751591650918397e+18
14511.0	1.5747825669242875e+18
14512.0	1.5744042524475387e+18
14513.0	1.5740276156923901e+18
14514.0	1.573644781433651e+18
14515.0	1.5732745216983037e+18
14516.0	1.572820666128793e+18
14517.0	1.5725231289139195e+18
14518.0	1.5721472337117181e+18
14519.0	1.5717715331252221e+18
14520.0	1.5713958879035387e+18
14521.0	1.5710198551281667e+18
14522.0	1.5706448944168957e+18
14523.0	1.570239607209984e+18
14524.0	1.5698626416214013e+18
14525.0	1.5695190173941757e+18
14526.0	1.5691441875451901e+18
14527.0	1.5687649268334587e+18
14528.0	1.5683866509443067e+18
14529.0	1.568019387619737e+18
14530.0	1.5676445376380925e+18
14531.0	1.5672706104033275e+18
14532.0	1.566837207937843e+18
14533.0	1.5665219422388221e+18
14534.0	1.5661478220660733e+18
14535.0	1.565773599552307e+18
14536.0	1.5653997109051387e+18
14537.0	1.5650253491404795e+18
14538.0	1.5646518128148475e+18
14539.0	1.5642784492945403e+18
14540.0	1.5639048676704256e+18
14541.0	1.5635312390701053e+18
14542.0	1.5631580785541115e+18
14543.0	1.562766015148851e+18
14544.0	1.562411619948953e+18
14545.0	1.5620379041071101e+18
14546.0	1.559039265315223e+18
14547.0	1.558981778184599e+18
14548.0	1.560919456035635e+18
14549.0	1.5605429753085947e+18
14550.0	1.5601747607158784e+18
14551.0	1.5598023383973888e+18
14552.0	1.5594291241943037e+18
14553.0	1.5590566263783421e+18
14554.0	1.5586856049573888e+18
14555.0	1.5583134795956221e+18
14556.0	1.5579407871639555e+18
14557.0	1.5575697724538875e+18
14558.0	1.5571980145131515e+18
14559.0	1.556761494840934e+18
14560.0	1.5564483195830272e+18
14561.0	1.556083207097548e+18
14562.0	1.5557108283998205e+18
14563.0	1.5553408505217021e+18
14564.0	1.5549687385817085e+18
14565.0	1.5545986801729533e+18
14566.0	1.5542277325717504e+18
14567.0	1.5538568621457405e+18
14568.0	1.5534814182506493e+18
14569.0	1.5531154635489277e+18
14570.0	1.5527271699841021e+18
14571.0	1.5523743182880765e+18
14572.0	1.5520014815723515e+18
14573.0	1.5516326311231485e+18
14574.0	1.5512607490310141e+18
14575.0	1.5508933145788413e+18
14576.0	1.550523527960985e+18
14577.0	1.5501537279213563e+18
14578.0	1.5497838607728637e+18
14579.0	1.5494141177757693e+18
14580.0	1.5490446868348925e+18
14581.0	1.5486724943642621e+18
14582.0	1.5483057662328832e+18
14583.0	1.5479364711874557e+18
14584.0	1.5475667852328957e+18
14585.0	1.5471981830864893e+18
14586.0	1.5468289652162552e+18
14587.0	1.5464595577634813e+18
14588.0	1.546092725613363e+18
14589.0	1.545737959636992e+18
14590.0	1.5453853679878141e+18
14591.0	1.5450327478173693e+18
14592.0	1.5446803927269373e+18
14593.0	1.5443234708783096e+18
14594.0	1.5439758134083581e+18
14595.0	1.5436233761095677e+18
14596.0	1.5432652010029053e+18
14597.0	1.5429147870363643e+18
14598.0	1.542567225196544e+18
14599.0	1.5422156921896957e+18
14600.0	1.541863687743078e+18
14601.0	1.5415121530585088e+18
14602.0	1.5411582091657213e+18
14603.0	1.5408086139273216e+18
14604.0	1.5404554031988733e+18
14605.0	1.5401044741718013e+18
14606.0	1.539750384317235e+18
14607.0	1.5394033308270592e+18
14608.0	1.5390516317257725e+18
14609.0	1.5386966409347072e+18
14610.0	1.5383470775730173e+18
14611.0	1.5379988714881027e+18
14612.0	1.5376481991524347e+18
14613.0	1.5372974177648635e+18
14614.0	1.5369465357139963e+18
14615.0	1.536594402082816e+18
14616.0	1.5362453906915325e+18
14617.0	1.5358948324409341e+18
14618.0	1.5355419773894653e+18
14619.0	1.5351915818778621e+18
14620.0	1.5348308146913277e+18
14621.0	1.5344933913231357e+18
14622.0	1.534143198815846e+18
14623.0	1.533793085161472e+18
14624.0	1.5334388006912e+18
14625.0	1.533091024103014e+18
14626.0	1.5327401588293632e+18
14627.0	1.5323894982377472e+18
14628.0	1.5320414481809405e+18
14629.0	1.5316917153693693e+18
14630.0	1.531341982557798e+18
14631.0	1.5309918789697533e+18
14632.0	1.5304528521854973e+18
14633.0	1.5302746731184123e+18
14634.0	1.5299435378507776e+18
14635.0	1.529553477645107e+18
14636.0	1.5290916881301501e+18
14637.0	1.528896216786534e+18
14638.0	1.5285468899835901e+18
14639.0	1.528197497749504e+18
14640.0	1.527848649097216e+18
14641.0	1.5267704210456566e+18
14642.0	1.527150683357184e+18
14643.0	1.526801989055283e+18
14644.0	1.5264530833604605e+18
14645.0	1.5261034428235773e+18
14646.0	1.5257539851583485e+18
14647.0	1.5254056314339325e+18
14648.0	1.525058227299942e+18
