# Flux units: erg / (cm m2 s)
# Wavelength units: Angstrom
wave	flux
14000.0	1.9354646426419197e+18
14001.0	1.9350979027664893e+18
14002.0	1.9347454923112443e+18
14003.0	1.9343824803332093e+18
14004.0	1.9340194415116283e+18
14005.0	1.9336564161118205e+18
14006.0	1.9332927850545147e+18
14007.0	1.93293009855447e+18
14008.0	1.9325600518897661e+18
14009.0	1.9322037524758525e+18
14010.0	1.931841653178368e+18
14011.0	1.9314219795087355e+18
14012.0	1.93111597818839e+18
14013.0	1.9307552563003387e+18
14014.0	1.9303931872018427e+18
14015.0	1.9300309033549821e+18
14016.0	1.9296690053840893e+18
14017.0	1.9293070788919293e+18
14018.0	1.92894517421015e+18
14019.0	1.9285833601253368e+18
14020.0	1.928221552751411e+18
14021.0	1.9278598342967293e+18
14022.0	1.9274983071023104e+18
14023.0	1.9271366574342136e+18
14024.0	1.9267747997286397e+18
14025.0	1.9264141315276797e+18
14026.0	1.9260527922380797e+18
14027.0	1.9256917415165947e+18
14028.0	1.9253306371080187e+18
14029.0	1.9249692659417088e+18
14030.0	1.924582690363801e+18
14031.0	1.9242444163907581e+18
14032.0	1.9238870197469181e+18
14033.0	1.9235226035159035e+18
14034.0	1.9231660423774203e+18
14035.0	1.9228056375787515e+18
14036.0	1.922445283111731e+18
14037.0	1.9220849806540797e+18
14038.0	1.921724767115673e+18
14039.0	1.9213646240415744e+18
14040.0	1.9210045715644408e+18
14041.0	1.9206445559971837e+18
14042.0	1.920283676403302e+18
14043.0	1.919921318736691e+18
14044.0	1.919564071410073e+18
14045.0	1.9192055372709883e+18
14046.0	1.9188459847548928e+18
14047.0	1.918486430561075e+18
14048.0	1.9181271263477755e+18
14049.0	1.917767832200806e+18
14050.0	1.917408603484979e+18
14051.0	1.9170487707893752e+18
14052.0	1.9166903121477627e+18
14053.0	1.9163314491752445e+18
14054.0	1.9159725711032317e+18
14055.0	1.9156137651732475e+18
14056.0	1.9152550481625083e+18
14057.0	1.9148964083269632e+18
14058.0	1.9145378506997755e+18
14059.0	1.9141793803141115e+18
14060.0	1.913820972004147e+18
14061.0	1.9134620570222587e+18
14062.0	1.9131043550330875e+18
14063.0	1.9127448595595261e+18
14064.0	1.9123828256931835e+18
14065.0	1.9120294320930808e+18
14066.0	1.9116723609272317e+18
14067.0	1.91131457505198e+18
14068.0	1.9109568395083768e+18
14069.0	1.91059912074199e+18
14070.0	1.910241621757132e+18
14071.0	1.9098839046684664e+18
14072.0	1.9095267529719805e+18
14073.0	1.909169453635993e+18
14074.0	1.9088122130202621e+18
14075.0	1.908455039513395e+18
14076.0	1.9080978710396928e+18
14077.0	1.9077351174307837e+18
14078.0	1.9073833294102528e+18
14079.0	1.907026711229235e+18
14080.0	1.906670505767731e+18
14081.0	1.9063138657763325e+18
14082.0	1.9059572140408824e+18
14083.0	1.9056005522391037e+18
14084.0	1.905243652200857e+18
14085.0	1.9048660339785725e+18
14086.0	1.9045298873565184e+18
14087.0	1.9041754485358587e+18
14088.0	1.9038194829885437e+18
14089.0	1.9034636046827517e+18
14090.0	1.903107671012147e+18
14091.0	1.9027518950473725e+18
14092.0	1.9023961543147517e+18
14093.0	1.9020404840464381e+18
14094.0	1.901684885920153e+18
14095.0	1.9013292978601981e+18
14096.0	1.9009731762847741e+18
14097.0	1.9006181922045947e+18
14098.0	1.9002629245894653e+18
14099.0	1.8999080663384056e+18
14100.0	1.8995519447629821e+18
14101.0	1.8991980629458941e+18
14102.0	1.8988431157755904e+18
14103.0	1.8984868868259837e+18
14104.0	1.8981335301357568e+18
14105.0	1.897778849723187e+18
14106.0	1.8974242380972027e+18
14107.0	1.8970696986132477e+18
14108.0	1.8967152614703104e+18
14109.0	1.8963605005271035e+18
14110.0	1.8960064358383613e+18
14111.0	1.8956520372830203e+18
14112.0	1.8952980363476987e+18
14113.0	1.894944161241497e+18
14114.0	1.8945901552730107e+18
14115.0	1.8942358640918528e+18
14116.0	1.8938796032655355e+18
14117.0	1.8934798156300288e+18
14118.0	1.8931737824329725e+18
14119.0	1.8928207294103544e+18
14120.0	1.8924675086155773e+18
14121.0	1.8921144656592893e+18
14122.0	1.89176090764247e+18
14123.0	1.8914075308195835e+18
14124.0	1.8910526138482683e+18
14125.0	1.890660476623257e+18
14126.0	1.8903475580567552e+18
14127.0	1.889995924386611e+18
14128.0	1.889643178387046e+18
14129.0	1.889289412332748e+18
14130.0	1.8889363475660797e+18
14131.0	1.8885850863501307e+18
14132.0	1.8882308354342907e+18
14133.0	1.8878318078066683e+18
14134.0	1.8875260027797496e+18
14135.0	1.887174432863027e+18
14136.0	1.8868233696182272e+18
14137.0	1.886471415503257e+18
14138.0	1.8861193154265088e+18
14139.0	1.8857676247138304e+18
14140.0	1.8854156219449344e+18
14141.0	1.8850630856605693e+18
14142.0	1.8847101366566907e+18
14143.0	1.8843604961198075e+18
14144.0	1.8840093036904443e+18
14145.0	1.8836578981904381e+18
14146.0	1.8833064390033403e+18
14147.0	1.8829552163749883e+18
14148.0	1.8826040575000568e+18
14149.0	1.8822529892220928e+18
14150.0	1.8819019276550141e+18
14151.0	1.8815507671023616e+18
14152.0	1.8812000964444155e+18
14153.0	1.8808492848578555e+18
14154.0	1.8804959919210493e+18
14155.0	1.8801472388988925e+18
14156.0	1.8797972326187003e+18
14157.0	1.8794467901308925e+18
14158.0	1.8790960641081341e+18
14159.0	1.8787459856859128e+18
14160.0	1.8783942043762683e+18
14161.0	1.8780405742174205e+18
14162.0	1.8776860313780224e+18
14163.0	1.877344692207616e+18
14164.0	1.8769944124588027e+18
14165.0	1.8766436847583232e+18
14166.0	1.876295686710886e+18
14167.0	1.875946306220851e+18
14168.0	1.8755966505844733e+18
14169.0	1.8752472214405117e+18
14170.0	1.8748975171502077e+18
14171.0	1.8745481165275133e+18
14172.0	1.874199038027366e+18
14173.0	1.873848033502822e+18
14174.0	1.8734999884791805e+18
14175.0	1.8731516951527421e+18
14176.0	1.8728027491926008e+18
14177.0	1.8724538686636032e+18
14178.0	1.8721050015563773e+18
14179.0	1.871755919700787e+18
14180.0	1.8714076532178944e+18
14181.0	1.8710590730010621e+18
14182.0	1.8707104944619517e+18
14183.0	1.8703621088608253e+18
14184.0	1.870013276985753e+18
14185.0	1.8696650692231165e+18
14186.0	1.8693074460868603e+18
14187.0	1.8689658116374525e+18
14188.0	1.8686209962278907e+18
14189.0	1.8682731542085632e+18
14190.0	1.8679252903788541e+18
14191.0	1.8675774315823104e+18
14192.0	1.8672290359148536e+18
14193.0	1.8668809321709563e+18
14194.0	1.8665345430585344e+18
14195.0	1.8661872429432827e+18
14196.0	1.8658398455201787e+18
14197.0	1.8654925202391037e+18
14198.0	1.8651448392810493e+18
14199.0	1.8647978495442936e+18
14200.0	1.8644459742822397e+18
14201.0	1.8641030379208704e+18
14202.0	1.8637570229403645e+18
14203.0	1.863409806711193e+18
14204.0	1.8630631575519232e+18
14205.0	1.8627161946587128e+18
14206.0	1.8623594758143992e+18
14207.0	1.8620228325867517e+18
14208.0	1.8616767823740925e+18
14209.0	1.861319115617075e+18
14210.0	1.8609748672774144e+18
14211.0	1.8606379388370941e+18
14212.0	1.8602920329084923e+18
14213.0	1.8599461034917883e+18
14214.0	1.859600041535078e+18
14215.0	1.8592531356844024e+18
14216.0	1.8589084511371261e+18
14217.0	1.8585627180138493e+18
14218.0	1.8582170385776637e+18
14219.0	1.8578714413498363e+18
14220.0	1.8575259313635328e+18
14221.0	1.857180444865331e+18
14222.0	1.856835079163084e+18
14223.0	1.856489752048435e+18
14224.0	1.8561443410477053e+18
14225.0	1.855782674602393e+18
14226.0	1.8554531516252152e+18
14227.0	1.8551090257592317e+18
14228.0	1.8547148970786813e+18
14229.0	1.8543596596625403e+18
14230.0	1.8540255162400765e+18
14231.0	1.8536809004793853e+18
14232.0	1.85333621760983e+18
14233.0	1.8529915649392635e+18
14234.0	1.8526469642780672e+18
14235.0	1.852302217655091e+18
14236.0	1.85195796931543e+18
14237.0	1.8516134022086653e+18
14238.0	1.851268853556838e+18
14239.0	1.8509223033831421e+18
14240.0	1.8504288821051387e+18
14241.0	1.8502322430672893e+18
14242.0	1.8498911203229693e+18
14243.0	1.8495354181779453e+18
14244.0	1.849204896956416e+18
14245.0	1.8488611334782976e+18
14246.0	1.8485136236478461e+18
14247.0	1.84812349465559e+18
14248.0	1.847778318535884e+18
14249.0	1.8474360784289784e+18
14250.0	1.8470925800308733e+18
14251.0	1.8467493500682237e+18
14252.0	1.8464059691106296e+18
14253.0	1.8460625243996155e+18
14254.0	1.8457190679445504e+18
14255.0	1.845372512737689e+18
14256.0	1.8450167132848128e+18
14257.0	1.8446854253445117e+18
14258.0	1.8443469567557635e+18
14259.0	1.8440043844599803e+18
14260.0	1.843661070611251e+18
14261.0	1.8433197767393277e+18
14262.0	1.8429999560261627e+18
14263.0	1.8426339224715261e+18
14264.0	1.842304322319155e+18
14265.0	1.8419728598958077e+18
14266.0	1.8416222647353341e+18
14267.0	1.8412366051934203e+18
14268.0	1.8408943197880315e+18
14269.0	1.8405518481555453e+18
14270.0	1.8402098261524477e+18
14271.0	1.8398676179222525e+18
14272.0	1.839525251986227e+18
14273.0	1.8391813710675965e+18
14274.0	1.8388011657986043e+18
14275.0	1.838491775480627e+18
14276.0	1.838157397177139e+18
14277.0	1.8378161385373693e+18
14278.0	1.837474957072793e+18
14279.0	1.8371333746327547e+18
14280.0	1.8367916026101755e+18
14281.0	1.836450817087897e+18
14282.0	1.836109568514457e+18
14283.0	1.8357683400736768e+18
14284.0	1.8354271502204925e+18
14285.0	1.8350860392202237e+18
14286.0	1.8347449332531192e+18
14287.0	1.8344037517885437e+18
14288.0	1.8340609982988285e+18
14289.0	1.833608850649907e+18
14290.0	1.8333254532726781e+18
14291.0	1.8329862565527547e+18
14292.0	1.8326457528877056e+18
14293.0	1.832304615043891e+18
14294.0	1.8319523824271355e+18
14295.0	1.8316219165704195e+18
14296.0	1.8312063650627581e+18
14297.0	1.8309383188381693e+18
14298.0	1.83058731934679e+18
14299.0	1.8302616517738493e+18
14300.0	1.8299225204850688e+18
14301.0	1.8295825151033344e+18
14302.0	1.82924224799703e+18
14303.0	1.828898809996902e+18
14304.0	1.8285614050836477e+18
14305.0	1.8282226143723515e+18
14306.0	1.8278825368485885e+18
14307.0	1.8275428150018043e+18
14308.0	1.8272035226517504e+18
14309.0	1.8268636783312893e+18
14310.0	1.8265223777484797e+18
14311.0	1.8261834779852797e+18
14312.0	1.825843480992153e+18
14313.0	1.8254964090470392e+18
14314.0	1.825164607723929e+18
14315.0	1.824772584583987e+18
14316.0	1.8244293864980475e+18
14317.0	1.824094246508953e+18
14318.0	1.8237557678538747e+18
14319.0	1.8234169234554875e+18
14320.0	1.8230780069150717e+18
14321.0	1.8227391423840253e+18
14322.0	1.8223971572908027e+18
14323.0	1.8220595242074112e+18
14324.0	1.8217231074721787e+18
14325.0	1.8213846338502653e+18
14326.0	1.8210461753278461e+18
14327.0	1.8207077285494781e+18
14328.0	1.8203688271085568e+18
14329.0	1.820031157115289e+18
14330.0	1.8196929653506043e+18
14331.0	1.8193547987517435e+18
14332.0	1.8190167546265592e+18
14333.0	1.818678742378086e+18
14334.0	1.818340793883033e+18
14335.0	1.8180018169446397e+18
14336.0	1.8176633181569021e+18
14337.0	1.8173272839421947e+18
14338.0	1.816989516641075e+18
14339.0	1.8166519187898365e+18
14340.0	1.8163145356869627e+18
14341.0	1.815977051920793e+18
14342.0	1.8156255340134397e+18
14343.0	1.8152455384596477e+18
14344.0	1.8149080865701888e+18
14345.0	1.8145707135336443e+18
14346.0	1.8142331559477243e+18
14347.0	1.8138952292630525e+18
14348.0	1.813558867892633e+18
14349.0	1.813221857243955e+18
14350.0	1.8128833852997627e+18
14351.0	1.812546470281216e+18
14352.0	1.812210999780966e+18
14353.0	1.8118741921366013e+18
14354.0	1.8115371613552637e+18
14355.0	1.8112002043936765e+18
14356.0	1.810863653440716e+18
14357.0	1.8105275051409405e+18
14358.0	1.8101910330408955e+18
14359.0	1.8098545307418621e+18
14360.0	1.8095180670304253e+18
14361.0	1.8091818298114043e+18
14362.0	1.8088456261468155e+18
14363.0	1.8085093285298176e+18
14364.0	1.8081692258402296e+18
14365.0	1.8078354699714555e+18
14366.0	1.8075004541337597e+18
14367.0	1.8071654634618877e+18
14368.0	1.8068296523841533e+18
14369.0	1.8064939184816125e+18
14370.0	1.8061582349107197e+18
14371.0	1.805822618448691e+18
14372.0	1.8054869784985597e+18
14373.0	1.8051515130314747e+18
14374.0	1.8048062899355643e+18
14375.0	1.8044227996876792e+18
14376.0	1.8040872553676797e+18
14377.0	1.8037517144031224e+18
14378.0	1.8034161902157821e+18
14379.0	1.8030811123023872e+18
14380.0	1.8027458246737915e+18
14381.0	1.8024104783249405e+18
14382.0	1.802075410477875e+18
14383.0	1.8017403929624568e+18
14384.0	1.8014055482523648e+18
14385.0	1.801070668310118e+18
14386.0	1.8007358252777472e+18
14387.0	1.800400993989427e+18
14388.0	1.8000662029664253e+18
14389.0	1.799731589781913e+18
14390.0	1.799396897744486e+18
14391.0	1.7990625664172032e+18
14392.0	1.798728037118771e+18
14393.0	1.7983937007583227e+18
14394.0	1.7980553479323648e+18
14395.0	1.7977240029495293e+18
14396.0	1.7973897957736443e+18
14397.0	1.7970507064279037e+18
14398.0	1.796716537839616e+18
14399.0	1.7963824111943677e+18
14400.0	1.796046551462707e+18
14401.0	1.7957132771000317e+18
14402.0	1.79537873773527e+18
14403.0	1.7950068506099707e+18
14404.0	1.794431979303731e+18
14405.0	1.7942017875116024e+18
14406.0	1.7940413604167675e+18
14407.0	1.7936667218280448e+18
14408.0	1.7933754945241085e+18
14409.0	1.7930432553156603e+18
14410.0	1.7927117509492733e+18
14411.0	1.792354959962931e+18
14412.0	1.7919870171611133e+18
14413.0	1.7916540380774397e+18
14414.0	1.7913205087010816e+18
14415.0	1.7909873551343616e+18
14416.0	1.7906542720319485e+18
14417.0	1.7903209792143355e+18
14418.0	1.789987543790387e+18
14419.0	1.789654745900646e+18
14420.0	1.7893213507420155e+18
14421.0	1.78898871559127e+18
14422.0	1.7886551660822525e+18
14423.0	1.7883173585158141e+18
14424.0	1.7878086045401085e+18
14425.0	1.787650989306675e+18
14426.0	1.7873245533372413e+18
14427.0	1.786992802345779e+18
14428.0	1.7866580901756925e+18
14429.0	1.786327877654937e+18
14430.0	1.7859955260391421e+18
14431.0	1.7856559266660347e+18
14432.0	1.7853300057571325e+18
14433.0	1.784964566115942e+18
14434.0	1.7846646733799421e+18
14435.0	1.78433362535383e+18
14436.0	1.7840031628525565e+18
14437.0	1.783671361529446e+18
14438.0	1.7833383119814653e+18
14439.0	1.7830072689885181e+18
14440.0	1.7826759424606205e+18
14441.0	1.7823434180395003e+18
14442.0	1.7820111922528253e+18
14443.0	1.781675728463462e+18
14444.0	1.7813484754436093e+18
14445.0	1.7810165197701115e+18
14446.0	1.780583962876313e+18
14447.0	1.7803493133778936e+18
14448.0	1.7800236625821693e+18
14449.0	1.7796928829915133e+18
14450.0	1.7793618047664128e+18
14451.0	1.779030711441817e+18
14452.0	1.7786733718405115e+18
14453.0	1.7783099219771387e+18
14454.0	1.777979061855846e+18
14455.0	1.777647505480089e+18
14456.0	1.7773168668180477e+18
14457.0	1.776985812081049e+18
14458.0	1.7766548328415232e+18
14459.0	1.7763237411946493e+18
14460.0	1.775992661291827e+18
14461.0	1.775660170425139e+18
14462.0	1.7753298740183037e+18
14463.0	1.7750000322740221e+18
14464.0	1.774669987525427e+18
14465.0	1.7743374261944317e+18
14466.0	1.774009324247449e+18
14467.0	1.7736778869899261e+18
14468.0	1.7733482918707197e+18
14469.0	1.7730157724827648e+18
14470.0	1.7726849610153984e+18
14471.0	1.7723567516942333e+18
14472.0	1.7720276867350525e+18
14473.0	1.7716976319201275e+18
14474.0	1.7713675955601405e+18
14475.0	1.7710373863948285e+18
14476.0	1.7707055615836155e+18
14477.0	1.7703776676741115e+18
14478.0	1.7700479047827453e+18
14479.0	1.7697180882042875e+18
14480.0	1.76938747470807e+18
14481.0	1.7690586379190272e+18
14482.0	1.768728462308147e+18
14483.0	1.7683983890382843e+18
14484.0	1.76806790472663e+18
14485.0	1.7677353165520893e+18
14486.0	1.7673819112079357e+18
14487.0	1.7670806897164288e+18
14488.0	1.7667521414955003e+18
14489.0	1.766422341694259e+18
14490.0	1.766093608923955e+18
14491.0	1.765764565775155e+18
14492.0	1.7654356585218043e+18
14493.0	1.7651065683967997e+18
14494.0	1.764775238513459e+18
14495.0	1.764447571096371e+18
14496.0	1.7641069785120765e+18
14497.0	1.7637903471476733e+18
14498.0	1.7634620673622013e+18
14499.0	1.7631333614354427e+18
14500.0	1.762804551489945e+18
14501.0	1.762474243339059e+18
14502.0	1.7620682682662912e+18
14503.0	1.7617560241438715e+18
14504.0	1.7614281050685437e+18
14505.0	1.7610989595787261e+18
14506.0	1.760768481977958e+18
14507.0	1.7604192206061565e+18
14508.0	1.7601138836635643e+18
14509.0	1.7597860618960893e+18
14510.0	1.7594577166794747e+18
14511.0	1.759129134904115e+18
14512.0	1.7587995397849085e+18
14513.0	1.7584720585949181e+18
14514.0	1.7581408562184187e+18
14515.0	1.7578125110018048e+18
14516.0	1.757236686749696e+18
14517.0	1.7571500794052603e+18
14518.0	1.7568308224065533e+18
14519.0	1.7565036230737915e+18
14520.0	1.756175898614169e+18
14521.0	1.7558480449699837e+18
14522.0	1.7555200638189565e+18
14523.0	1.7551899368620032e+18
14524.0	1.7548622107246587e+18
14525.0	1.754536145531699e+18
14526.0	1.7542089394880512e+18
14527.0	1.7538777186566141e+18
14528.0	1.7535411022725117e+18
14529.0	1.7532248232296443e+18
14530.0	1.7528971893669885e+18
14531.0	1.7525708993593341e+18
14532.0	1.7522411733778427e+18
14533.0	1.7519161114623997e+18
14534.0	1.7515890530582528e+18
14535.0	1.7512616893087744e+18
14536.0	1.7509343842795515e+18
14537.0	1.750606164892057e+18
14538.0	1.7502800309125117e+18
14539.0	1.7499528835891197e+18
14540.0	1.7496258469953533e+18
14541.0	1.7492982752083965e+18
14542.0	1.7489715204718584e+18
14543.0	1.748643314506137e+18
14544.0	1.7483168919584765e+18
14545.0	1.7479881055010808e+18
14546.0	1.7474111605309437e+18
14547.0	1.7470919823851517e+18
14548.0	1.7470058414473213e+18
14549.0	1.7466716040724477e+18
14550.0	1.7463561555017725e+18
14551.0	1.7460303553888253e+18
14552.0	1.7457038036566008e+18
14553.0	1.7453766680772605e+18
14554.0	1.7450509971488763e+18
14555.0	1.7447244856819712e+18
14556.0	1.7443978852958205e+18
14557.0	1.7440710735167485e+18
14558.0	1.7437020301295613e+18
14559.0	1.7431733582430203e+18
14560.0	1.7430293040332797e+18
14561.0	1.7427059064176637e+18
14562.0	1.7423779688873981e+18
14563.0	1.7420542340497403e+18
14564.0	1.7417277796253693e+18
14565.0	1.7414018687827965e+18
14566.0	1.7410756475617275e+18
14567.0	1.740749350843187e+18
14568.0	1.7404229584945147e+18
14569.0	1.7400955276361723e+18
14570.0	1.7397195703582717e+18
14571.0	1.7394434828140536e+18
14572.0	1.7391147718541307e+18
14573.0	1.7387889734189053e+18
14574.0	1.73846584927191e+18
14575.0	1.7381403847032832e+18
14576.0	1.7378146047229947e+18
14577.0	1.7374889304391677e+18
14578.0	1.7371629139001341e+18
14579.0	1.736837306725171e+18
14580.0	1.7365115317780475e+18
14581.0	1.736185485040025e+18
14582.0	1.7358599718174715e+18
14583.0	1.7355342472019965e+18
14584.0	1.7352075914510333e+18
14585.0	1.734882898634342e+18
14586.0	1.7345570951659517e+18
14587.0	1.7342317497155581e+18
14588.0	1.7339063723884544e+18
14589.0	1.7335822348976125e+18
14590.0	1.73325832725463e+18
14591.0	1.732934345791897e+18
14592.0	1.732609825780531e+18
14593.0	1.7322753770127357e+18
14594.0	1.7319624550907904e+18
14595.0	1.7316386615328768e+18
14596.0	1.7313111753097213e+18
14597.0	1.7309867156963325e+18
14598.0	1.73066759962624e+18
14599.0	1.7303447489478656e+18
14600.0	1.73002120537047e+18
14601.0	1.729697661793075e+18
14602.0	1.7293740628508672e+18
14603.0	1.7290504890744832e+18
14604.0	1.72872320417792e+18
14605.0	1.72840291705815e+18
14606.0	1.7280720988798976e+18
14607.0	1.727756261077811e+18
14608.0	1.7274334825414653e+18
14609.0	1.7271099658076157e+18
14610.0	1.726786386998067e+18
14611.0	1.7264630615244797e+18
14612.0	1.7261401689030653e+18
14613.0	1.725816982680371e+18
14614.0	1.725493413937152e+18
14615.0	1.7251704323964925e+18
14616.0	1.724847281405952e+18
14617.0	1.7245239911645184e+18
14618.0	1.7242006086483965e+18
14619.0	1.7238723506733056e+18
14620.0	1.7235442252382203e+18
14621.0	1.723231127155507e+18
14622.0	1.7229083049983997e+18
14623.0	1.7225420030083067e+18
14624.0	1.7221941945434107e+18
14625.0	1.7218759945093115e+18
14626.0	1.7215530683334653e+18
14627.0	1.7212296640069632e+18
14628.0	1.7209067193761787e+18
14629.0	1.7205835348312061e+18
14630.0	1.72026027311104e+18
14631.0	1.719936962736947e+18
14632.0	1.719599245767475e+18
14633.0	1.7192875032838141e+18
14634.0	1.7189674879549437e+18
14635.0	1.718643867202355e+18
14636.0	1.7183191022436347e+18
14637.0	1.7179983839494141e+18
14638.0	1.7176749410353147e+18
14639.0	1.7173508354211837e+18
14640.0	1.7170269026123768e+18
14641.0	1.7166481234067453e+18
14642.0	1.7163805922426875e+18
14643.0	1.7160594830393341e+18
14644.0	1.7157365451194365e+18
14645.0	1.715411526824755e+18
14646.0	1.7150897582768128e+18
14647.0	1.7147670686597115e+18
