# Flux units: erg / (cm m2 s)
# Wavelength units: Angstrom
wave	flux
14000.0	1.7971307119378427e+18
14001.0	1.7966931671777275e+18
14002.0	1.7963683317547008e+18
14003.0	1.795986309513216e+18
14004.0	1.7956041094332408e+18
14005.0	1.7952218053345275e+18
14006.0	1.7948351509037053e+18
14007.0	1.7944080147283965e+18
14008.0	1.7939036513501184e+18
14009.0	1.793580097706393e+18
14010.0	1.7931907270443003e+18
14011.0	1.7924528030089213e+18
14012.0	1.7924350040604664e+18
14013.0	1.7920535757324285e+18
14014.0	1.7916687869280253e+18
14015.0	1.7912893634772987e+18
14016.0	1.7909095541506048e+18
14017.0	1.7905284127129595e+18
14018.0	1.790147085048217e+18
14019.0	1.7897663949176827e+18
14020.0	1.7893850873855995e+18
14021.0	1.7890039308484605e+18
14022.0	1.7886235460632576e+18
14023.0	1.7882356853506043e+18
14024.0	1.7878538694688763e+18
14025.0	1.787481908523827e+18
14026.0	1.7871005204611072e+18
14027.0	1.7867215046967293e+18
14028.0	1.7863414219014141e+18
14029.0	1.7859610941587453e+18
14030.0	1.7854480754147325e+18
14031.0	1.785190686077747e+18
14032.0	1.784821157829017e+18
14033.0	1.7844179375751165e+18
14034.0	1.7840626246615035e+18
14035.0	1.7836833538834427e+18
14036.0	1.783304010963353e+18
14037.0	1.7829247804506107e+18
14038.0	1.7825456254353403e+18
14039.0	1.7821641266429944e+18
14040.0	1.781781144744755e+18
14041.0	1.7814061102137341e+18
14042.0	1.7810232407228416e+18
14043.0	1.780627093743206e+18
14044.0	1.7802656873447421e+18
14045.0	1.7798917869535227e+18
14046.0	1.7795129037291515e+18
14047.0	1.7791334114918397e+18
14048.0	1.778758385349427e+18
14049.0	1.778368586868326e+18
14050.0	1.777990156628787e+18
14051.0	1.777606990181171e+18
14052.0	1.7772320546357248e+18
14053.0	1.776856385925939e+18
14054.0	1.7764788817887227e+18
14055.0	1.7761009095671805e+18
14056.0	1.7757238282158075e+18
14057.0	1.7753464197087227e+18
14058.0	1.7749691303198717e+18
14059.0	1.7745919264948221e+18
14060.0	1.7742148065558525e+18
14061.0	1.7738338597339133e+18
14062.0	1.7734608653123581e+18
14063.0	1.7730748635152381e+18
14064.0	1.7726847110348797e+18
14065.0	1.772325643380326e+18
14066.0	1.7719521640972288e+18
14067.0	1.7715650751365117e+18
14068.0	1.7711886749401088e+18
14069.0	1.7708116707639293e+18
14070.0	1.770436109428326e+18
14071.0	1.77005835363287e+18
14072.0	1.7696839901904893e+18
14073.0	1.7693080580784125e+18
14074.0	1.7689322769612795e+18
14075.0	1.7685464932679677e+18
14076.0	1.768178129358028e+18
14077.0	1.7677743151906816e+18
14078.0	1.7674276408655864e+18
14079.0	1.7670485831581693e+18
14080.0	1.7666792243593213e+18
14081.0	1.7663040421888e+18
14082.0	1.7659235013754877e+18
14083.0	1.7655530990338048e+18
14084.0	1.7651790208040957e+18
14085.0	1.764655908886937e+18
14086.0	1.7644207963373565e+18
14087.0	1.764042485216051e+18
14088.0	1.763661523294617e+18
14089.0	1.763293239915315e+18
14090.0	1.7629185627389947e+18
14091.0	1.7625447932100603e+18
14092.0	1.762170595862118e+18
14093.0	1.7617964991774717e+18
14094.0	1.7614224880566264e+18
14095.0	1.7610485675327485e+18
14096.0	1.7606672918773757e+18
14097.0	1.7602931951927293e+18
14098.0	1.759924274279219e+18
14099.0	1.759553791406899e+18
14100.0	1.759173312669286e+18
14101.0	1.7588070173900797e+18
14102.0	1.758433580050022e+18
14103.0	1.7580519319404541e+18
14104.0	1.757687495576781e+18
14105.0	1.7573138166448125e+18
14106.0	1.7569415184777216e+18
14107.0	1.7565666970173435e+18
14108.0	1.7561893589745661e+18
14109.0	1.755744209102438e+18
14110.0	1.7553517698875387e+18
14111.0	1.754971953849958e+18
14112.0	1.7546087690665984e+18
14113.0	1.754240960482508e+18
14114.0	1.753861206520627e+18
14115.0	1.7534959128412157e+18
14116.0	1.7531054046838781e+18
14117.0	1.7525298018910205e+18
14118.0	1.7523809443643387e+18
14119.0	1.7520029838868475e+18
14120.0	1.7516344941477885e+18
14121.0	1.751257659421491e+18
14122.0	1.750888585835315e+18
14123.0	1.7505180492759035e+18
14124.0	1.7501463332782077e+18
14125.0	1.7495097167839227e+18
14126.0	1.7494097312874493e+18
14127.0	1.7490388004634621e+18
14128.0	1.7486670827880443e+18
14129.0	1.7482902077964288e+18
14130.0	1.7479141297225723e+18
14131.0	1.7475557432229888e+18
14132.0	1.7471820760350712e+18
14133.0	1.7464975522004982e+18
14134.0	1.746432569009766e+18
14135.0	1.746054341774541e+18
14136.0	1.7456813859405821e+18
14137.0	1.7453213938614264e+18
14138.0	1.7449488138371072e+18
14139.0	1.7445814397829117e+18
14140.0	1.7442012227698688e+18
14141.0	1.7438415226142717e+18
14142.0	1.7434506940121085e+18
14143.0	1.7430936463343608e+18
14144.0	1.7427334814498816e+18
14145.0	1.7423640790302717e+18
14146.0	1.7419937186316288e+18
14147.0	1.7416250309214205e+18
14148.0	1.7412560932306944e+18
14149.0	1.7408874826956797e+18
14150.0	1.7405184292421632e+18
14151.0	1.7401481913171963e+18
14152.0	1.739780909537689e+18
14153.0	1.7394121530408957e+18
14154.0	1.7390290453135352e+18
14155.0	1.7386374902579197e+18
14156.0	1.7383031538974717e+18
14157.0	1.7379384591646715e+18
14158.0	1.7375677883875325e+18
14159.0	1.7372017229561853e+18
14160.0	1.7368315940831227e+18
14161.0	1.7364238171373565e+18
14162.0	1.73602435497984e+18
14163.0	1.7357177110921216e+18
14164.0	1.7353377155383293e+18
14165.0	1.7348719414345725e+18
14166.0	1.7346143172165632e+18
14167.0	1.7342400577929213e+18
14168.0	1.733879483544371e+18
14169.0	1.7335136949370877e+18
14170.0	1.7331444368015357e+18
14171.0	1.7327777204142075e+18
14172.0	1.732412421701632e+18
14173.0	1.731989723099955e+18
14174.0	1.7316763096055805e+18
14175.0	1.731311989004697e+18
14176.0	1.7309453363707904e+18
14177.0	1.7305787441348603e+18
14178.0	1.7302109305176061e+18
14179.0	1.7298344011366397e+18
14180.0	1.7294797190463488e+18
14181.0	1.729113524430438e+18
14182.0	1.7287469523271677e+18
14183.0	1.728381403634073e+18
14184.0	1.7280124843982843e+18
14185.0	1.7276496217374715e+18
14186.0	1.7272318187274235e+18
14187.0	1.7269041915756541e+18
14188.0	1.7265519941910523e+18
14189.0	1.7261856217366525e+18
14190.0	1.725821269259059e+18
14191.0	1.7254559705464827e+18
14192.0	1.725086318146355e+18
14193.0	1.7247094448324605e+18
14194.0	1.724348442764902e+18
14195.0	1.7239843855663096e+18
14196.0	1.7236192948912123e+18
14197.0	1.7232544994951163e+18
14198.0	1.7228867680862205e+18
14199.0	1.7225230816641021e+18
14200.0	1.7221355883724797e+18
14201.0	1.7217955897016315e+18
14202.0	1.7214319334785021e+18
14203.0	1.7210546793218043e+18
14204.0	1.7207016128774141e+18
14205.0	1.7203376513089533e+18
14206.0	1.719901802725376e+18
14207.0	1.7196112381214715e+18
14208.0	1.7192475600879613e+18
14209.0	1.7188041869230075e+18
14210.0	1.7184673675345915e+18
14211.0	1.7181536101072893e+18
14212.0	1.7177924738220032e+18
14213.0	1.7174292101857277e+18
14214.0	1.71706580729856e+18
14215.0	1.716695755600691e+18
14216.0	1.7163400702328827e+18
14217.0	1.7159770146340861e+18
14218.0	1.715607206205849e+18
14219.0	1.7152511047630848e+18
14220.0	1.714888409874432e+18
14221.0	1.7145254046072832e+18
14222.0	1.71415575724032e+18
14223.0	1.7138003755401208e+18
14224.0	1.7134381084704765e+18
14225.0	1.713000751615181e+18
14226.0	1.7126330772488187e+18
14227.0	1.7122196514144256e+18
14228.0	1.7116671172935677e+18
14229.0	1.7114577091166203e+18
14230.0	1.711121961792307e+18
14231.0	1.7107563610898427e+18
14232.0	1.7103982933573627e+18
14233.0	1.7100328084176893e+18
14234.0	1.7096751081062397e+18
14235.0	1.7093121347158008e+18
14236.0	1.70895200003031e+18
14237.0	1.7085900752158715e+18
14238.0	1.7082293751382013e+18
14239.0	1.7078654571905021e+18
14240.0	1.7065888536592384e+18
14241.0	1.7071461491539963e+18
14242.0	1.7067855061188605e+18
14243.0	1.7063339691606016e+18
14244.0	1.706063966712627e+18
14245.0	1.705691411854131e+18
14246.0	1.705325549427097e+18
14247.0	1.7049794857926653e+18
14248.0	1.7046125345243133e+18
14249.0	1.704260410959462e+18
14250.0	1.7039000363597824e+18
14251.0	1.7035413998796797e+18
14252.0	1.70318130881495e+18
14253.0	1.702820937570713e+18
14254.0	1.7024600613322752e+18
14255.0	1.7020825437732861e+18
14256.0	1.7016670207868925e+18
14257.0	1.7013789643767805e+18
14258.0	1.7010229199765504e+18
14259.0	1.7006522022232061e+18
14260.0	1.7002996810383357e+18
14261.0	1.6999332246978557e+18
14262.0	1.69959819879383e+18
14263.0	1.69912710463488e+18
14264.0	1.69885828162519e+18
14265.0	1.6985181571252221e+18
14266.0	1.6981623526391803e+18
14267.0	1.6978035550978048e+18
14268.0	1.6974449588830205e+18
14269.0	1.6970814670766077e+18
14270.0	1.6967163998896125e+18
14271.0	1.6963562366828536e+18
14272.0	1.6959995362934781e+18
14273.0	1.6956407840505853e+18
14274.0	1.6951156353794048e+18
14275.0	1.694910205080371e+18
14276.0	1.6945519527985147e+18
14277.0	1.6941959436304381e+18
14278.0	1.6938509369606144e+18
14279.0	1.6934927132000253e+18
14280.0	1.693131080309145e+18
14281.0	1.692777871258419e+18
14282.0	1.6924205199130621e+18
14283.0	1.6920630729375741e+18
14284.0	1.6917057148813307e+18
14285.0	1.6913484021235707e+18
14286.0	1.690990812541747e+18
14287.0	1.690634133962752e+18
14288.0	1.6902770174984187e+18
14289.0	1.6893333947285489e+18
14290.0	1.689560920621056e+18
14291.0	1.6892059029864443e+18
14292.0	1.6888497763778557e+18
14293.0	1.6884918797729787e+18
14294.0	1.6880558332182525e+18
14295.0	1.687772737830912e+18
14296.0	1.6869488775397376e+18
14297.0	1.687067291130265e+18
14298.0	1.6866197068840957e+18
14299.0	1.6863473942134781e+18
14300.0	1.68599436132352e+18
14301.0	1.6856397362757632e+18
14302.0	1.6852853209432061e+18
14303.0	1.6849109709225981e+18
14304.0	1.684565256254259e+18
14305.0	1.6842182715506688e+18
14306.0	1.6838389923839995e+18
14307.0	1.6835019095932925e+18
14308.0	1.6831535307030523e+18
14309.0	1.6827969494319104e+18
14310.0	1.6823289439584256e+18
14311.0	1.6820475380367352e+18
14312.0	1.6817121933656061e+18
14313.0	1.6813197826719736e+18
14314.0	1.6810221666041853e+18
14315.0	1.6806682311000061e+18
14316.0	1.6802831537274875e+18
14317.0	1.6799509329739776e+18
14318.0	1.6796016732798976e+18
14319.0	1.6792390371115005e+18
14320.0	1.678884296300953e+18
14321.0	1.6785286277103608e+18
14322.0	1.6781515497144315e+18
14323.0	1.6778118412894203e+18
14324.0	1.6774678815178747e+18
14325.0	1.6771082920919035e+18
14326.0	1.6767599752773632e+18
14327.0	1.6764022917431293e+18
14328.0	1.6760485055561728e+18
14329.0	1.6756987006025725e+18
14330.0	1.6753451140644861e+18
14331.0	1.6749913782091776e+18
14332.0	1.6746381205045243e+18
14333.0	1.6742847889801213e+18
14334.0	1.6739315346309115e+18
14335.0	1.6735676250718205e+18
14336.0	1.6732128473513984e+18
14337.0	1.6728704411500536e+18
14338.0	1.67251742335959e+18
14339.0	1.6721597163372544e+18
14340.0	1.6718135285514235e+18
14341.0	1.6714602221928443e+18
14342.0	1.671106779938816e+18
14343.0	1.6707500577390587e+18
14344.0	1.6703984190357496e+18
14345.0	1.6700508890726397e+18
14346.0	1.669697148184166e+18
14347.0	1.6693383372210176e+18
14348.0	1.6689941190803453e+18
14349.0	1.6686421800648704e+18
14350.0	1.6682842616496123e+18
14351.0	1.6679285561491453e+18
14352.0	1.6675809422999552e+18
14353.0	1.6672335817867261e+18
14354.0	1.6668816813588475e+18
14355.0	1.6665291920506877e+18
14356.0	1.6661783620091904e+18
14357.0	1.6658285084016635e+18
14358.0	1.6654771146457088e+18
14359.0	1.665117117533388e+18
14360.0	1.664773902670233e+18
14361.0	1.6644233762963453e+18
14362.0	1.664072531155353e+18
14363.0	1.6637213873799165e+18
14364.0	1.663350944772915e+18
14365.0	1.6630167828955133e+18
14366.0	1.662665691129446e+18
14367.0	1.662318545364582e+18
14368.0	1.66196766834688e+18
14369.0	1.661617504360857e+18
14370.0	1.6612671071715325e+18
14371.0	1.6609168056123387e+18
14372.0	1.660563365036032e+18
14373.0	1.660216215915724e+18
14374.0	1.6598586951204861e+18
14375.0	1.659504192546406e+18
14376.0	1.6591552851738621e+18
14377.0	1.658805023879987e+18
14378.0	1.6584539891564541e+18
14379.0	1.6581058485026808e+18
14380.0	1.6577557247819776e+18
14381.0	1.657399636760985e+18
14382.0	1.657056173595033e+18
14383.0	1.6566997751955456e+18
14384.0	1.6563467238506493e+18
14385.0	1.656008857563955e+18
14386.0	1.6556510213570557e+18
14387.0	1.655310361663897e+18
14388.0	1.654960125535846e+18
14389.0	1.6546123405590528e+18
14390.0	1.6542622654922747e+18
14391.0	1.6539144150843392e+18
14392.0	1.65356320587776e+18
14393.0	1.6532174056456187e+18
14394.0	1.6528469160624125e+18
14395.0	1.652513264212377e+18
14396.0	1.6521718310895608e+18
14397.0	1.6518235511848957e+18
14398.0	1.6514377742024704e+18
14399.0	1.6510500292526077e+18
14400.0	1.6506903391633405e+18
14401.0	1.65035027506135e+18
14402.0	1.650005285168742e+18
14403.0	1.6477073602248668e+18
14404.0	1.6436220695412718e+18
14405.0	1.6480370828509158e+18
14406.0	1.648614291223347e+18
14407.0	1.645406819713025e+18
14408.0	1.647908868010803e+18
14409.0	1.647560316315238e+18
14410.0	1.6472226798764032e+18
14411.0	1.6468767940804603e+18
14412.0	1.6465279705939965e+18
14413.0	1.6461830394216443e+18
14414.0	1.6458343920959488e+18
14415.0	1.645488075125555e+18
14416.0	1.6451411407536128e+18
14417.0	1.6447888829710333e+18
14418.0	1.6444337176969216e+18
14419.0	1.644100329249177e+18
14420.0	1.6437514621419515e+18
14421.0	1.643407571156992e+18
14422.0	1.6430589724852221e+18
14423.0	1.6427101255106557e+18
14424.0	1.6308533767176115e+18
14425.0	1.6420186995294203e+18
14426.0	1.6416761087787003e+18
14427.0	1.641330194461491e+18
14428.0	1.6409701352734715e+18
14429.0	1.6406356042973181e+18
14430.0	1.640292282059981e+18
14431.0	1.6399128686755835e+18
14432.0	1.6395921084383232e+18
14433.0	1.6370877784391662e+18
14434.0	1.6388991221759995e+18
14435.0	1.6385531843706877e+18
14436.0	1.6382182440304637e+18
14437.0	1.6378728112193528e+18
14438.0	1.6374651097710587e+18
14439.0	1.6371576471551995e+18
14440.0	1.6368255656525821e+18
14441.0	1.6364759502815232e+18
14442.0	1.6361273146998781e+18
14443.0	1.6357582511800315e+18
14444.0	1.6354428210642944e+18
14445.0	1.635100735307776e+18
14446.0	1.6322017666007048e+18
14447.0	1.6344036453384192e+18
14448.0	1.6340668041396221e+18
14449.0	1.6337222554877947e+18
14450.0	1.6333743362932733e+18
14451.0	1.6330324283752443e+18
14452.0	1.6326872925208576e+18
14453.0	1.632306820494131e+18
14454.0	1.631999923270451e+18
14455.0	1.631650579690291e+18
14456.0	1.6313036402851835e+18
14457.0	1.630955499631411e+18
14458.0	1.6306220323307515e+18
14459.0	1.6302761079472128e+18
14460.0	1.6299349080276992e+18
14461.0	1.6295805228941312e+18
14462.0	1.6292160831750141e+18
14463.0	1.6289018912178176e+18
14464.0	1.628560899335782e+18
14465.0	1.628203336597504e+18
14466.0	1.6278720419463165e+18
14467.0	1.627495403513446e+18
14468.0	1.6271823473737725e+18
14469.0	1.6268306986041344e+18
14470.0	1.626482237505536e+18
14471.0	1.6261487836266493e+18
14472.0	1.625809184253542e+18
14473.0	1.62547013517312e+18
14474.0	1.6251280930373632e+18
14475.0	1.6247818096214013e+18
14476.0	1.6243021775372288e+18
14477.0	1.6241002251550715e+18
14478.0	1.6237554349113341e+18
14479.0	1.6234134397517824e+18
14480.0	1.6230619553988603e+18
14481.0	1.6227301490425856e+18
14482.0	1.6223856255565824e+18
14483.0	1.622038728094515e+18
14484.0	1.6216978536529915e+18
14485.0	1.6213365428846592e+18
14486.0	1.6208350735761403e+18
14487.0	1.6206762503831555e+18
14488.0	1.6203302102368253e+18
14489.0	1.619989486790246e+18
14490.0	1.619647991591731e+18
14491.0	1.6193078536699904e+18
14492.0	1.6189669423185915e+18
14493.0	1.618622490974617e+18
14494.0	1.6182711257399293e+18
14495.0	1.617942042325811e+18
14496.0	1.617517410988851e+18
14497.0	1.6172583607074813e+18
14498.0	1.6169170567692285e+18
14499.0	1.6165762628583421e+18
14500.0	1.616234767659827e+18
14501.0	1.6158311883735037e+18
14502.0	1.6153665031110656e+18
14503.0	1.6151991101161467e+18
14504.0	1.614866886007193e+18
14505.0	1.6144723395739643e+18
14506.0	1.6140610427682808e+18
14507.0	1.6136966231818237e+18
14508.0	1.6135067067744256e+18
14509.0	1.6131659246075904e+18
14510.0	1.6128231929282552e+18
14511.0	1.6124843804065787e+18
14512.0	1.6121339999944701e+18
14513.0	1.6118032086597632e+18
14514.0	1.611436113107353e+18
14515.0	1.6111209514270715e+18
14516.0	1.609296704333415e+18
14517.0	1.6104307115950077e+18
14518.0	1.6100905787064315e+18
14519.0	1.6097503971639293e+18
14520.0	1.609410175356108e+18
14521.0	1.6090684637315072e+18
14522.0	1.608729736773632e+18
14523.0	1.6082562938044413e+18
14524.0	1.6079078427721718e+18
14525.0	1.6077062913654781e+18
14526.0	1.6073682875056123e+18
14527.0	1.6070164860633088e+18
14528.0	1.606606257966285e+18
14529.0	1.6063435536072701e+18
14530.0	1.605999020054937e+18
14531.0	1.6056693880258557e+18
14532.0	1.6051296750534653e+18
14533.0	1.6049908788232187e+18
14534.0	1.6046524169453563e+18
14535.0	1.6043060345438205e+18
14536.0	1.6039710908481533e+18
14537.0	1.6036263710687224e+18
14538.0	1.603294700607897e+18
14539.0	1.602955601195827e+18
14540.0	1.6026163591774205e+18
14541.0	1.6022634705715197e+18
14542.0	1.601936791332454e+18
14543.0	1.6015071838732285e+18
14544.0	1.6012596075298813e+18
14545.0	1.6009164060884992e+18
14546.0	1.5860374481928108e+18
14547.0	1.5872231494123412e+18
14548.0	1.5998958715273213e+18
14549.0	1.5994912537313277e+18
14550.0	1.5992214106669053e+18
14551.0	1.5988881144938493e+18
14552.0	1.59854828191744e+18
14553.0	1.5982053438783485e+18
14554.0	1.5978722255437821e+18
14555.0	1.597533183174246e+18
14556.0	1.5971914547724288e+18
14557.0	1.5968565496643581e+18
14558.0	1.5965179116257275e+18
14559.0	1.595094166876977e+18
14560.0	1.5958376794030077e+18
14561.0	1.5954985615359995e+18
14562.0	1.5951501121814523e+18
14563.0	1.594826170984038e+18
14564.0	1.594484791548313e+18
14565.0	1.5941498713407485e+18
14566.0	1.5938116862869501e+18
14567.0	1.5934734039252984e+18
14568.0	1.593126815164006e+18
14569.0	1.5927972368220157e+18
14570.0	1.5921562884505597e+18
14571.0	1.5921190900072443e+18
14572.0	1.591758452005273e+18
14573.0	1.5914163763150848e+18
14574.0	1.5910987248959485e+18
14575.0	1.5907686029721597e+18
14576.0	1.5904302853783547e+18
14577.0	1.590089362282905e+18
14578.0	1.5897543414120448e+18
14579.0	1.5894178777006077e+18
14580.0	1.589080231195443e+18
14581.0	1.588739039664537e+18
14582.0	1.5884045808304125e+18
14583.0	1.5880669678796795e+18
14584.0	1.5877228738904064e+18
14585.0	1.5873914987085821e+18
14586.0	1.587051627544576e+18
14587.0	1.5867133065953275e+18
14588.0	1.5863783478001656e+18
14589.0	1.5860516618502141e+18
14590.0	1.5857253785534464e+18
14591.0	1.585398654015897e+18
14592.0	1.5850694296731643e+18
14593.0	1.5846741014216701e+18
14594.0	1.5844199920304125e+18
14595.0	1.5840901351866365e+18
14596.0	1.583740739597107e+18
14597.0	1.5834203602026493e+18
14598.0	1.583112609018675e+18
14599.0	1.582788879214182e+18
14600.0	1.5824622469513213e+18
14601.0	1.5821364233502715e+18
14602.0	1.5818071704862715e+18
14603.0	1.5814836554301437e+18
14604.0	1.58113130872832e+18
14605.0	1.5808263140409341e+18
14606.0	1.5804606277746685e+18
14607.0	1.5801639713636347e+18
14608.0	1.5798405737480187e+18
14609.0	1.5795054975123453e+18
14610.0	1.579180902003507e+18
14611.0	1.578861051091353e+18
14612.0	1.5785371384152064e+18
14613.0	1.5782110346346493e+18
14614.0	1.5778822716653565e+18
14615.0	1.5775575134175232e+18
14616.0	1.5772317938352125e+18
14617.0	1.5769051649277947e+18
14618.0	1.576575836566323e+18
14619.0	1.5762414146420733e+18
14620.0	1.5758789210800125e+18
14621.0	1.575599390851072e+18
14622.0	1.5752709449711613e+18
14623.0	1.5749461850456064e+18
14624.0	1.5745833290956797e+18
14625.0	1.5742908166569981e+18
14626.0	1.573962575459123e+18
14627.0	1.5736307271598077e+18
14628.0	1.5733126747652093e+18
14629.0	1.5729858864742397e+18
14630.0	1.5726587810938877e+18
14631.0	1.5723315112968187e+18
14632.0	1.5710406504873984e+18
14633.0	1.5715721057140728e+18
14634.0	1.5713487321825277e+18
14635.0	1.5709776990175224e+18
14636.0	1.5705689590595581e+18
14637.0	1.5703703319216125e+18
14638.0	1.5700422165528576e+18
14639.0	1.569709551203123e+18
14640.0	1.5693859690381307e+18
14641.0	1.5653550801551332e+18
14642.0	1.5687302198067197e+18
14643.0	1.5684056628854781e+18
14644.0	1.5680716234817533e+18
14645.0	1.5677351950024704e+18
14646.0	1.5674162601263104e+18
14647.0	1.5670880038289405e+18
