# Flux units: erg / (cm m2 s)
# Wavelength units: Angstrom
wave	flux
14000.0	1.8350028024184832e+18
14001.0	1.8344474866352125e+18
14002.0	1.8341201111416827e+18
14003.0	1.83368570372096e+18
14004.0	1.8332502611460093e+18
14005.0	1.832809771984486e+18
14006.0	1.832350841307136e+18
14007.0	1.8319036865576952e+18
14008.0	1.8312513129021437e+18
14009.0	1.8310427855290365e+18
14010.0	1.8305680523919355e+18
14011.0	1.8288918961061893e+18
14012.0	1.8297143404003325e+18
14013.0	1.8292806510444541e+18
14014.0	1.828823565860864e+18
14015.0	1.8283939399467005e+18
14016.0	1.8279583732203515e+18
14017.0	1.8275131293958144e+18
14018.0	1.8270636929449981e+18
14019.0	1.8266350736637947e+18
14020.0	1.8261903516106747e+18
14021.0	1.8257513774317563e+18
14022.0	1.825312193537638e+18
14023.0	1.824820461725286e+18
14024.0	1.824395092190822e+18
14025.0	1.823994153638297e+18
14026.0	1.8235532635013115e+18
14027.0	1.823113883313766e+18
14028.0	1.822664770663219e+18
14029.0	1.8222225719033853e+18
14030.0	1.8204259971497992e+18
14031.0	1.8213151560433661e+18
14032.0	1.8209217672380413e+18
14033.0	1.8203718621069312e+18
14034.0	1.8200483202072579e+18
14035.0	1.8196019002998781e+18
14036.0	1.819167090225971e+18
14037.0	1.8187197861593085e+18
14038.0	1.8182966849044477e+18
14039.0	1.8178469833736187e+18
14040.0	1.8173851015839741e+18
14041.0	1.816973402125107e+18
14042.0	1.816523814679347e+18
14043.0	1.816019709670195e+18
14044.0	1.8156496462282747e+18
14045.0	1.815225456132096e+18
14046.0	1.814785074344755e+18
14047.0	1.8143388473753597e+18
14048.0	1.8139190529097725e+18
14049.0	1.8134890864181243e+18
14050.0	1.8130514728714237e+18
14051.0	1.8125863329464315e+18
14052.0	1.81217081163776e+18
14053.0	1.8117413132304381e+18
14054.0	1.8113115262550008e+18
14055.0	1.8108614371704827e+18
14056.0	1.810440552185856e+18
14057.0	1.809998767823257e+18
14058.0	1.8095686167822333e+18
14059.0	1.8091325920378875e+18
14060.0	1.8087007515312123e+18
14061.0	1.8082495752830976e+18
14062.0	1.8078312505016315e+18
14063.0	1.8073607116685307e+18
14064.0	1.8067728094986237e+18
14065.0	1.806508412318515e+18
14066.0	1.80608335651799e+18
14067.0	1.8056136850669563e+18
14068.0	1.8052241617321981e+18
14069.0	1.8047849778380797e+18
14070.0	1.8043572628488187e+18
14071.0	1.8039158660399104e+18
14072.0	1.8034871544840187e+18
14073.0	1.8030542083588093e+18
14074.0	1.8026215289913341e+18
14075.0	1.8021492335837181e+18
14076.0	1.8017089323270141e+18
14077.0	1.8009810041569277e+18
14078.0	1.8008618825678848e+18
14079.0	1.8004365046448128e+18
14080.0	1.8000302577811453e+18
14081.0	1.7995954225414141e+18
14082.0	1.7990912755892221e+18
14083.0	1.798726052374118e+18
14084.0	1.7983026222858237e+18
14085.0	1.7971267273490435e+18
14086.0	1.797408492303155e+18
14087.0	1.7970076292481021e+18
14088.0	1.7965486146846715e+18
14089.0	1.796093702150553e+18
14090.0	1.795704064730726e+18
14091.0	1.7952835941433336e+18
14092.0	1.7948460292505595e+18
14093.0	1.7944197705236475e+18
14094.0	1.7939900355575803e+18
14095.0	1.7935601646960637e+18
14096.0	1.793057447162675e+18
14097.0	1.7926312270233597e+18
14098.0	1.7922157526908925e+18
14099.0	1.7918377938911227e+18
14100.0	1.79137250632663e+18
14101.0	1.7909807935651837e+18
14102.0	1.7905440071352315e+18
14103.0	1.7900931513319421e+18
14104.0	1.7896862535122944e+18
14105.0	1.789236763374387e+18
14106.0	1.7888345782747128e+18
14107.0	1.7883234754887675e+18
14108.0	1.787942896087859e+18
14109.0	1.7875383269457917e+18
14110.0	1.787043238012518e+18
14111.0	1.7865280986284024e+18
14112.0	1.786241493447475e+18
14113.0	1.785804732183347e+18
14114.0	1.7853672545320955e+18
14115.0	1.784969879460249e+18
14116.0	1.7843016328806397e+18
14117.0	1.781954943280743e+18
14118.0	1.78368891888599e+18
14119.0	1.7832207003418621e+18
14120.0	1.7828043049402365e+18
14121.0	1.7823527193280512e+18
14122.0	1.7819414158114813e+18
14123.0	1.7814614817374205e+18
14124.0	1.7810374040485885e+18
14125.0	1.7796684218105846e+18
14126.0	1.780256530340249e+18
14127.0	1.7798504562819064e+18
14128.0	1.7794226355961856e+18
14129.0	1.7789727293833213e+18
14130.0	1.7785177413517307e+18
14131.0	1.778143802372915e+18
14132.0	1.7777074471174141e+18
14133.0	1.776095846203388e+18
14134.0	1.7768702455840768e+18
14135.0	1.7764086037086205e+18
14136.0	1.7758365794959355e+18
14137.0	1.7755929575423997e+18
14138.0	1.7751379627999232e+18
14139.0	1.7747459480485885e+18
14140.0	1.7741925482233856e+18
14141.0	1.7738959924756475e+18
14142.0	1.773215493495193e+18
14143.0	1.7727368831434752e+18
14144.0	1.7726257542201341e+18
14145.0	1.7721997018529787e+18
14146.0	1.77177101378519e+18
14147.0	1.7713493318828027e+18
14148.0	1.7709180014034941e+18
14149.0	1.7704865165737981e+18
14150.0	1.7700808468463616e+18
14151.0	1.7696240552640512e+18
14152.0	1.7692340403568637e+18
14153.0	1.7688153196331005e+18
14154.0	1.76833281696727e+18
14155.0	1.7665676911050762e+18
14156.0	1.76749440747438e+18
14157.0	1.767119846060851e+18
14158.0	1.7666721527627776e+18
14159.0	1.7662724909563904e+18
14160.0	1.7658526528700413e+18
14161.0	1.7652797495312381e+18
14162.0	1.7647702774906877e+18
14163.0	1.7645872330309632e+18
14164.0	1.7640654599356408e+18
14165.0	1.7624254149296133e+18
14166.0	1.763308465238835e+18
14167.0	1.7628710395969533e+18
14168.0	1.7624562262867963e+18
14169.0	1.7620605306142717e+18
14170.0	1.7616234589716477e+18
14171.0	1.7611967791366141e+18
14172.0	1.7608007344979965e+18
14173.0	1.759790826625434e+18
14174.0	1.7599465745547261e+18
14175.0	1.7595398713507837e+18
14176.0	1.7590991389196285e+18
14177.0	1.7586901355593725e+18
14178.0	1.7582637929463805e+18
14179.0	1.757731274044211e+18
14180.0	1.757441110415769e+18
14181.0	1.7570187473584125e+18
14182.0	1.756599692768051e+18
14183.0	1.756181812582809e+18
14184.0	1.755748675197337e+18
14185.0	1.7553399033626621e+18
14186.0	1.7544654027227139e+18
14187.0	1.7544520950349816e+18
14188.0	1.754076441424691e+18
14189.0	1.7536486861701117e+18
14190.0	1.7532465816010747e+18
14191.0	1.7528269431635965e+18
14192.0	1.752391576086118e+18
14193.0	1.7519265502461947e+18
14194.0	1.7515733982380027e+18
14195.0	1.7511618195750912e+18
14196.0	1.7507414228074493e+18
14197.0	1.75032218198999e+18
14198.0	1.7498973073833981e+18
14199.0	1.749455647172198e+18
14200.0	1.7488210808537088e+18
14201.0	1.748652057113395e+18
14202.0	1.748233270958489e+18
14203.0	1.7476771163144187e+18
14204.0	1.747390845000089e+18
14205.0	1.7469812410155003e+18
14206.0	1.7462903653269504e+18
14207.0	1.7461550184923133e+18
14208.0	1.745738441896755e+18
14209.0	1.7449998971043832e+18
14210.0	1.7447238112378862e+18
14211.0	1.7444737636106237e+18
14212.0	1.7440724073054205e+18
14213.0	1.7436424609464317e+18
14214.0	1.7432413395222523e+18
14215.0	1.74278635987927e+18
14216.0	1.7424090117701632e+18
14217.0	1.7419982098923517e+18
14218.0	1.741556234269491e+18
14219.0	1.7411625417965563e+18
14220.0	1.7407519278235648e+18
14221.0	1.7403300378836987e+18
14222.0	1.7398302177755133e+18
14223.0	1.7395036224225277e+18
14224.0	1.739097531586969e+18
14225.0	1.7379937870675968e+18
14226.0	1.7382692421107712e+18
14227.0	1.7378527863111675e+18
14228.0	1.73581779557417e+18
14229.0	1.7368302619721715e+18
14230.0	1.7366126581252096e+18
14231.0	1.7361287277182976e+18
14232.0	1.7357878281109496e+18
14233.0	1.7353526573268987e+18
14234.0	1.7349628605235197e+18
14235.0	1.734542765745766e+18
14236.0	1.734125107019776e+18
14237.0	1.7337157513379837e+18
14238.0	1.7333045501624315e+18
14239.0	1.7328779307253757e+18
14240.0	1.729470020137781e+18
14241.0	1.7320703091015672e+18
14242.0	1.7316610591162365e+18
14243.0	1.7309032675016704e+18
14244.0	1.7308401499373565e+18
14245.0	1.7303790164115453e+18
14246.0	1.729932972313804e+18
14247.0	1.7295899990425595e+18
14248.0	1.7291595795660797e+18
14249.0	1.7287683046899707e+18
14250.0	1.728362673550131e+18
14251.0	1.7279533094797304e+18
14252.0	1.7275433548513277e+18
14253.0	1.7271345058414587e+18
14254.0	1.7267197260857341e+18
14255.0	1.7262484205338624e+18
14256.0	1.7254288770203648e+18
14257.0	1.725479378118246e+18
14258.0	1.7250836354695163e+18
14259.0	1.724618176777421e+18
14260.0	1.7242448199679997e+18
14261.0	1.7238026547625984e+18
14262.0	1.7234442800070653e+18
14263.0	1.7223281908121603e+18
14264.0	1.7225181843947515e+18
14265.0	1.722178063250227e+18
14266.0	1.7218048658243581e+18
14267.0	1.7213957450235904e+18
14268.0	1.7209833677651968e+18
14269.0	1.7205597598384125e+18
14270.0	1.720174422419046e+18
14271.0	1.7197405216702461e+18
14272.0	1.7193550047346685e+18
14273.0	1.7189468905668605e+18
14274.0	1.7175019964596232e+18
14275.0	1.7180414409965563e+18
14276.0	1.7175831394648061e+18
14277.0	1.7172384800833528e+18
14278.0	1.7169083413823485e+18
14279.0	1.7164991115296765e+18
14280.0	1.7160758743793661e+18
14281.0	1.715685867860787e+18
14282.0	1.7152774382813181e+18
14283.0	1.7148722366382077e+18
14284.0	1.7144629010890752e+18
14285.0	1.7140580769333243e+18
14286.0	1.7136434783715325e+18
14287.0	1.713238516642611e+18
14288.0	1.7128346907312128e+18
14289.0	1.7104954602815424e+18
14290.0	1.7119917715226621e+18
14291.0	1.7116123245838333e+18
14292.0	1.711207508816691e+18
14293.0	1.7108033372946432e+18
14294.0	1.7100916796686339e+18
14295.0	1.7099551198412797e+18
14296.0	1.708014358337947e+18
14297.0	1.709184114491392e+18
14298.0	1.708299017361817e+18
14299.0	1.708329483108352e+18
14300.0	1.7079446070624253e+18
14301.0	1.7075200361234427e+18
14302.0	1.7071461088886781e+18
14303.0	1.7066667167186936e+18
14304.0	1.7063072195674107e+18
14305.0	1.705922482772377e+18
14306.0	1.7052276224950272e+18
14307.0	1.7050631151812603e+18
14308.0	1.7047250844778488e+18
14309.0	1.7043082260250621e+18
14310.0	1.7025824444121078e+18
14311.0	1.7030264249122813e+18
14312.0	1.702999430371737e+18
14313.0	1.7025587348504576e+18
14314.0	1.702291951950233e+18
14315.0	1.7018972411002877e+18
14316.0	1.7013831804911613e+18
14317.0	1.7008202159751163e+18
14318.0	1.700691934026137e+18
14319.0	1.700291723604787e+18
14320.0	1.6998872551260157e+18
14321.0	1.6994746798964733e+18
14322.0	1.6989772706742272e+18
14323.0	1.698652129905868e+18
14324.0	1.698269735210188e+18
14325.0	1.6978546954076157e+18
14326.0	1.697476607423283e+18
14327.0	1.6970528317243387e+18
14328.0	1.6966539718688765e+18
14329.0	1.696271788566118e+18
14330.0	1.6958676791197693e+18
14331.0	1.695452828899737e+18
14332.0	1.69506072690688e+18
14333.0	1.694663016290713e+18
14334.0	1.6942612103561213e+18
14335.0	1.6937699315286013e+18
14336.0	1.6933363411582976e+18
14337.0	1.693050610070323e+18
14338.0	1.6926515237224443e+18
14339.0	1.6922272346406907e+18
14340.0	1.6918588539535352e+18
14341.0	1.6914477098205181e+18
14342.0	1.6910463551930363e+18
14343.0	1.6905926808174587e+18
14344.0	1.690214987097702e+18
14345.0	1.689854864156262e+18
14346.0	1.6894535447609341e+18
14347.0	1.6890091431526397e+18
14348.0	1.6886489161924603e+18
14349.0	1.6882591797870584e+18
14350.0	1.6878057553919997e+18
14351.0	1.687394574349107e+18
14352.0	1.687042538025779e+18
14353.0	1.6866605543718912e+18
14354.0	1.6862535005241344e+18
14355.0	1.685852278436659e+18
14356.0	1.6854583594713085e+18
14357.0	1.6850698813571067e+18
14358.0	1.6846703688679421e+18
14359.0	1.6842370184118272e+18
14360.0	1.683871421064806e+18
14361.0	1.6834773511045115e+18
14362.0	1.683076989688217e+18
14363.0	1.682681804043059e+18
14364.0	1.6820797066706944e+18
14365.0	1.6818646579937275e+18
14366.0	1.6814537453862912e+18
14367.0	1.6810857170206715e+18
14368.0	1.680687219553075e+18
14369.0	1.680295973198233e+18
14370.0	1.6798985075294205e+18
14371.0	1.6795023051849723e+18
14372.0	1.6790870103687163e+18
14373.0	1.6787079962820605e+18
14374.0	1.678303487537971e+18
14375.0	1.677910699356979e+18
14376.0	1.6775155724320765e+18
14377.0	1.6771218581487613e+18
14378.0	1.6767207484686333e+18
14379.0	1.6763308644237312e+18
14380.0	1.675930383889203e+18
14381.0	1.675509894846873e+18
14382.0	1.6751385513033725e+18
14383.0	1.6746502437208061e+18
14384.0	1.6742975363088376e+18
14385.0	1.6739586046689275e+18
14386.0	1.6735208116060157e+18
14387.0	1.673163990420684e+18
14388.0	1.6727625233858552e+18
14389.0	1.6723766323183608e+18
14390.0	1.6719781029740536e+18
14391.0	1.671579632350003e+18
14392.0	1.671121152979763e+18
14393.0	1.6707993055789053e+18
14394.0	1.6703194537132032e+18
14395.0	1.669855085540147e+18
14396.0	1.66961068680151e+18
14397.0	1.669224101157273e+18
14398.0	1.6687771879997435e+18
14399.0	1.668429894595379e+18
14400.0	1.667915594072064e+18
14401.0	1.6676329516695547e+18
14402.0	1.6672462972387325e+18
14403.0	1.650443447330381e+18
14404.0	1.6261408698138557e+18
14405.0	1.6634297792331656e+18
14406.0	1.6656792280891387e+18
14407.0	1.6380830901338255e+18
14408.0	1.6648023148855288e+18
14409.0	1.6644570884341752e+18
14410.0	1.6640819062636544e+18
14411.0	1.6637111482449915e+18
14412.0	1.6633157730172923e+18
14413.0	1.6629299524141056e+18
14414.0	1.6625374662230016e+18
14415.0	1.6621487834267643e+18
14416.0	1.661742093644595e+18
14417.0	1.6612734489591805e+18
14418.0	1.6608216989302784e+18
14419.0	1.6605820531769341e+18
14420.0	1.6601797204377597e+18
14421.0	1.6598005486452733e+18
14422.0	1.6593979424374781e+18
14423.0	1.6590010807484413e+18
14424.0	1.5798797821017723e+18
14425.0	1.658225394555289e+18
14426.0	1.6578429814046715e+18
14427.0	1.657456645740953e+18
14428.0	1.6569723093254141e+18
14429.0	1.6566715877949435e+18
14430.0	1.6562874986004477e+18
14431.0	1.6555820233785341e+18
14432.0	1.6554045321773053e+18
14433.0	1.634142543203519e+18
14434.0	1.6546931094323197e+18
14435.0	1.654270934279782e+18
14436.0	1.653946174354227e+18
14437.0	1.653557525112422e+18
14438.0	1.6524912457940992e+18
14439.0	1.6526250440916992e+18
14440.0	1.6523894701686781e+18
14441.0	1.65198416618455e+18
14442.0	1.6515889000087547e+18
14443.0	1.6511140041326587e+18
14444.0	1.6508224161185787e+18
14445.0	1.6504402781143037e+18
14446.0	1.6282477005897828e+18
14447.0	1.6496361495068662e+18
14448.0	1.6492792293359613e+18
14449.0	1.6488916521582587e+18
14450.0	1.648489349618073e+18
14451.0	1.6481040054878203e+18
14452.0	1.6477136919461885e+18
14453.0	1.6468788895547395e+18
14454.0	1.6469423359524861e+18
14455.0	1.6465413118361597e+18
14456.0	1.6460767859572728e+18
14457.0	1.6456311898111997e+18
14458.0	1.6453032623472635e+18
14459.0	1.644895507211878e+18
14460.0	1.6446229009399805e+18
14461.0	1.6441877234450424e+18
14462.0	1.6434572988252157e+18
14463.0	1.6434499940253693e+18
14464.0	1.643076518097715e+18
14465.0	1.6426501704515581e+18
14466.0	1.6422894787624957e+18
14467.0	1.641584897766195e+18
14468.0	1.64149815452631e+18
14469.0	1.6410961992744952e+18
14470.0	1.6406917593169915e+18
14471.0	1.640324506058752e+18
14472.0	1.6399562562338816e+18
14473.0	1.6395992924422141e+18
14474.0	1.6392166360219648e+18
14475.0	1.6388112330522621e+18
14476.0	1.6369534936023053e+18
14477.0	1.638059697661542e+18
14478.0	1.6376660051886075e+18
14479.0	1.6372616122073085e+18
14480.0	1.6368701578149888e+18
14481.0	1.6365265923080192e+18
14482.0	1.6361328327262203e+18
14483.0	1.6357283709583357e+18
14484.0	1.635361891129753e+18
14485.0	1.6348857621282813e+18
14486.0	1.6339387570716675e+18
14487.0	1.634217265568153e+18
14488.0	1.6337378247442432e+18
14489.0	1.6334150361415677e+18
14490.0	1.63302503130071e+18
14491.0	1.6326817610727416e+18
14492.0	1.6322975309496315e+18
14493.0	1.631888799380275e+18
14494.0	1.631485959969177e+18
14495.0	1.631151472613785e+18
14496.0	1.6304654035976192e+18
14497.0	1.6303772795928576e+18
14498.0	1.629987521377075e+18
14499.0	1.6296153943375867e+18
14500.0	1.62923192254464e+18
14501.0	1.628158905496371e+18
14502.0	1.6273008297508872e+18
14503.0	1.628008491044044e+18
14504.0	1.6276879572991997e+18
14505.0	1.6266830574256113e+18
14506.0	1.6254377182363643e+18
14507.0	1.6260145541545984e+18
14508.0	1.626176130488729e+18
14509.0	1.6257928415674368e+18
14510.0	1.6254082608005115e+18
14511.0	1.6250324796833792e+18
14512.0	1.6246107021508605e+18
14513.0	1.6242689687158784e+18
14514.0	1.6236185999376381e+18
14515.0	1.6234828403834877e+18
14516.0	1.6185391518318628e+18
14517.0	1.6227438694498301e+18
14518.0	1.6223590940672e+18
14519.0	1.6219762883297275e+18
14520.0	1.6215973799395328e+18
14521.0	1.6211931782184957e+18
14522.0	1.620828082510233e+18
14523.0	1.6189265612374003e+18
14524.0	1.6184553127280622e+18
14525.0	1.619682790893158e+18
14526.0	1.6193073167990781e+18
14527.0	1.618788447839846e+18
14528.0	1.6181904390750205e+18
14529.0	1.6181529906511867e+18
14530.0	1.617749708321587e+18
14531.0	1.6174132479655933e+18
14532.0	1.6142865503617021e+18
14533.0	1.6166557851844605e+18
14534.0	1.6162811969273853e+18
14535.0	1.6158688297353216e+18
14536.0	1.6155088376561661e+18
14537.0	1.61510563250176e+18
14538.0	1.6147531515822075e+18
14539.0	1.6143819372232704e+18
14540.0	1.614005637690163e+18
14541.0	1.6135713628094461e+18
14542.0	1.6132381589110781e+18
14543.0	1.6118716546678781e+18
14544.0	1.6124864876249088e+18
14545.0	1.6120755280412672e+18
14546.0	1.5499210447126346e+18
14547.0	1.5548297913564938e+18
14548.0	1.6109424686923776e+18
14549.0	1.6103323216117757e+18
14550.0	1.6102039457103872e+18
14551.0	1.609849421325926e+18
14552.0	1.6094417819533307e+18
14553.0	1.6090491565113341e+18
14554.0	1.6087158871818237e+18
14555.0	1.6083348531183613e+18
14556.0	1.607920776327987e+18
14557.0	1.6075863510482941e+18
14558.0	1.607208905631334e+18
14559.0	1.60324171983748e+18
14560.0	1.6062758256639995e+18
14561.0	1.6060641945059323e+18
14562.0	1.605638393797017e+18
14563.0	1.6053242068729853e+18
14564.0	1.6049119940313085e+18
14565.0	1.604575974916096e+18
14566.0	1.604200415258214e+18
14567.0	1.603819496957542e+18
14568.0	1.6032964487938043e+18
14569.0	1.6030705905565696e+18
14570.0	1.6016643360555005e+18
14571.0	1.6023116446695421e+18
14572.0	1.6018186847649792e+18
14573.0	1.6014548809023485e+18
14574.0	1.6010934711484413e+18
14575.0	1.6008076377194493e+18
14576.0	1.6004321200046077e+18
14577.0	1.6000458984259581e+18
14578.0	1.599689429562163e+18
14579.0	1.599316215359078e+18
14580.0	1.5989456184016893e+18
14581.0	1.598480535519232e+18
14582.0	1.5981928549187581e+18
14583.0	1.5978227528892413e+18
14584.0	1.597419170247475e+18
14585.0	1.5970729824616443e+18
14586.0	1.5966917705596925e+18
14587.0	1.5962927597092864e+18
14588.0	1.5959385524142075e+18
14589.0	1.5955906231533565e+18
14590.0	1.595234273407795e+18
14591.0	1.5948640002506744e+18
14592.0	1.5944992233095165e+18
14593.0	1.593895505258086e+18
14594.0	1.593793982968627e+18
14595.0	1.5934247617429504e+18
14596.0	1.5928134436126712e+18
14597.0	1.5925508415946747e+18
14598.0	1.5923531506253821e+18
14599.0	1.5920136368160765e+18
14600.0	1.591651762333286e+18
14601.0	1.591295419298611e+18
14602.0	1.5908581261967357e+18
14603.0	1.590567363621683e+18
14604.0	1.5901217876082685e+18
14605.0	1.5898159775481853e+18
14606.0	1.5893254033637376e+18
14607.0	1.5891519001067515e+18
14608.0	1.5887788587089915e+18
14609.0	1.5882615768743933e+18
14610.0	1.5879819141054464e+18
14611.0	1.5877214864146432e+18
14612.0	1.587371788835225e+18
14613.0	1.5870211047555067e+18
14614.0	1.5866559687819264e+18
14615.0	1.5862669907066877e+18
14616.0	1.5859511008952315e+18
14617.0	1.5855934660149243e+18
14618.0	1.5851528912896e+18
14619.0	1.5847974424805366e+18
14620.0	1.584060734793318e+18
14621.0	1.5841731303964672e+18
14622.0	1.583810136873369e+18
14623.0	1.5834599544324093e+18
14624.0	1.5829732171972603e+18
14625.0	1.582742241909145e+18
14626.0	1.5823443467436024e+18
14627.0	1.5819490705014784e+18
14628.0	1.581684834382643e+18
14629.0	1.581329387251302e+18
14630.0	1.580970631652966e+18
14631.0	1.5805968067592187e+18
14632.0	1.5705775640936507e+18
14633.0	1.5789490811437015e+18
14634.0	1.5795232192856064e+18
14635.0	1.5780056093687718e+18
14636.0	1.5743818112434166e+18
14637.0	1.5784901571772413e+18
14638.0	1.578115907819929e+18
14639.0	1.5777559325179896e+18
14640.0	1.5774140212445181e+18
14641.0	1.5443379261275922e+18
14642.0	1.5767033819955197e+18
14643.0	1.5763592812953597e+18
14644.0	1.575977963696947e+18
14645.0	1.5755941211275264e+18
14646.0	1.575229204935475e+18
14647.0	1.5748826295959547e+18
14648.0	1.5745811648348157e+18
