# Flux units: erg / (cm m2 s)
# Wavelength units: Angstrom
wave	flux
14000.0	1.9882499551264765e+18
14001.0	1.9878473807953915e+18
14002.0	1.9875630808039421e+18
14003.0	1.987185541434572e+18
14004.0	1.986807087706931e+18
14005.0	1.9864281323405307e+18
14006.0	1.9860426741252093e+18
14007.0	1.9856611501670397e+18
14008.0	1.9852135055228925e+18
14009.0	1.9849005768900603e+18
14010.0	1.9845140969422843e+18
14011.0	1.9836035907190781e+18
14012.0	1.9837641822306301e+18
14013.0	1.98339952944087e+18
14014.0	1.9830174635786237e+18
14015.0	1.9826437729026045e+18
14016.0	1.9822677518712824e+18
14017.0	1.9818904608047101e+18
14018.0	1.9815128409047037e+18
14019.0	1.9811353619333112e+18
14020.0	1.9807571565084672e+18
14021.0	1.9803791960309755e+18
14022.0	1.9800022707077115e+18
14023.0	1.9796146297765883e+18
14024.0	1.97923743769559e+18
14025.0	1.9788712011366397e+18
14026.0	1.978493104763699e+18
14027.0	1.9781172749926397e+18
14028.0	1.977733977682739e+18
14029.0	1.9773569869283325e+18
14030.0	1.976725359978086e+18
14031.0	1.976561622738534e+18
14032.0	1.9762313246539768e+18
14033.0	1.9758189843054587e+18
14034.0	1.975481569325875e+18
14035.0	1.9751061455634427e+18
14036.0	1.9747303292141563e+18
14037.0	1.9743544893767675e+18
14038.0	1.9739786797383675e+18
14039.0	1.9735987831701501e+18
14040.0	1.973223991908761e+18
14041.0	1.9728500629962752e+18
14042.0	1.9724662153936893e+18
14043.0	1.9720661073133563e+18
14044.0	1.9717147504672763e+18
14045.0	1.9713464066899965e+18
14046.0	1.9709699913940987e+18
14047.0	1.9705929905733632e+18
14048.0	1.9702240948256763e+18
14049.0	1.969849887411405e+18
14050.0	1.969474982064947e+18
14051.0	1.9690933255667712e+18
14052.0	1.9687207371538427e+18
14053.0	1.9683510293889021e+18
14054.0	1.9679767330553853e+18
14055.0	1.9676023545135101e+18
14056.0	1.967228034691891e+18
14057.0	1.9668538440548347e+18
14058.0	1.9664797020717053e+18
14059.0	1.966105638941491e+18
14060.0	1.9657315623895037e+18
14061.0	1.9653517815840763e+18
14062.0	1.9649831509164032e+18
14063.0	1.9645962448273403e+18
14064.0	1.9641851543814141e+18
14065.0	1.9638551868080128e+18
14066.0	1.9634895290630141e+18
14067.0	1.96311634673664e+18
14068.0	1.9627430352257021e+18
14069.0	1.9623691365122043e+18
14070.0	1.9619966269521923e+18
14071.0	1.9616212753317888e+18
14072.0	1.9612508629237755e+18
14073.0	1.96087804634071e+18
14074.0	1.9605052868001787e+18
14075.0	1.9601156124704763e+18
14076.0	1.9597575833255933e+18
14077.0	1.9593273534316541e+18
14078.0	1.959007802831667e+18
14079.0	1.9586334293229565e+18
14080.0	1.958270132132249e+18
14081.0	1.9578981627985915e+18
14082.0	1.9575251666993152e+18
14083.0	1.9571517931126781e+18
14084.0	1.9567757385269243e+18
14085.0	1.9561891751788541e+18
14086.0	1.9560211480051707e+18
14087.0	1.9556651992350717e+18
14088.0	1.9552844956827643e+18
14089.0	1.9549241764478973e+18
14090.0	1.9545525929902075e+18
14091.0	1.9541818718814205e+18
14092.0	1.9538108185837563e+18
14093.0	1.95343969985495e+18
14094.0	1.9530685056286717e+18
14095.0	1.952696675545907e+18
14096.0	1.9523130577911803e+18
14097.0	1.9519344631349245e+18
14098.0	1.951576996026777e+18
14099.0	1.951209828332339e+18
14100.0	1.950829571053977e+18
14101.0	1.9504699396849661e+18
14102.0	1.9500994215804925e+18
14103.0	1.9497162551328763e+18
14104.0	1.9493564778020861e+18
14105.0	1.9489892765532152e+18
14106.0	1.9486193137745917e+18
14107.0	1.9482491496693755e+18
14108.0	1.9478680619188221e+18
14109.0	1.9475057680056315e+18
14110.0	1.9471380886061056e+18
14111.0	1.946762976899891e+18
14112.0	1.9463922021040125e+18
14113.0	1.946030664843264e+18
14114.0	1.94564789937111e+18
14115.0	1.9452878653489147e+18
14116.0	1.944892191486771e+18
14117.0	1.9440705625653243e+18
14118.0	1.9441723616788475e+18
14119.0	1.9438020801331197e+18
14120.0	1.94344064689111e+18
14121.0	1.9430661374869501e+18
14122.0	1.942704325079859e+18
14123.0	1.9423343354576888e+18
14124.0	1.941950700925747e+18
14125.0	1.9411994239041533e+18
14126.0	1.9412231015890941e+18
14127.0	1.9408657535991805e+18
14128.0	1.9404982268723197e+18
14129.0	1.9401202915606525e+18
14130.0	1.939742265652019e+18
14131.0	1.9393935881273341e+18
14132.0	1.9390053130174461e+18
14133.0	1.9381867526488054e+18
14134.0	1.93827456459735e+18
14135.0	1.9379116331499523e+18
14136.0	1.9375545837944832e+18
14137.0	1.9371887985426427e+18
14138.0	1.9368203926896637e+18
14139.0	1.936455721444966e+18
14140.0	1.9360868894507005e+18
14141.0	1.9357125947949053e+18
14142.0	1.9353321714221053e+18
14143.0	1.9349856749355005e+18
14144.0	1.934622287147827e+18
14145.0	1.9342546580799488e+18
14146.0	1.933888597681766e+18
14147.0	1.933522765453721e+18
14148.0	1.933156871149977e+18
14149.0	1.9327910758318077e+18
14150.0	1.932424735254118e+18
14151.0	1.9320566733340664e+18
14152.0	1.9316927469977597e+18
14153.0	1.9313266681446397e+18
14154.0	1.9309358395424765e+18
14155.0	1.930588380043673e+18
14156.0	1.9302281614721021e+18
14157.0	1.9298630053658621e+18
14158.0	1.9294943059116027e+18
14159.0	1.9291313845305341e+18
14160.0	1.9287517412982781e+18
14161.0	1.9283516583837693e+18
14162.0	1.9279430996197373e+18
14163.0	1.9276630694297592e+18
14164.0	1.9272837751635968e+18
14165.0	1.926917835561369e+18
14166.0	1.926572578911027e+18
14167.0	1.926196880002252e+18
14168.0	1.9258458436009981e+18
14169.0	1.9254821991219192e+18
14170.0	1.9251151908110333e+18
14171.0	1.924750497755955e+18
14172.0	1.924388212231372e+18
14173.0	1.924004916599193e+18
14174.0	1.9236527510913021e+18
14175.0	1.9232959097733115e+18
14176.0	1.922932206573977e+18
14177.0	1.922568310436659e+18
14178.0	1.9222038505848827e+18
14179.0	1.921836580549427e+18
14180.0	1.921476841806233e+18
14181.0	1.921113200682598e+18
14182.0	1.9207489052475387e+18
14183.0	1.9203857607294968e+18
14184.0	1.9200175494922237e+18
14185.0	1.919655112972697e+18
14186.0	1.9191971268526075e+18
14187.0	1.9189003345461243e+18
14188.0	1.9185647919038461e+18
14189.0	1.9182056672067581e+18
14190.0	1.9178427978350587e+18
14191.0	1.9174794150805504e+18
14192.0	1.9171099136753661e+18
14193.0	1.9167422376312827e+18
14194.0	1.9163914478551037e+18
14195.0	1.9160306236260347e+18
14196.0	1.915668193817395e+18
14197.0	1.9153058260844541e+18
14198.0	1.9149392908910587e+18
14199.0	1.9145787954954237e+18
14200.0	1.9141689549520893e+18
14201.0	1.9138481326391293e+18
14202.0	1.913492866701721e+18
14203.0	1.9131283649069053e+18
14204.0	1.9127685556994043e+18
14205.0	1.912404550510182e+18
14206.0	1.9119383401988093e+18
14207.0	1.911679803300249e+18
14208.0	1.9113219805151227e+18
14209.0	1.9108461216268283e+18
14210.0	1.9105098558865405e+18
14211.0	1.9102342800474107e+18
14212.0	1.9098794519953403e+18
14213.0	1.9095197484843005e+18
14214.0	1.909157996475187e+18
14215.0	1.9087876327211005e+18
14216.0	1.9084377908576256e+18
14217.0	1.9080772988174333e+18
14218.0	1.907704853010841e+18
14219.0	1.9073560614010877e+18
14220.0	1.9069956784127997e+18
14221.0	1.906634919614873e+18
14222.0	1.9062652957360128e+18
14223.0	1.9059140311646203e+18
14224.0	1.90552694891479e+18
14225.0	1.9049688330141693e+18
14226.0	1.9047615605768187e+18
14227.0	1.904408955505868e+18
14228.0	1.9036397973274624e+18
14229.0	1.9035919923281912e+18
14230.0	1.903331044543692e+18
14231.0	1.902971052464537e+18
14232.0	1.902613605489049e+18
14233.0	1.9022521454034941e+18
14234.0	1.9018944853573632e+18
14235.0	1.901532807168e+18
14236.0	1.9011752058421243e+18
14237.0	1.9008138749411328e+18
14238.0	1.9004526312816637e+18
14239.0	1.9000733034610683e+18
14240.0	1.8982986229743613e+18
14241.0	1.8993397633122304e+18
14242.0	1.898982047901286e+18
14243.0	1.8984635916615675e+18
14244.0	1.898235117856358e+18
14245.0	1.8978710606577661e+18
14246.0	1.8975131271430136e+18
14247.0	1.8971582286266365e+18
14248.0	1.896790326090137e+18
14249.0	1.8964418415034365e+18
14250.0	1.8960863507513341e+18
14251.0	1.895730047981977e+18
14252.0	1.8953715893403643e+18
14253.0	1.8950120703787003e+18
14254.0	1.8946515984711677e+18
14255.0	1.8942613822373883e+18
14256.0	1.8937756013035515e+18
14257.0	1.8935336084176896e+18
14258.0	1.8932200154071037e+18
14259.0	1.8928449942978555e+18
14260.0	1.892498011271987e+18
14261.0	1.8921277800579064e+18
14262.0	1.8917755340193787e+18
14263.0	1.8911477540847613e+18
14264.0	1.8909218404827133e+18
14265.0	1.8906636928155645e+18
14266.0	1.8903167299223547e+18
14267.0	1.8899608834932733e+18
14268.0	1.8896041076064253e+18
14269.0	1.8892382653120512e+18
14270.0	1.888889510612172e+18
14271.0	1.8885316223959037e+18
14272.0	1.8881719893491712e+18
14273.0	1.8877981912989693e+18
14274.0	1.887058205343744e+18
14275.0	1.8870287697182715e+18
14276.0	1.886730183927398e+18
14277.0	1.886383269688115e+18
14278.0	1.8860353907589117e+18
14279.0	1.8856783481143293e+18
14280.0	1.8853187352002555e+18
14281.0	1.8849684269301755e+18
14282.0	1.884612761695027e+18
14283.0	1.884256749171507e+18
14284.0	1.883900672894566e+18
14285.0	1.8835039169019904e+18
14286.0	1.8831189284487165e+18
14287.0	1.8827609999671293e+18
14288.0	1.8823892990689275e+18
14289.0	1.8811258874626035e+18
14290.0	1.8816788326252541e+18
14291.0	1.8813366294282237e+18
14292.0	1.880980903795097e+18
14293.0	1.880623481985433e+18
14294.0	1.8801538927427581e+18
14295.0	1.879886544450355e+18
14296.0	1.8788290966585347e+18
14297.0	1.879165996577587e+18
14298.0	1.8786956758482941e+18
14299.0	1.878475555418931e+18
14300.0	1.8781338672824315e+18
14301.0	1.8777835808227325e+18
14302.0	1.8774311821115387e+18
14303.0	1.87704271741911e+18
14304.0	1.876707748557619e+18
14305.0	1.8763672667029504e+18
14306.0	1.8760086922985472e+18
14307.0	1.8756540320186363e+18
14308.0	1.875302832878387e+18
14309.0	1.8749452634292221e+18
14310.0	1.8745455278030845e+18
14311.0	1.8741479212056573e+18
14312.0	1.873788606926028e+18
14313.0	1.8733700908843005e+18
14314.0	1.8731057104814077e+18
14315.0	1.8727504864870397e+18
14316.0	1.8723567386492925e+18
14317.0	1.8720418168831997e+18
14318.0	1.8716937953476603e+18
14319.0	1.871341433546342e+18
14320.0	1.8709876708474875e+18
14321.0	1.8706310124011515e+18
14322.0	1.8702487284350976e+18
14323.0	1.8699062316367872e+18
14324.0	1.8695742457643003e+18
14325.0	1.8692117790457853e+18
14326.0	1.8688687504097272e+18
14327.0	1.8685087499419643e+18
14328.0	1.8681568897794043e+18
14329.0	1.86780975408087e+18
14330.0	1.8674569493610496e+18
14331.0	1.8671038896275456e+18
14332.0	1.866751319788748e+18
14333.0	1.866398615732224e+18
14334.0	1.8660458630217723e+18
14335.0	1.8656825121439741e+18
14336.0	1.8653231995420664e+18
14337.0	1.8649850312654845e+18
14338.0	1.8645922799943675e+18
14339.0	1.8642001712906237e+18
14340.0	1.8638588438642683e+18
14341.0	1.8635062253715453e+18
14342.0	1.8631519962660861e+18
14343.0	1.862800785381785e+18
14344.0	1.8624457610362877e+18
14345.0	1.8620977176903677e+18
14346.0	1.8617432906137597e+18
14347.0	1.861384655811379e+18
14348.0	1.86104065074135e+18
14349.0	1.8606896646717437e+18
14350.0	1.860323819021926e+18
14351.0	1.8599666807472125e+18
14352.0	1.859625417074278e+18
14353.0	1.85928197907415e+18
14354.0	1.8589298437652477e+18
14355.0	1.8585758176641021e+18
14356.0	1.8582253751762944e+18
14357.0	1.8578784290603005e+18
14358.0	1.8575274782228477e+18
14359.0	1.8571607366696955e+18
14360.0	1.8568239273476093e+18
14361.0	1.8564735553241083e+18
14362.0	1.8561231111585787e+18
14363.0	1.8557711067119608e+18
14364.0	1.8553804022611965e+18
14365.0	1.8550531643408381e+18
14366.0	1.8547117278625787e+18
14367.0	1.8543696773382141e+18
14368.0	1.8540190737891323e+18
14369.0	1.8536691664945152e+18
14370.0	1.8532829096837115e+18
14371.0	1.852895064070553e+18
14372.0	1.8525392579067904e+18
14373.0	1.8521939173703677e+18
14374.0	1.851843595678515e+18
14375.0	1.8514918512787456e+18
14376.0	1.8511434052796413e+18
14377.0	1.8507926440247296e+18
14378.0	1.8504407737958397e+18
14379.0	1.8500929703641083e+18
14380.0	1.8497420967018493e+18
14381.0	1.8493814872211453e+18
14382.0	1.8490417888624635e+18
14383.0	1.8486919587430397e+18
14384.0	1.8483254336159736e+18
14385.0	1.8479944040447997e+18
14386.0	1.8476264830533627e+18
14387.0	1.8472949350662141e+18
14388.0	1.846944514388787e+18
14389.0	1.8465955885613053e+18
14390.0	1.8462452366704637e+18
14391.0	1.8458977721384955e+18
14392.0	1.8455480057724925e+18
14393.0	1.8451995933278205e+18
14394.0	1.8448117863022587e+18
14395.0	1.8444911770599421e+18
14396.0	1.844152205154713e+18
14397.0	1.8438030780006392e+18
14398.0	1.843453578392371e+18
14399.0	1.843103983153971e+18
14400.0	1.8427373472972792e+18
14401.0	1.8423950719582205e+18
14402.0	1.8420401734418427e+18
14403.0	1.8412719111667707e+18
14404.0	1.838597537372568e+18
14405.0	1.8393587968376806e+18
14406.0	1.8406244381360125e+18
14407.0	1.8397474964111355e+18
14408.0	1.8398579425017853e+18
14409.0	1.839523149801062e+18
14410.0	1.8391923198787581e+18
14411.0	1.8388480916717563e+18
14412.0	1.838498618907033e+18
14413.0	1.8381543638564861e+18
14414.0	1.8378043928084475e+18
14415.0	1.8374573913276413e+18
14416.0	1.8371102438850555e+18
14417.0	1.8367598852833275e+18
14418.0	1.8364095937904635e+18
14419.0	1.8360643019079677e+18
14420.0	1.835712456844902e+18
14421.0	1.835367169995571e+18
14422.0	1.8350087113539581e+18
14423.0	1.8346130995675128e+18
14424.0	1.8322702720827382e+18
14425.0	1.8339092433469435e+18
14426.0	1.8336235642683387e+18
14427.0	1.8332839481180155e+18
14428.0	1.8329150037164027e+18
14429.0	1.8325889502674941e+18
14430.0	1.8322421517910013e+18
14431.0	1.831822605628211e+18
14432.0	1.8315375070412797e+18
14433.0	1.8308103858552827e+18
14434.0	1.8308324025958392e+18
14435.0	1.8304959573393405e+18
14436.0	1.8301645955792893e+18
14437.0	1.829819026872729e+18
14438.0	1.829459737758924e+18
14439.0	1.8291214486863872e+18
14440.0	1.828779512247091e+18
14441.0	1.828425680761651e+18
14442.0	1.8280738054995963e+18
14443.0	1.8276900954701824e+18
14444.0	1.8273847484612605e+18
14445.0	1.8270341516230653e+18
14446.0	1.8256596463255552e+18
14447.0	1.8263009554071547e+18
14448.0	1.8259474376556541e+18
14449.0	1.8255895561502715e+18
14450.0	1.825238340232806e+18
14451.0	1.8248947092946944e+18
14452.0	1.824551460877107e+18
14453.0	1.8242025031729147e+18
14454.0	1.8238602748100605e+18
14455.0	1.8235064483577856e+18
14456.0	1.8231679009161213e+18
14457.0	1.8228216242110461e+18
14458.0	1.82247591289815e+18
14459.0	1.8221283611246587e+18
14460.0	1.821780894914969e+18
14461.0	1.821418684887859e+18
14462.0	1.8210774178594816e+18
14463.0	1.82074039378903e+18
14464.0	1.820400760861491e+18
14465.0	1.820036545957068e+18
14466.0	1.819710460631449e+18
14467.0	1.819347713733427e+18
14468.0	1.8190185279782912e+18
14469.0	1.81865621225472e+18
14470.0	1.8183060767899645e+18
14471.0	1.817980736372736e+18
14472.0	1.817639539808665e+18
14473.0	1.8172993733656568e+18
14474.0	1.816957421826867e+18
14475.0	1.8166102055976955e+18
14476.0	1.81624510653399e+18
14477.0	1.8159234906587128e+18
14478.0	1.8155766670163965e+18
14479.0	1.8152324337762304e+18
14480.0	1.8148725054504955e+18
14481.0	1.8145461718220797e+18
14482.0	1.8141967275786237e+18
14483.0	1.8138475316379643e+18
14484.0	1.813494683297382e+18
14485.0	1.8131212023365627e+18
14486.0	1.812542401806336e+18
14487.0	1.8124728921227261e+18
14488.0	1.8121331719536637e+18
14489.0	1.8117862157713405e+18
14490.0	1.8114468798005245e+18
14491.0	1.811104104500429e+18
14492.0	1.8107621814829056e+18
14493.0	1.8104110762950653e+18
14494.0	1.8100519499202552e+18
14495.0	1.8097216350584824e+18
14496.0	1.8092627731677181e+18
14497.0	1.8090157940932608e+18
14498.0	1.8086251651399677e+18
14499.0	1.8082817103626237e+18
14500.0	1.8079369234743293e+18
14501.0	1.8075696165289981e+18
14502.0	1.8070474391027707e+18
14503.0	1.80688820151255e+18
14504.0	1.8065553180590077e+18
14505.0	1.806205479550976e+18
14506.0	1.8058440144322555e+18
14507.0	1.8053007899885565e+18
14508.0	1.8051839299682304e+18
14509.0	1.8048464059367424e+18
14510.0	1.8045004614205435e+18
14511.0	1.8041589678997504e+18
14512.0	1.8038034251382781e+18
14513.0	1.8034690736783352e+18
14514.0	1.8030972284960765e+18
14515.0	1.8027573220999165e+18
14516.0	1.800075521032193e+18
14517.0	1.80201987285975e+18
14518.0	1.8017508418125821e+18
14519.0	1.8014151280427003e+18
14520.0	1.801074470027264e+18
14521.0	1.8007322785742843e+18
14522.0	1.8003889328488443e+18
14523.0	1.8000203424464893e+18
14524.0	1.7996788556365824e+18
14525.0	1.7993568152977405e+18
14526.0	1.7990168870912e+18
14527.0	1.7986448489709563e+18
14528.0	1.7982143875514365e+18
14529.0	1.79798075810775e+18
14530.0	1.7976336005988347e+18
14531.0	1.797305795608576e+18
14532.0	1.7969373612343293e+18
14533.0	1.7966226173067261e+18
14534.0	1.7962837796192253e+18
14535.0	1.7959301444272125e+18
14536.0	1.795594915518873e+18
14537.0	1.7952444294103035e+18
14538.0	1.7949154969911293e+18
14539.0	1.7945740017926144e+18
14540.0	1.794231813695078e+18
14541.0	1.7938655284822013e+18
14542.0	1.7935434042572797e+18
14543.0	1.7931762684395515e+18
14544.0	1.7928553924395005e+18
14545.0	1.7924904393375744e+18
14546.0	1.7894519076814835e+18
14547.0	1.7892138272423918e+18
14548.0	1.7914498224488443e+18
14549.0	1.79103171912663e+18
14550.0	1.7907967793823741e+18
14551.0	1.790471891949977e+18
14552.0	1.7901307440398333e+18
14553.0	1.7897815883644925e+18
14554.0	1.78937605956567e+18
14555.0	1.7890340526620672e+18
14556.0	1.7886910861017085e+18
14557.0	1.78834620022784e+18
14558.0	1.787976333079347e+18
14559.0	1.785909422011185e+18
14560.0	1.787290396603187e+18
14561.0	1.78697403367424e+18
14562.0	1.7866174557585405e+18
14563.0	1.7863015458144253e+18
14564.0	1.785958914798387e+18
14565.0	1.7856218001309693e+18
14566.0	1.785281073328947e+18
14567.0	1.7849393382162427e+18
14568.0	1.784591175752089e+18
14569.0	1.7842451574161405e+18
14570.0	1.7834312560803837e+18
14571.0	1.783564418521497e+18
14572.0	1.7831970025242621e+18
14573.0	1.782843285123891e+18
14574.0	1.782545023133286e+18
14575.0	1.7822090979704832e+18
14576.0	1.7818666498260987e+18
14577.0	1.7815238543933435e+18
14578.0	1.781189303284531e+18
14579.0	1.7808506249805821e+18
14580.0	1.7805102102347776e+18
14581.0	1.780166832632627e+18
14582.0	1.7798284462522365e+18
14583.0	1.7794877446160381e+18
14584.0	1.7791373457489923e+18
14585.0	1.7788061702160384e+18
14586.0	1.77846365496279e+18
14587.0	1.778125627614822e+18
14588.0	1.7777857832943616e+18
14589.0	1.777447266051686e+18
14590.0	1.7771086598897661e+18
14591.0	1.7767690806493181e+18
14592.0	1.7764175191212027e+18
14593.0	1.7759816151728125e+18
14594.0	1.7757493698494461e+18
14595.0	1.7754071851073533e+18
14596.0	1.775034455765811e+18
14597.0	1.7746885196382205e+18
14598.0	1.774394165061222e+18
14599.0	1.7740631187128315e+18
14600.0	1.7737250561327104e+18
14601.0	1.773386886178406e+18
14602.0	1.7730456694816763e+18
14603.0	1.7727089474011139e+18
14604.0	1.7723333558665216e+18
14605.0	1.772026379789926e+18
14606.0	1.771619544045977e+18
14607.0	1.7713516605603837e+18
14608.0	1.7710172168257533e+18
14609.0	1.770679776680345e+18
14610.0	1.770339741099622e+18
14611.0	1.7700018714574843e+18
14612.0	1.7696681172664315e+18
14613.0	1.7693311972147197e+18
14614.0	1.7689903227731963e+18
14615.0	1.768655093864857e+18
14616.0	1.7683179640979456e+18
14617.0	1.7679794602770432e+18
14618.0	1.7676303381561336e+18
14619.0	1.7671727244902397e+18
14620.0	1.7667834108706808e+18
14621.0	1.7665445083480061e+18
14622.0	1.766205462623027e+18
14623.0	1.765869456929587e+18
14624.0	1.765479603083673e+18
14625.0	1.7651881509650424e+18
14626.0	1.7648545846788093e+18
14627.0	1.7645168593207293e+18
14628.0	1.7641816035688448e+18
14629.0	1.76384373728215e+18
14630.0	1.7635049297936381e+18
14631.0	1.763165464638259e+18
14632.0	1.762663195056537e+18
14633.0	1.7624553790373885e+18
14634.0	1.7621510168510461e+18
14635.0	1.7618082918825981e+18
14636.0	1.7614545778376704e+18
14637.0	1.7611399110852603e+18
14638.0	1.7607988386725885e+18
14639.0	1.7604510721507325e+18
14640.0	1.760104469967667e+18
14641.0	1.7591345103241208e+18
14642.0	1.75942680969216e+18
14643.0	1.759108607980339e+18
14644.0	1.7587605713453053e+18
14645.0	1.7584152106762237e+18
14646.0	1.7580894827053053e+18
14647.0	1.7577505108000768e+18
14648.0	1.7574194761957376e+18
