# Flux units: erg / (cm m2 s)
# Wavelength units: Angstrom
wave	flux
14000.0	1.522008146208358e+18
14001.0	1.5216387437887485e+18
14002.0	1.5213841092706304e+18
14003.0	1.5210656139575293e+18
14004.0	1.5207447463460867e+18
14005.0	1.5204261285593085e+18
14006.0	1.5201021437411323e+18
14007.0	1.5197819270856701e+18
14008.0	1.5194153935699965e+18
14009.0	1.5191471376302075e+18
14010.0	1.5188214465691648e+18
14011.0	1.5181643014733821e+18
14012.0	1.5181893314019325e+18
14013.0	1.517870260630323e+18
14014.0	1.517548211902873e+18
14015.0	1.517230817175142e+18
14016.0	1.516912714448896e+18
14017.0	1.516594219135795e+18
14018.0	1.5162751315869693e+18
14019.0	1.515956693316403e+18
14020.0	1.5156376141561853e+18
14021.0	1.5153187195453435e+18
14022.0	1.5149964510363648e+18
14023.0	1.5146549239611392e+18
14024.0	1.5143648861618168e+18
14025.0	1.5140673959231485e+18
14026.0	1.5137490499272696e+18
14027.0	1.5134146833678336e+18
14028.0	1.5130809929302013e+18
14029.0	1.512763972334387e+18
14030.0	1.5112613360828426e+18
14031.0	1.5121093689868285e+18
14032.0	1.5118117260754941e+18
14033.0	1.5114599212777467e+18
14034.0	1.5111758561673213e+18
14035.0	1.5108589832110075e+18
14036.0	1.5105392396730365e+18
14037.0	1.5102221016367101e+18
14038.0	1.509907038942003e+18
14039.0	1.509588879173222e+18
14040.0	1.5092690299387896e+18
14041.0	1.5089539521445885e+18
14042.0	1.508631534318387e+18
14043.0	1.5082966543761403e+18
14044.0	1.507996577090764e+18
14045.0	1.507684754076467e+18
14046.0	1.5073632069877752e+18
14047.0	1.5070400593526781e+18
14048.0	1.5067290584219648e+18
14049.0	1.5064153798475773e+18
14050.0	1.5060989330325496e+18
14051.0	1.505776807129907e+18
14052.0	1.5054643163824125e+18
14053.0	1.505149606009241e+18
14054.0	1.5048339611451392e+18
14055.0	1.5045175814389757e+18
14056.0	1.5042023090290685e+18
14057.0	1.5038877211295741e+18
14058.0	1.5035732741586944e+18
14059.0	1.5032575269535744e+18
14060.0	1.502942056572518e+18
14061.0	1.5026226804555773e+18
14062.0	1.5023111661420541e+18
14063.0	1.5019874346598397e+18
14064.0	1.5014536205565955e+18
14065.0	1.5013555996721147e+18
14066.0	1.5010442296426493e+18
14067.0	1.5007083212570621e+18
14068.0	1.5004151830282235e+18
14069.0	1.500097224586035e+18
14070.0	1.4997848277909501e+18
14071.0	1.4994686376673272e+18
14072.0	1.4991555295182843e+18
14073.0	1.4988410305380347e+18
14074.0	1.4985264728375293e+18
14075.0	1.4982015367512064e+18
14076.0	1.4978712436998141e+18
14077.0	1.4973030111379453e+18
14078.0	1.4972519647805435e+18
14079.0	1.4969519965470715e+18
14080.0	1.4966435524640763e+18
14081.0	1.4963299460317181e+18
14082.0	1.4960106907107328e+18
14083.0	1.4956959014846464e+18
14084.0	1.4952695739711485e+18
14085.0	1.494680775897907e+18
14086.0	1.494621995243929e+18
14087.0	1.4943290264649728e+18
14088.0	1.4940069676711936e+18
14089.0	1.493683135525683e+18
14090.0	1.4933836068552704e+18
14091.0	1.4930760922300413e+18
14092.0	1.492762720678707e+18
14093.0	1.4924483844374523e+18
14094.0	1.492135546401587e+18
14095.0	1.4918227620528125e+18
14096.0	1.4914571059855357e+18
14097.0	1.491179454804787e+18
14098.0	1.490861231282585e+18
14099.0	1.490573970112512e+18
14100.0	1.490258383968665e+18
14101.0	1.4899711462866941e+18
14102.0	1.4896579173416957e+18
14103.0	1.4893382996328448e+18
14104.0	1.489033078453043e+18
14105.0	1.4887217453334525e+18
14106.0	1.4884062799855613e+18
14107.0	1.4880911904473088e+18
14108.0	1.4877736380137467e+18
14109.0	1.4874671467986941e+18
14110.0	1.487151045594316e+18
14111.0	1.4868306309677053e+18
14112.0	1.486529199760998e+18
14113.0	1.4862091022237693e+18
14114.0	1.4859040739819515e+18
14115.0	1.4855967338397688e+18
14116.0	1.4852217026641915e+18
14117.0	1.48300894222418e+18
14118.0	1.4846659657727997e+18
14119.0	1.4843260191113213e+18
14120.0	1.4840168032763904e+18
14121.0	1.4837254669205504e+18
14122.0	1.4833719944675325e+18
14123.0	1.4830735328280573e+18
14124.0	1.4827498600660992e+18
14125.0	1.4822493873242107e+18
14126.0	1.4821736851701757e+18
14127.0	1.4818732270419965e+18
14128.0	1.4815621623578621e+18
14129.0	1.4812469537013757e+18
14130.0	1.480930827331174e+18
14131.0	1.4806263191830523e+18
14132.0	1.4803143468515325e+18
14133.0	1.4797217437057014e+18
14134.0	1.479697284202496e+18
14135.0	1.4793750542811136e+18
14136.0	1.4789755837349883e+18
14137.0	1.4787655833223165e+18
14138.0	1.4784321579646976e+18
14139.0	1.4781479049494525e+18
14140.0	1.4778278862651395e+18
14141.0	1.4775273761275904e+18
14142.0	1.4770610852855805e+18
14143.0	1.4769018191740925e+18
14144.0	1.4766024884748288e+18
14145.0	1.4762921804431357e+18
14146.0	1.4759801544245248e+18
14147.0	1.4756728830689283e+18
14148.0	1.4753585736712187e+18
14149.0	1.4750469905711104e+18
14150.0	1.474748684959744e+18
14151.0	1.4744238428258301e+18
14152.0	1.4741335701454848e+18
14153.0	1.4737977406128128e+18
14154.0	1.473400805104025e+18
14155.0	1.4724263776878595e+18
14156.0	1.4727629756170235e+18
14157.0	1.4724766103502848e+18
14158.0	1.4721536506200064e+18
14159.0	1.4718463993970683e+18
14160.0	1.4715368178188288e+18
14161.0	1.4711963779071997e+18
14162.0	1.470867291137638e+18
14163.0	1.4706137471385597e+18
14164.0	1.4702435461234683e+18
14165.0	1.469886674606489e+18
14166.0	1.4696917619441664e+18
14167.0	1.4693782075211773e+18
14168.0	1.4690668190367741e+18
14169.0	1.4687705636012024e+18
14170.0	1.4684562273599488e+18
14171.0	1.4681514776199168e+18
14172.0	1.4678492981493752e+18
14173.0	1.467486819686809e+18
14174.0	1.4672313110757376e+18
14175.0	1.466928193758822e+18
14176.0	1.466618449441587e+18
14177.0	1.4663138204975101e+18
14178.0	1.466006819255091e+18
14179.0	1.4656896141099003e+18
14180.0	1.4653949860642813e+18
14181.0	1.4650885871239163e+18
14182.0	1.4648293506154493e+18
14183.0	1.4645438812520445e+18
14184.0	1.4642367994789885e+18
14185.0	1.4639333449400315e+18
14186.0	1.4632710190399488e+18
14187.0	1.4633080396447741e+18
14188.0	1.4630125123403773e+18
14189.0	1.4627044960763901e+18
14190.0	1.4623964395470848e+18
14191.0	1.4620916646412285e+18
14192.0	1.4618207377686525e+18
14193.0	1.4614627069460475e+18
14194.0	1.4612120805048315e+18
14195.0	1.46091035066368e+18
14196.0	1.460604844271206e+18
14197.0	1.4602987657756667e+18
14198.0	1.4599915061641213e+18
14199.0	1.4596864108134397e+18
14200.0	1.4591601733009408e+18
14201.0	1.4590740306853885e+18
14202.0	1.458773028975411e+18
14203.0	1.4584564982743035e+18
14204.0	1.458162397033267e+18
14205.0	1.457858460988211e+18
14206.0	1.4574899007848448e+18
14207.0	1.457250687883673e+18
14208.0	1.4569465018580992e+18
14209.0	1.456567554880307e+18
14210.0	1.456294379860787e+18
14211.0	1.4560301470973947e+18
14212.0	1.4557289558048765e+18
14213.0	1.4554196946714621e+18
14214.0	1.4551203237068797e+18
14215.0	1.4548084319059963e+18
14216.0	1.4545125220810747e+18
14217.0	1.4542093527547901e+18
14218.0	1.4538999758585856e+18
14219.0	1.4536015897165821e+18
14220.0	1.4532981737652221e+18
14221.0	1.4529914745126912e+18
14222.0	1.4526512577380347e+18
14223.0	1.452388014830387e+18
14224.0	1.4520863571312637e+18
14225.0	1.4511019640487939e+18
14226.0	1.4514760204681213e+18
14227.0	1.4511728863739901e+18
14228.0	1.448975158319514e+18
14229.0	1.4503295645122545e+18
14230.0	1.4502641417584635e+18
14231.0	1.4499233763688448e+18
14232.0	1.4496587040423936e+18
14233.0	1.449351974590873e+18
14234.0	1.4490536001929213e+18
14235.0	1.4487497899769853e+18
14236.0	1.4484486926368763e+18
14237.0	1.4481451542118397e+18
14238.0	1.4478433086078973e+18
14239.0	1.4475342756446208e+18
14240.0	1.4463665948327939e+18
14241.0	1.4469326748778493e+18
14242.0	1.4466339062153213e+18
14243.0	1.4462528738295808e+18
14244.0	1.4460318759518208e+18
14245.0	1.4457194674126848e+18
14246.0	1.4454109276995581e+18
14247.0	1.4451243560730621e+18
14248.0	1.4448161032503293e+18
14249.0	1.4445215775457277e+18
14250.0	1.4442211512942587e+18
14251.0	1.4439210891083776e+18
14252.0	1.4436198189629437e+18
14253.0	1.4433180639559677e+18
14254.0	1.443015694902886e+18
14255.0	1.4426976609632253e+18
14256.0	1.4417724662874117e+18
14257.0	1.4420970349527037e+18
14258.0	1.441809862701875e+18
14259.0	1.4414973098786813e+18
14260.0	1.4411866746912765e+18
14261.0	1.4408988498067453e+18
14262.0	1.44061784653824e+18
14263.0	1.4393740458196997e+18
14264.0	1.4398724113432573e+18
14265.0	1.4397093670027264e+18
14266.0	1.439414780900147e+18
14267.0	1.4391111753662464e+18
14268.0	1.438809625041305e+18
14269.0	1.4385066570416125e+18
14270.0	1.4382110978605053e+18
14271.0	1.4379087808167936e+18
14272.0	1.4376111999811581e+18
14273.0	1.4373111914823677e+18
14274.0	1.4356261969592328e+18
14275.0	1.4365879793876992e+18
14276.0	1.4363985159651323e+18
14277.0	1.436100908285952e+18
14278.0	1.4358138350206973e+18
14279.0	1.435514396947251e+18
14280.0	1.4352111437348864e+18
14281.0	1.434916029150003e+18
14282.0	1.4346170339950587e+18
14283.0	1.434318173057843e+18
14284.0	1.434019122538086e+18
14285.0	1.4337200904732667e+18
14286.0	1.4334182029262845e+18
14287.0	1.433122600124416e+18
14288.0	1.4328238549499901e+18
14289.0	1.4319695893102572e+18
14290.0	1.4322240308903936e+18
14291.0	1.431927325825433e+18
14292.0	1.4316284548218877e+18
14293.0	1.4313299109740541e+18
14294.0	1.430959881086566e+18
14295.0	1.4307268237459453e+18
14296.0	1.4299887604596739e+18
14297.0	1.430136124814131e+18
14298.0	1.4295883738775547e+18
14299.0	1.429527975899955e+18
14300.0	1.4292389615108093e+18
14301.0	1.4289433150881787e+18
14302.0	1.428646207370035e+18
14303.0	1.4283326730797053e+18
14304.0	1.4280439355146237e+18
14305.0	1.4277540017340413e+18
14306.0	1.4274220024397821e+18
14307.0	1.4271481311657981e+18
14308.0	1.4268616602025981e+18
14309.0	1.4265648326639613e+18
14310.0	1.426142890714726e+18
14311.0	1.4256180457111547e+18
14312.0	1.4256313718538237e+18
14313.0	1.4253086939807741e+18
14314.0	1.4250744504909821e+18
14315.0	1.4247836879159293e+18
14316.0	1.4244585991569408e+18
14317.0	1.4241554281529341e+18
14318.0	1.4238922506764285e+18
14319.0	1.423596012018073e+18
14320.0	1.4232993287634941e+18
14321.0	1.4230017563164672e+18
14322.0	1.4226827727863803e+18
14323.0	1.4224035948789757e+18
14324.0	1.4221128373370875e+18
14325.0	1.4218138220494845e+18
14326.0	1.4215224403951613e+18
14327.0	1.4212231851933693e+18
14328.0	1.4209263241003008e+18
14329.0	1.4206348082282493e+18
14330.0	1.4203493237653504e+18
14331.0	1.4201001133211645e+18
14332.0	1.4198081629192187e+18
14333.0	1.4195126372925437e+18
14334.0	1.419217168708403e+18
14335.0	1.4189091809656832e+18
14336.0	1.4185527238459392e+18
14337.0	1.4183296254607357e+18
14338.0	1.4180345444302845e+18
14339.0	1.4177332474413053e+18
14340.0	1.417445612139315e+18
14341.0	1.4171447178035197e+18
14342.0	1.4168546279948285e+18
14343.0	1.4165558844981245e+18
14344.0	1.4162616859492347e+18
14345.0	1.4159709099524093e+18
14346.0	1.4156743223279613e+18
14347.0	1.415343208870707e+18
14348.0	1.415086673494016e+18
14349.0	1.4147925990965248e+18
14350.0	1.4144446564139003e+18
14351.0	1.4141449431941117e+18
14352.0	1.4139049300197376e+18
14353.0	1.4135961403260925e+18
14354.0	1.4131701097693181e+18
14355.0	1.412863304820326e+18
14356.0	1.412576419459891e+18
14357.0	1.4122951628554237e+18
14358.0	1.4120008082784253e+18
14359.0	1.4116951676682237e+18
14360.0	1.4114034018156541e+18
14361.0	1.4111137045938176e+18
14362.0	1.4108214857564157e+18
14363.0	1.4105279901728765e+18
14364.0	1.410060135694336e+18
14365.0	1.4099232638107645e+18
14366.0	1.4096184637390848e+18
14367.0	1.4093579488067581e+18
14368.0	1.4090637099925501e+18
14369.0	1.4087718451544064e+18
14370.0	1.408478998849126e+18
14371.0	1.4081834094690301e+18
14372.0	1.4078844898115581e+18
14373.0	1.4075945291874301e+18
14374.0	1.4073031601160192e+18
14375.0	1.4070087753400317e+18
14376.0	1.4067160573804544e+18
14377.0	1.406416402880921e+18
14378.0	1.4061229014253565e+18
14379.0	1.4058319652061181e+18
14380.0	1.4055392615071741e+18
14381.0	1.4052412545302525e+18
14382.0	1.404903590409011e+18
14383.0	1.4045312486211581e+18
14384.0	1.4042374107824123e+18
14385.0	1.4039552104595453e+18
14386.0	1.4036546751561725e+18
14387.0	1.4033710621917181e+18
14388.0	1.4030774835609595e+18
14389.0	1.402787828282163e+18
14390.0	1.4024950348251133e+18
14391.0	1.4022033948016637e+18
14392.0	1.4019096148443133e+18
14393.0	1.4016220642672637e+18
14394.0	1.4013115624587261e+18
14395.0	1.4010234263568381e+18
14396.0	1.4007479083991037e+18
14397.0	1.4004574234869757e+18
14398.0	1.4001649697685501e+18
14399.0	1.399875194532659e+18
14400.0	1.3995684726308864e+18
14401.0	1.3992895740641277e+18
14402.0	1.3990008868306941e+18
14403.0	1.3967444552974292e+18
14404.0	1.3923025044897777e+18
14405.0	1.397326279920841e+18
14406.0	1.3978387366281213e+18
14407.0	1.3944392557527055e+18
14408.0	1.397228218771046e+18
14409.0	1.3969584369434621e+18
14410.0	1.3966657315667965e+18
14411.0	1.3963870452318208e+18
14412.0	1.3960968639873021e+18
14413.0	1.3958090911121403e+18
14414.0	1.3955176347992061e+18
14415.0	1.3952283553300477e+18
14416.0	1.394931913667379e+18
14417.0	1.394619529455206e+18
14418.0	1.3943244752683008e+18
14419.0	1.394069082420019e+18
14420.0	1.3937775371878397e+18
14421.0	1.3934905033490427e+18
14422.0	1.3931989161738237e+18
14423.0	1.3929067870945277e+18
14424.0	1.3803638258401188e+18
14425.0	1.3923298756788221e+18
14426.0	1.3920437578760187e+18
14427.0	1.391754153767731e+18
14428.0	1.3914528978829312e+18
14429.0	1.3911777423130621e+18
14430.0	1.3908900818452477e+18
14431.0	1.3903029732376576e+18
14432.0	1.3903039287001085e+18
14433.0	1.3876901500157934e+18
14434.0	1.3897271313694717e+18
14435.0	1.3894019721461757e+18
14436.0	1.3891534738948093e+18
14437.0	1.388865192670003e+18
14438.0	1.3884945193762813e+18
14439.0	1.388273827682713e+18
14440.0	1.3879997919920128e+18
14441.0	1.3877072610983936e+18
14442.0	1.3874146899394557e+18
14443.0	1.3871055990947837e+18
14444.0	1.3868450287976445e+18
14445.0	1.3865598933008381e+18
14446.0	1.383581643020699e+18
14447.0	1.385977593882214e+18
14448.0	1.3856968590491645e+18
14449.0	1.3854091834818557e+18
14450.0	1.3851185039540221e+18
14451.0	1.3848323492413437e+18
14452.0	1.3845455226011645e+18
14453.0	1.384221096542208e+18
14454.0	1.3839710581424125e+18
14455.0	1.3836797108813821e+18
14456.0	1.3833865609084925e+18
14457.0	1.3830962790006781e+18
14458.0	1.3828181479915517e+18
14459.0	1.3825315092561917e+18
14460.0	1.3822462772903933e+18
14461.0	1.3819391686737917e+18
14462.0	1.38136516558848e+18
14463.0	1.3813815342792701e+18
14464.0	1.3810991410184187e+18
14465.0	1.3807998682005501e+18
14466.0	1.380525815732633e+18
14467.0	1.3802060461899773e+18
14468.0	1.3799501886128125e+18
14469.0	1.3795612877127675e+18
14470.0	1.3792445070311421e+18
14471.0	1.3789622857367552e+18
14472.0	1.378679463818035e+18
14473.0	1.3783966989418493e+18
14474.0	1.3781121724579837e+18
14475.0	1.3778231152869373e+18
14476.0	1.377407793627136e+18
14477.0	1.3772953116213245e+18
14478.0	1.3770088876343293e+18
14479.0	1.3767196031320061e+18
14480.0	1.3764297884696573e+18
14481.0	1.376153882958233e+18
14482.0	1.3758664682766336e+18
14483.0	1.3755768297750525e+18
14484.0	1.3752945816371197e+18
14485.0	1.3749888361693181e+18
14486.0	1.37456309501952e+18
14487.0	1.3744400265904125e+18
14488.0	1.3741117921034237e+18
14489.0	1.3738419356172285e+18
14490.0	1.3735780610473981e+18
14491.0	1.3733008544628736e+18
14492.0	1.373013965746995e+18
14493.0	1.3727236116971515e+18
14494.0	1.3724337366368253e+18
14495.0	1.3721618819842045e+18
14496.0	1.3718033285513213e+18
14497.0	1.3715915799527421e+18
14498.0	1.3713070257864701e+18
14499.0	1.3710232375001085e+18
14500.0	1.3707383788273661e+18
14501.0	1.3703911986692093e+18
14502.0	1.3699708362948608e+18
14503.0	1.3698655349374976e+18
14504.0	1.369597451803033e+18
14505.0	1.3692626565857275e+18
14506.0	1.368901784541593e+18
14507.0	1.3686164754006016e+18
14508.0	1.3684667177762813e+18
14509.0	1.3681825201258493e+18
14510.0	1.3678972772548605e+18
14511.0	1.3676152908414973e+18
14512.0	1.3673230233501693e+18
14513.0	1.3670445643464701e+18
14514.0	1.3667332823973885e+18
14515.0	1.3664747966693373e+18
14516.0	1.3647977872621578e+18
14517.0	1.3659080782512125e+18
14518.0	1.3656257453883392e+18
14519.0	1.3653423857598461e+18
14520.0	1.3650585605636093e+18
14521.0	1.3647733537636347e+18
14522.0	1.3644896074203133e+18
14523.0	1.3640469514813437e+18
14524.0	1.3637825140359163e+18
14525.0	1.3636404605091837e+18
14526.0	1.3633585470767101e+18
14527.0	1.3630680789417981e+18
14528.0	1.3627038212554747e+18
14529.0	1.3625088255459325e+18
14530.0	1.3622211021635581e+18
14531.0	1.361947869262643e+18
14532.0	1.3614497352646653e+18
14533.0	1.3613829241962493e+18
14534.0	1.3611013068816381e+18
14535.0	1.3608128041975805e+18
14536.0	1.3605344886390781e+18
14537.0	1.3602462896226301e+18
14538.0	1.3599718940606464e+18
14539.0	1.3596889404407808e+18
14540.0	1.3594077257793533e+18
14541.0	1.3591141882527744e+18
14542.0	1.3588428369166333e+18
14543.0	1.358468975113011e+18
14544.0	1.3582785755217917e+18
14545.0	1.357991286669312e+18
14546.0	1.3414164995243917e+18
14547.0	1.3430035285278582e+18
14548.0	1.357144447464243e+18
14549.0	1.3568045930774525e+18
14550.0	1.3565847578607613e+18
14551.0	1.356307786996121e+18
14552.0	1.3560253408870397e+18
14553.0	1.3557391920463867e+18
14554.0	1.3554635616813056e+18
14555.0	1.3551699738230781e+18
14556.0	1.354884937311846e+18
14557.0	1.3546074228654077e+18
14558.0	1.3543260706308093e+18
14559.0	1.3529915907375068e+18
14560.0	1.3537303301455867e+18
14561.0	1.353479092174848e+18
14562.0	1.3531834818232317e+18
14563.0	1.3529200602382333e+18
14564.0	1.352611575051059e+18
14565.0	1.3523598060814333e+18
14566.0	1.3520790779592701e+18
14567.0	1.3517968868638717e+18
14568.0	1.3514594467184637e+18
14569.0	1.351235922191974e+18
14570.0	1.3506365033021443e+18
14571.0	1.3506743426351101e+18
14572.0	1.3503492085776381e+18
14573.0	1.350083617698611e+18
14574.0	1.3497604893573117e+18
14575.0	1.3495485394321405e+18
14576.0	1.3492655740682237e+18
14577.0	1.3489902121385981e+18
14578.0	1.3487116080119805e+18
14579.0	1.3485046014935037e+18
14580.0	1.3482407059521536e+18
14581.0	1.3479552256835581e+18
14582.0	1.3476775208157184e+18
14583.0	1.347401557422899e+18
14584.0	1.3471062046015485e+18
14585.0	1.3468420146200573e+18
14586.0	1.3465605030019072e+18
14587.0	1.3462798721875968e+18
14588.0	1.3460030288297981e+18
14589.0	1.3457334600728573e+18
14590.0	1.3454639760408576e+18
14591.0	1.3451896048058365e+18
14592.0	1.3449211391508477e+18
14593.0	1.3445887128764416e+18
14594.0	1.3443808372981757e+18
14595.0	1.3441080045338621e+18
14596.0	1.3436778769809403e+18
14597.0	1.3433846598991867e+18
14598.0	1.3432604069986301e+18
14599.0	1.3428993940258816e+18
14600.0	1.3426254799699965e+18
14601.0	1.3423611582873597e+18
14602.0	1.3420720390406141e+18
14603.0	1.3418228931887101e+18
14604.0	1.3415149431947261e+18
14605.0	1.3412370604883965e+18
14606.0	1.3409609628778493e+18
14607.0	1.340742134294118e+18
14608.0	1.3404744949170173e+18
14609.0	1.3401963714576381e+18
14610.0	1.3398531473670141e+18
14611.0	1.3396660033945597e+18
14612.0	1.339401610408755e+18
14613.0	1.3391345817223165e+18
14614.0	1.3388639828443136e+18
14615.0	1.3385901644185597e+18
14616.0	1.3383296830406656e+18
14617.0	1.3380595858014205e+18
14618.0	1.3377698525085693e+18
14619.0	1.337444538934886e+18
14620.0	1.3368391750385664e+18
14621.0	1.3369874604621821e+18
14622.0	1.33671782711296e+18
14623.0	1.3364513462026237e+18
14624.0	1.3361514635329533e+18
14625.0	1.3359134745296893e+18
14626.0	1.3356429427605501e+18
14627.0	1.3353702240813053e+18
14628.0	1.3351112274870267e+18
14629.0	1.3348432483713021e+18
14630.0	1.334571416367923e+18
14631.0	1.3343065016107005e+18
14632.0	1.3329773795213317e+18
14633.0	1.3336632363057147e+18
14634.0	1.3334947276259325e+18
14635.0	1.3325942583721935e+18
14636.0	1.3305802232168445e+18
14637.0	1.332699196502835e+18
14638.0	1.3324218716389373e+18
14639.0	1.3321504330612736e+18
14640.0	1.3318942818828285e+18
14641.0	1.3276431526133722e+18
14642.0	1.3313579495194624e+18
14643.0	1.3310915373957117e+18
14644.0	1.3308160404094973e+18
14645.0	1.3305429492760573e+18
