# Flux units: erg / (cm m2 s)
# Wavelength units: Angstrom
wave	flux
14000.0	2.1489054986010621e+18
14001.0	2.148384691873382e+18
14002.0	2.147886723969843e+18
14003.0	2.147377827387801e+18
14004.0	2.146869068378931e+18
14005.0	2.146360295948288e+18
14006.0	2.145850129330995e+18
14007.0	2.145341977657344e+18
14008.0	2.1448123477917693e+18
14009.0	2.144326462839193e+18
14010.0	2.1438152107360253e+18
14011.0	2.143188323349299e+18
14012.0	2.1428026034094077e+18
14013.0	2.1422950506823677e+18
14014.0	2.1417875298320381e+18
14015.0	2.1412796533047293e+18
14016.0	2.1407729948033021e+18
14017.0	2.1402659353264125e+18
14018.0	2.1397586845892603e+18
14019.0	2.1392522458693624e+18
14020.0	2.1387454363729917e+18
14021.0	2.1382334443945984e+18
14022.0	2.1377091312287736e+18
14023.0	2.1372004342956027e+18
14024.0	2.1366933446197245e+18
14025.0	2.1361910465167355e+18
14026.0	2.1356848108011515e+18
14027.0	2.1351796085620736e+18
14028.0	2.13467410768855e+18
14029.0	2.1341683920666621e+18
14030.0	2.1335791259090944e+18
14031.0	2.13315363054551e+18
14032.0	2.1326532500783101e+18
14033.0	2.1321381677367293e+18
14034.0	2.1316438153232384e+18
14035.0	2.131139458655846e+18
14036.0	2.130635098633011e+18
14037.0	2.130130884571955e+18
14038.0	2.1296268047286264e+18
14039.0	2.1291129739673595e+18
14040.0	2.1285933198344187e+18
14041.0	2.128091335465369e+18
14042.0	2.1275864654151677e+18
14043.0	2.1270768474128381e+18
14044.0	2.1265799062749181e+18
14045.0	2.1260783195258877e+18
14046.0	2.1255745668382717e+18
14047.0	2.1250713510215677e+18
14048.0	2.124570106527744e+18
14049.0	2.124067820168806e+18
14050.0	2.1235654113361915e+18
14051.0	2.1230611016450045e+18
14052.0	2.1225609292152827e+18
14053.0	2.1220588307611645e+18
14054.0	2.1215571181830144e+18
14055.0	2.1210554156711933e+18
14056.0	2.120553855765708e+18
14057.0	2.1200524518883325e+18
14058.0	2.119551178873241e+18
14059.0	2.119031204295475e+18
14060.0	2.118526310757171e+18
14061.0	2.118024096540262e+18
14062.0	2.1175246555971581e+18
14063.0	2.1170204264366077e+18
14064.0	2.116512251274854e+18
14065.0	2.1160215059628027e+18
14066.0	2.115522940790374e+18
14067.0	2.1150206745640957e+18
14068.0	2.1145231059582973e+18
14069.0	2.1140229838602235e+18
14070.0	2.113523680490291e+18
14071.0	2.1130236724772861e+18
14072.0	2.1125248959119357e+18
14073.0	2.1120256982384637e+18
14074.0	2.1115266683371517e+18
14075.0	2.1110236202926077e+18
14076.0	2.1105263738093565e+18
14077.0	2.1100103653654525e+18
14078.0	2.1095303474053115e+18
14079.0	2.1090320355688443e+18
14080.0	2.1085353393782776e+18
14081.0	2.1080312293359616e+18
14082.0	2.1075124711063547e+18
14083.0	2.107018766293401e+18
14084.0	2.1065213872701437e+18
14085.0	2.1059615315722237e+18
14086.0	2.105524850838732e+18
14087.0	2.1050291797360635e+18
14088.0	2.1045294183481344e+18
14089.0	2.1040326768590843e+18
14090.0	2.1035378697830397e+18
14091.0	2.1030415074590715e+18
14092.0	2.1025449505193984e+18
14093.0	2.1020485328306173e+18
14094.0	2.101552225871462e+18
14095.0	2.1010560866844667e+18
14096.0	2.1005554780471293e+18
14097.0	2.1000608152551421e+18
14098.0	2.0995660148899835e+18
14099.0	2.0990728402370557e+18
14100.0	2.098575092115046e+18
14101.0	2.0980821926084603e+18
14102.0	2.0975868788604925e+18
14103.0	2.0970892414681088e+18
14104.0	2.0965971187466235e+18
14105.0	2.0961015063642112e+18
14106.0	2.0955991260528635e+18
14107.0	2.0950887732084733e+18
14108.0	2.0945940013645821e+18
14109.0	2.094101447468646e+18
14110.0	2.0936035215081467e+18
14111.0	2.0931044966399992e+18
14112.0	2.092620324641177e+18
14113.0	2.09212696208343e+18
14114.0	2.0916302205943805e+18
14115.0	2.091139735329177e+18
14116.0	2.0906329644204027e+18
14117.0	2.0900180022788093e+18
14118.0	2.0896606006018043e+18
14119.0	2.0891654630146045e+18
14120.0	2.0886728352989184e+18
14121.0	2.0881776071147515e+18
14122.0	2.0876871587594235e+18
14123.0	2.087192853322137e+18
14124.0	2.086700712145715e+18
14125.0	2.0861118687739896e+18
14126.0	2.08572172468224e+18
14127.0	2.0852300314574845e+18
14128.0	2.084738136906137e+18
14129.0	2.0842442861314043e+18
14130.0	2.083750487366041e+18
14131.0	2.0832644648402936e+18
14132.0	2.082773390694809e+18
14133.0	2.0821634482962424e+18
14134.0	2.0817699537944573e+18
14135.0	2.0812760275222525e+18
14136.0	2.0807792541564925e+18
14137.0	2.08029814399959e+18
14138.0	2.0798061051641853e+18
14139.0	2.0793178412023805e+18
14140.0	2.0788195713089533e+18
14141.0	2.0783375971254267e+18
14142.0	2.0778327774068733e+18
14143.0	2.0773486607728637e+18
14144.0	2.076869352488959e+18
14145.0	2.0763800500174843e+18
14146.0	2.075890460655616e+18
14147.0	2.0754015641927677e+18
14148.0	2.0749126861848568e+18
14149.0	2.0744241957306368e+18
14150.0	2.0739354670399483e+18
14151.0	2.0734465303117824e+18
14152.0	2.0729587176570877e+18
14153.0	2.072470457050726e+18
14154.0	2.0719764267597821e+18
14155.0	2.071471768102502e+18
14156.0	2.0710052725784573e+18
14157.0	2.0705189715509245e+18
14158.0	2.0700304760635387e+18
14159.0	2.069543878079283e+18
14160.0	2.0690562617180155e+18
14161.0	2.0685555675168763e+18
14162.0	2.0680591028518907e+18
14163.0	2.067595471198617e+18
14164.0	2.067101793229209e+18
14165.0	2.0665281852473344e+18
14166.0	2.0661136907042816e+18
14167.0	2.0656249603358715e+18
14168.0	2.0651410047631355e+18
14169.0	2.064655970415411e+18
14170.0	2.0641689999769597e+18
14171.0	2.0636836401512443e+18
14172.0	2.0631985168842752e+18
14173.0	2.0626734219001853e+18
14174.0	2.062226543974809e+18
14175.0	2.06174225956864e+18
14176.0	2.0612567269375997e+18
14177.0	2.0607718955941888e+18
14178.0	2.060286183446937e+18
14179.0	2.0597937000153083e+18
14180.0	2.059309432386355e+18
14181.0	2.0588249751748605e+18
14182.0	2.0583404693094397e+18
14183.0	2.0578564315283448e+18
14184.0	2.057371231086182e+18
14185.0	2.056888424752742e+18
14186.0	2.0563739967225853e+18
14187.0	2.0559156079493115e+18
14188.0	2.0554372274454525e+18
14189.0	2.0549528708972544e+18
14190.0	2.054470520904089e+18
14191.0	2.0539873521827835e+18
14192.0	2.0535027926302717e+18
14193.0	2.0530173573070845e+18
14194.0	2.0525386395811837e+18
14195.0	2.052056514402713e+18
14196.0	2.0515739765047293e+18
14197.0	2.051091665099161e+18
14198.0	2.0506083957145597e+18
14199.0	2.0501259517689848e+18
14200.0	2.0496300726288381e+18
14201.0	2.049159928060313e+18
14202.0	2.0486611212959744e+18
14203.0	2.0481701864013821e+18
14204.0	2.0476973809663997e+18
14205.0	2.047216150013542e+18
14206.0	2.0467092499202043e+18
14207.0	2.0462545001250816e+18
14208.0	2.0457736768585725e+18
14209.0	2.0452630069247992e+18
14210.0	2.0447934009049083e+18
14211.0	2.044331572802355e+18
14212.0	2.0438511085682688e+18
14213.0	2.0433706476896253e+18
14214.0	2.042890810923417e+18
14215.0	2.0424082176606205e+18
14216.0	2.041931159201382e+18
14217.0	2.0414514432311293e+18
14218.0	2.0409690529726461e+18
14219.0	2.040492383744819e+18
14220.0	2.040013092238131e+18
14221.0	2.0395337973759992e+18
14222.0	2.0390503249870845e+18
14223.0	2.0385758250532861e+18
14224.0	2.0380970771283963e+18
14225.0	2.0375758794915837e+18
14226.0	2.0371398614581243e+18
14227.0	2.0366615178641403e+18
14228.0	2.0360865458946043e+18
14229.0	2.0356920430821373e+18
14230.0	2.0352270860287997e+18
14231.0	2.0347456772374525e+18
14232.0	2.0342714625163261e+18
14233.0	2.0337921810759677e+18
14234.0	2.0333163607752701e+18
14235.0	2.0328384768770043e+18
14236.0	2.0323614486167552e+18
14237.0	2.031884363313971e+18
14238.0	2.0314076085223421e+18
14239.0	2.030929637382553e+18
14240.0	2.0301567513067517e+18
14241.0	2.029977532052275e+18
14242.0	2.0294845486596093e+18
14243.0	2.028970202837811e+18
14244.0	2.0285280728645627e+18
14245.0	2.0280483233398784e+18
14246.0	2.0275688422506493e+18
14247.0	2.027100021404467e+18
14248.0	2.0266215217823744e+18
14249.0	2.026148353959526e+18
14250.0	2.0256728373264381e+18
14251.0	2.025198062246297e+18
14252.0	2.02472285095854e+18
14253.0	2.0242476312821755e+18
14254.0	2.0237722941652987e+18
14255.0	2.023291625249177e+18
14256.0	2.0227821968293883e+18
14257.0	2.0223482390380536e+18
14258.0	2.0218743716052987e+18
14259.0	2.02139652629463e+18
14260.0	2.020924779501977e+18
14261.0	2.0204469425799165e+18
14262.0	2.0199849349611515e+18
14263.0	2.0194497786806272e+18
14264.0	2.0190272444956672e+18
14265.0	2.0185634601697277e+18
14266.0	2.0180905523937275e+18
14267.0	2.0176171429789693e+18
14268.0	2.017144127828787e+18
14269.0	2.0166706093621243e+18
14270.0	2.01619824181248e+18
14271.0	2.015724092522496e+18
14272.0	2.0152527836151805e+18
14273.0	2.014780166085017e+18
14274.0	2.0142179464773627e+18
14275.0	2.0138276463575037e+18
14276.0	2.0133538309341181e+18
14277.0	2.0128855452811261e+18
14278.0	2.0124196151492605e+18
14279.0	2.0119477911814144e+18
14280.0	2.011474534439321e+18
14281.0	2.0110047556141053e+18
14282.0	2.0105334567731197e+18
14283.0	2.010062214974668e+18
14284.0	2.0095910939721728e+18
14285.0	2.009120075310694e+18
14286.0	2.0086489979289592e+18
14287.0	2.008178509427507e+18
14288.0	2.0077078414098427e+18
14289.0	2.0070471059898363e+18
14290.0	2.0067645357293565e+18
14291.0	2.0062764277956603e+18
14292.0	2.005806491264614e+18
14293.0	2.0053360077963261e+18
14294.0	2.0048364007587837e+18
14295.0	2.0043818086694912e+18
14296.0	2.0037575385284605e+18
14297.0	2.0034424875778043e+18
14298.0	2.0029369397280765e+18
14299.0	2.0025005022642173e+18
14300.0	2.0020327367049208e+18
14301.0	2.001564763108147e+18
14302.0	2.0010961922424832e+18
14303.0	2.0006198585589755e+18
14304.0	2.0001566077485053e+18
14305.0	1.9996896206520317e+18
14306.0	1.9992024505647101e+18
14307.0	1.9987490647572477e+18
14308.0	1.998285530411827e+18
14309.0	1.9978162599362555e+18
14310.0	1.997260563310182e+18
14311.0	1.9968623661547517e+18
14312.0	1.9964050628673533e+18
14313.0	1.9959338479124477e+18
14314.0	1.9954786585542653e+18
14315.0	1.995012119409459e+18
14316.0	1.9945336264982525e+18
14317.0	1.9940684748292093e+18
14318.0	1.993611216840294e+18
14319.0	1.9931445485109243e+18
14320.0	1.9926777644187643e+18
14321.0	1.9922113460699133e+18
14322.0	1.9917350711066621e+18
14323.0	1.991275279758131e+18
14324.0	1.9908124886433787e+18
14325.0	1.9903439848865787e+18
14326.0	1.9898804975173627e+18
14327.0	1.9894130087821307e+18
14328.0	1.9889476289429501e+18
14329.0	1.9884834134425597e+18
14330.0	1.9880179631390715e+18
14331.0	1.987552511157862e+18
14332.0	1.9870874047873021e+18
14333.0	1.986622330293452e+18
14334.0	1.9861573665292283e+18
14335.0	1.985688144707584e+18
14336.0	1.9852199731396603e+18
14337.0	1.9847630439841787e+18
14338.0	1.98429824295895e+18
14339.0	1.983831527653376e+18
14340.0	1.9833700770381821e+18
14341.0	1.9829055343820792e+18
14342.0	1.982441906084249e+18
14343.0	1.981974122070016e+18
14344.0	1.9815121782046715e+18
14345.0	1.9810507074568187e+18
14346.0	1.9805753686622205e+18
14347.0	1.9801005096959997e+18
14348.0	1.9796406428499965e+18
14349.0	1.979177564844851e+18
14350.0	1.9787109502025725e+18
14351.0	1.9782477732118525e+18
14352.0	1.9777871883010045e+18
14353.0	1.97732592559063e+18
14354.0	1.976862647936614e+18
14355.0	1.9763995112112125e+18
14356.0	1.9759375505686525e+18
14357.0	1.975476138541056e+18
14358.0	1.9750139866382333e+18
14359.0	1.974548147103334e+18
14360.0	1.9740896408895483e+18
14361.0	1.9736281449758717e+18
14362.0	1.973166571887001e+18
14363.0	1.9727049283338235e+18
14364.0	1.972230725356748e+18
14365.0	1.9717805372866555e+18
14366.0	1.9713190547947517e+18
14367.0	1.9708599160799232e+18
14368.0	1.9703988244971515e+18
14369.0	1.969938075169587e+18
14370.0	1.9694773392637947e+18
14371.0	1.9690167191207933e+18
14372.0	1.968556166086656e+18
14373.0	1.96809573049303e+18
14374.0	1.967635501259161e+18
14375.0	1.9671753307455483e+18
14376.0	1.9667152961273853e+18
14377.0	1.9662552245993464e+18
14378.0	1.9657949517447165e+18
14379.0	1.965335806319001e+18
14380.0	1.9648761156337661e+18
14381.0	1.9644138211246077e+18
14382.0	1.963956937267609e+18
14383.0	1.9634920691335165e+18
14384.0	1.963033854843289e+18
14385.0	1.9625799304871933e+18
14386.0	1.962117474916761e+18
14387.0	1.961662156374016e+18
14388.0	1.9612029740384253e+18
14389.0	1.960744882221875e+18
14390.0	1.9602860203311096e+18
14391.0	1.9598279973011456e+18
14392.0	1.9593678418870264e+18
14393.0	1.9589118421893115e+18
14394.0	1.9584452124475387e+18
14395.0	1.957990918992691e+18
14396.0	1.9575380180467707e+18
14397.0	1.957080503366451e+18
14398.0	1.956621403239219e+18
14399.0	1.9561653464989693e+18
14400.0	1.9557029261606907e+18
14401.0	1.9552495235760125e+18
14402.0	1.9547935188451325e+18
14403.0	1.9530170700398566e+18
14404.0	1.9503853523173366e+18
14405.0	1.953144627213106e+18
14406.0	1.9529662099095547e+18
14407.0	1.950547626583655e+18
14408.0	1.952047070130995e+18
14409.0	1.9515930249789437e+18
14410.0	1.951129398358835e+18
14411.0	1.950665541890867e+18
14412.0	1.9502089717678077e+18
14413.0	1.9497537522106363e+18
14414.0	1.949297324693913e+18
14415.0	1.9488418534785021e+18
14416.0	1.9483858806243325e+18
14417.0	1.9479256916557821e+18
14418.0	1.9474657107247096e+18
14419.0	1.9470198679535616e+18
14420.0	1.9465639018102781e+18
14421.0	1.946109697274675e+18
14422.0	1.9456547344089088e+18
14423.0	1.9451978874617853e+18
14424.0	1.9367791995912138e+18
14425.0	1.9442885388664827e+18
14426.0	1.9438319100231675e+18
14427.0	1.9433718770827261e+18
14428.0	1.9429110321250296e+18
14429.0	1.9424626023071744e+18
14430.0	1.9420091963670528e+18
14431.0	1.9415354346307581e+18
14432.0	1.9410944522190845e+18
14433.0	1.9391799101489137e+18
14434.0	1.9401908749860861e+18
14435.0	1.9397353098182656e+18
14436.0	1.9392865662664707e+18
14437.0	1.9388331318050808e+18
14438.0	1.9383354608582656e+18
14439.0	1.9379159868375035e+18
14440.0	1.9374733032161277e+18
14441.0	1.9370193251729405e+18
14442.0	1.9365653790064637e+18
14443.0	1.9361044954611707e+18
14444.0	1.9356611206184963e+18
14445.0	1.9352093672341504e+18
14446.0	1.9331725494583299e+18
14447.0	1.9343013138399232e+18
14448.0	1.9338523958050808e+18
14449.0	1.9334002297012221e+18
14450.0	1.932946682832486e+18
14451.0	1.932495870649958e+18
14452.0	1.932043008291635e+18
14453.0	1.9315625289580536e+18
14454.0	1.9311404897009661e+18
14455.0	1.9306879091998715e+18
14456.0	1.930231025342873e+18
14457.0	1.9297762185052155e+18
14458.0	1.9293320903655421e+18
14459.0	1.9288792347181056e+18
14460.0	1.9284315078655992e+18
14461.0	1.9279746978283517e+18
14462.0	1.9275120157655035e+18
14463.0	1.927077383530086e+18
14464.0	1.9266284738838525e+18
14465.0	1.9261738482401277e+18
14466.0	1.925727458531737e+18
14467.0	1.925254077638246e+18
14468.0	1.9248245775532027e+18
14469.0	1.9243717068062712e+18
14470.0	1.923919723574067e+18
14471.0	1.9234722014035965e+18
14472.0	1.9230235350269947e+18
14473.0	1.922576685622886e+18
14474.0	1.9221269035614203e+18
14475.0	1.92167585817559e+18
14476.0	1.9211321639698432e+18
14477.0	1.9207778073575421e+18
14478.0	1.920327993419366e+18
14479.0	1.9198783673860093e+18
14480.0	1.919425828827955e+18
14481.0	1.918980621913292e+18
14482.0	1.918530755965747e+18
14483.0	1.918079977337651e+18
14484.0	1.9176320541917181e+18
14485.0	1.9171749371314173e+18
14486.0	1.9166693171396603e+18
14487.0	1.9162869140553725e+18
14488.0	1.9158171419410432e+18
14489.0	1.9153697455996925e+18
14490.0	1.914921414767411e+18
14491.0	1.9144743841693693e+18
14492.0	1.9140264174026747e+18
14493.0	1.9135778986655741e+18
14494.0	1.9131251520700416e+18
14495.0	1.9126819617767421e+18
14496.0	1.912203529263513e+18
14497.0	1.911785904091955e+18
14498.0	1.9113378165293053e+18
14499.0	1.9108905325953021e+18
14500.0	1.910442780576972e+18
14501.0	1.9099459031924733e+18
14502.0	1.9094413149995005e+18
14503.0	1.9090776000561147e+18
14504.0	1.908633968522035e+18
14505.0	1.9081449479077883e+18
14506.0	1.9076425290088443e+18
14507.0	1.9072391191724027e+18
14508.0	1.9068466665357307e+18
14509.0	1.9063997181460475e+18
14510.0	1.9059528335097853e+18
14511.0	1.9055060143046656e+18
14512.0	1.905055530955571e+18
14513.0	1.9046125805764603e+18
14514.0	1.9041532103360512e+18
14515.0	1.9037186720530432e+18
14516.0	1.902806496496845e+18
14517.0	1.9028267432411133e+18
14518.0	1.9023804374188027e+18
14519.0	1.9019342423261181e+18
14520.0	1.9014880505888765e+18
14521.0	1.9010413219807232e+18
14522.0	1.900595786232627e+18
14523.0	1.9000491174264827e+18
14524.0	1.8995965084041208e+18
14525.0	1.8992567848796155e+18
14526.0	1.8988122524090365e+18
14527.0	1.898359744049971e+18
14528.0	1.8978912402931707e+18
14529.0	1.8974727208959997e+18
14530.0	1.8970258580701181e+18
14531.0	1.896583640855347e+18
14532.0	1.895988452340531e+18
14533.0	1.895692878059929e+18
14534.0	1.895247922803507e+18
14535.0	1.8947998469849083e+18
14536.0	1.8943573160361981e+18
14537.0	1.8939093660467197e+18
14538.0	1.8934669508607997e+18
14539.0	1.893022151632486e+18
14540.0	1.8925771544330237e+18
14541.0	1.8921272297652224e+18
14542.0	1.8916873210953725e+18
14543.0	1.8911758341111805e+18
14544.0	1.8907975968096253e+18
14545.0	1.8903519754977275e+18
14546.0	1.8812952786239432e+18
14547.0	1.8818263714627512e+18
14548.0	1.8890160913514493e+18
14549.0	1.8885477637554173e+18
14550.0	1.8881287192313856e+18
14551.0	1.8876858594492416e+18
14552.0	1.887240493151027e+18
14553.0	1.886794920493056e+18
14554.0	1.886352914671206e+18
14555.0	1.8859083587125243e+18
14556.0	1.885461719023616e+18
14557.0	1.88502033563648e+18
14558.0	1.884576081667686e+18
14559.0	1.8837853060464627e+18
14560.0	1.8836828677210112e+18
14561.0	1.8832425832415227e+18
14562.0	1.8827942456983547e+18
14563.0	1.8823559526744061e+18
14564.0	1.8819098649559035e+18
14565.0	1.8814680587829243e+18
14566.0	1.8810241185480704e+18
14567.0	1.8805800759721984e+18
14568.0	1.880131000231526e+18
14569.0	1.8796923045543933e+18
14570.0	1.879150546439372e+18
14571.0	1.878803820104908e+18
14572.0	1.8783486827560955e+18
14573.0	1.8778947768549373e+18
14574.0	1.8774555996717053e+18
14575.0	1.87701700633559e+18
14576.0	1.8765735106969597e+18
14577.0	1.8761285017534461e+18
14578.0	1.875677406035968e+18
14579.0	1.8752251224915965e+18
14580.0	1.8747814825689088e+18
14581.0	1.8743344301604861e+18
14582.0	1.8738938940227581e+18
14583.0	1.8734501937020925e+18
14584.0	1.8730038878797821e+18
14585.0	1.8725626370326525e+18
14586.0	1.8721180559081464e+18
14587.0	1.871672988244377e+18
14588.0	1.8712321199177728e+18
14589.0	1.870804042540646e+18
14590.0	1.8703775187337213e+18
14591.0	1.869950691259187e+18
14592.0	1.8695240651112445e+18
14593.0	1.8690714997096443e+18
14594.0	1.8686711030611965e+18
14595.0	1.8682429837410304e+18
14596.0	1.867800518223462e+18
14597.0	1.867360943420211e+18
14598.0	1.866942724335206e+18
14599.0	1.8665168850386941e+18
14600.0	1.866089572702617e+18
14601.0	1.8656627401949181e+18
14602.0	1.8652329733521403e+18
14603.0	1.8648081624989696e+18
14604.0	1.8643713190264832e+18
14605.0	1.863951190694297e+18
14606.0	1.8635122785910784e+18
14607.0	1.8630987336384507e+18
14608.0	1.8626714112360445e+18
14609.0	1.8622350224261115e+18
14610.0	1.8618122281943037e+18
14611.0	1.861388093462937e+18
14612.0	1.8609617256841216e+18
14613.0	1.8605341734338555e+18
14614.0	1.8601055323422712e+18
14615.0	1.8596776260927488e+18
14616.0	1.859250286913126e+18
14617.0	1.8588219595554813e+18
14618.0	1.858390308631347e+18
14619.0	1.857958926142668e+18
14620.0	1.857506756683366e+18
14621.0	1.8571075931602941e+18
14622.0	1.8566787155099643e+18
14623.0	1.8562497824948221e+18
14624.0	1.8558073756975104e+18
14625.0	1.8553914886455293e+18
14626.0	1.854959523987456e+18
14627.0	1.854526774155673e+18
14628.0	1.854103235015475e+18
14629.0	1.8536735671582715e+18
14630.0	1.8532434983256061e+18
14631.0	1.8528129614086136e+18
14632.0	1.8517402832601088e+18
14633.0	1.851888400911564e+18
14634.0	1.8515218506186747e+18
14635.0	1.8510707112804347e+18
14636.0	1.8505869754892283e+18
14637.0	1.8502317145849853e+18
14638.0	1.8498001324474365e+18
14639.0	1.849367167867289e+18
14640.0	1.8489368691867645e+18
14641.0	1.846037621977905e+18
14642.0	1.8480734129881083e+18
14643.0	1.847642681455411e+18
14644.0	1.847207906613657e+18
14645.0	1.8467730076205053e+18
14646.0	1.846341925443993e+18
14647.0	1.845909326607155e+18
14648.0	1.84547999261655e+18
