# Flux units: erg / (cm m2 s)
# Wavelength units: Angstrom
wave	flux
14000.0	2.365721373415833e+18
14001.0	2.365219942694912e+18
14002.0	2.3647046808371195e+18
14003.0	2.3641676840959995e+18
14004.0	2.3635987166920704e+18
14005.0	2.3629756847095803e+18
14006.0	2.362435099321958e+18
14007.0	2.3618960322723835e+18
14008.0	2.361318087380173e+18
14009.0	2.3608249362153467e+18
14010.0	2.360281755392409e+18
14011.0	2.359511642590413e+18
14012.0	2.359214118797312e+18
14013.0	2.358677677382041e+18
14014.0	2.358138328475238e+18
14015.0	2.3576035144499195e+18
14016.0	2.357068272605593e+18
14017.0	2.3565320979480576e+18
14018.0	2.355995809205453e+18
14019.0	2.355460084177305e+18
14020.0	2.3549238944202747e+18
14021.0	2.354387716407296e+18
14022.0	2.353786525004595e+18
14023.0	2.3531652898619387e+18
14024.0	2.352641835689574e+18
14025.0	2.3521281978662907e+18
14026.0	2.3515943854407685e+18
14027.0	2.351060260959027e+18
14028.0	2.3505250275033083e+18
14029.0	2.3499884199935995e+18
14030.0	2.3469147132264463e+18
14031.0	2.3488611403956214e+18
14032.0	2.3483825082335227e+18
14033.0	2.347812673447526e+18
14034.0	2.3473101035536384e+18
14035.0	2.346783201663385e+18
14036.0	2.3462414301265915e+18
14037.0	2.3457157965938683e+18
14038.0	2.345184131651993e+18
14039.0	2.3446508862963707e+18
14040.0	2.3441134785134587e+18
14041.0	2.3435828587921403e+18
14042.0	2.3428451847372795e+18
14043.0	2.3422813276733435e+18
14044.0	2.3417602189557755e+18
14045.0	2.3412301965033467e+18
14046.0	2.3406961408081915e+18
14047.0	2.3401527804690427e+18
14048.0	2.3396306231754747e+18
14049.0	2.339101760028672e+18
14050.0	2.338570061532364e+18
14051.0	2.338034343215104e+18
14052.0	2.3375064900567035e+18
14053.0	2.3369748637024256e+18
14054.0	2.336443483973222e+18
14055.0	2.3359121394761723e+18
14056.0	2.335380927519129e+18
14057.0	2.33484986655703e+18
14058.0	2.334318923035443e+18
14059.0	2.3337838355415035e+18
14060.0	2.3332572725510144e+18
14061.0	2.332724339251609e+18
14062.0	2.3321965129367547e+18
14063.0	2.3316587243110395e+18
14064.0	2.330745449847193e+18
14065.0	2.330489937880678e+18
14066.0	2.3299630292795387e+18
14067.0	2.329377913805209e+18
14068.0	2.3289033652174843e+18
14069.0	2.32836786332631e+18
14070.0	2.327841884182937e+18
14071.0	2.3273135394521083e+18
14072.0	2.3267854077919227e+18
14073.0	2.3262562107785216e+18
14074.0	2.325726953367142e+18
14075.0	2.3251876682137595e+18
14076.0	2.324610748409446e+18
14077.0	2.3235404996018176e+18
14078.0	2.3235664338223104e+18
14079.0	2.3230800623304704e+18
14080.0	2.3225024697597947e+18
14081.0	2.321934399936921e+18
14082.0	2.321402208190464e+18
14083.0	2.3208779654889467e+18
14084.0	2.320349914359398e+18
14085.0	2.3193580000509947e+18
14086.0	2.319245205150105e+18
14087.0	2.318768421837209e+18
14088.0	2.318227856582246e+18
14089.0	2.3176062489853947e+18
14090.0	2.3170673497079803e+18
14091.0	2.3165496215994363e+18
14092.0	2.316023263290982e+18
14093.0	2.3154964855521275e+18
14094.0	2.3149695064866816e+18
14095.0	2.314441208732057e+18
14096.0	2.313795873118617e+18
14097.0	2.3133405545758715e+18
14098.0	2.3128069216665595e+18
14099.0	2.312337357589708e+18
14100.0	2.311804024992563e+18
14101.0	2.3112880417144827e+18
14102.0	2.3107625239445494e+18
14103.0	2.310232073673113e+18
14104.0	2.3097121796259835e+18
14105.0	2.309186489050726e+18
14106.0	2.308662039989453e+18
14107.0	2.308135584373145e+18
14108.0	2.307603085603635e+18
14109.0	2.307084740093542e+18
14110.0	2.3065560564629504e+18
14111.0	2.3060283509440507e+18
14112.0	2.305510758730956e+18
14113.0	2.3049566156750843e+18
14114.0	2.3044571512438784e+18
14115.0	2.3039330175942656e+18
14116.0	2.303274641050828e+18
14117.0	2.2985950627889155e+18
14118.0	2.3022520730910717e+18
14119.0	2.3016581227347965e+18
14120.0	2.301145291895603e+18
14121.0	2.3006665993355264e+18
14122.0	2.300117006260633e+18
14123.0	2.2995422742052861e+18
14124.0	2.299016482966732e+18
14125.0	2.2983903220334584e+18
14126.0	2.298050002917785e+18
14127.0	2.2975543049715704e+18
14128.0	2.29703222820864e+18
14129.0	2.296505396782694e+18
14130.0	2.295978900901068e+18
14131.0	2.2954625183252475e+18
14132.0	2.2949412401577984e+18
14133.0	2.294185730244607e+18
14134.0	2.2939006937333752e+18
14135.0	2.2933416852848637e+18
14136.0	2.2926762186899448e+18
14137.0	2.2923220734705661e+18
14138.0	2.291762348634931e+18
14139.0	2.2912941703561213e+18
14140.0	2.2907634919145464e+18
14141.0	2.290203919751577e+18
14142.0	2.2893777777590272e+18
14143.0	2.2892002681028605e+18
14144.0	2.2886928697262077e+18
14145.0	2.2881739504353275e+18
14146.0	2.2876484662198264e+18
14147.0	2.287129063745126e+18
14148.0	2.2865303050387448e+18
14149.0	2.28596424680407e+18
14150.0	2.2854692987994104e+18
14151.0	2.2849131022123003e+18
14152.0	2.2844303982198784e+18
14153.0	2.283910982323404e+18
14154.0	2.283379537163059e+18
14155.0	2.2826856398979067e+18
14156.0	2.282326174623334e+18
14157.0	2.281834006603366e+18
14158.0	2.281312251962982e+18
14159.0	2.280797474966732e+18
14160.0	2.2802761028468733e+18
14161.0	2.279733722297139e+18
14162.0	2.2791941636751357e+18
14163.0	2.2787185849663483e+18
14164.0	2.278060293986713e+18
14165.0	2.2775966573002747e+18
14166.0	2.2771669558886395e+18
14167.0	2.276644780140134e+18
14168.0	2.2761167524986877e+18
14169.0	2.2756134427295747e+18
14170.0	2.27508887790551e+18
14171.0	2.274581232903782e+18
14172.0	2.2740671605506043e+18
14173.0	2.2735073635729405e+18
14174.0	2.2730273976221693e+18
14175.0	2.2725170548441083e+18
14176.0	2.271997457753702e+18
14177.0	2.2714831337422843e+18
14178.0	2.2709668014981115e+18
14179.0	2.2704433909465083e+18
14180.0	2.2699360596787195e+18
14181.0	2.269420187130265e+18
14182.0	2.268904061245849e+18
14183.0	2.2683886030946301e+18
14184.0	2.267826116729241e+18
14185.0	2.2672513913847803e+18
14186.0	2.2659139704455165e+18
14187.0	2.266204826972979e+18
14188.0	2.2657072650780667e+18
14189.0	2.2651849936994301e+18
14190.0	2.2646716578660347e+18
14191.0	2.2641529935888376e+18
14192.0	2.2636436339556347e+18
14193.0	2.2629920203079677e+18
14194.0	2.2626118083280893e+18
14195.0	2.2621050709737464e+18
14196.0	2.2615910338527227e+18
14197.0	2.261076919556505e+18
14198.0	2.2605608658141181e+18
14199.0	2.2600468941242368e+18
14200.0	2.2590588234760192e+18
14201.0	2.258997455775334e+18
14202.0	2.25850774561751e+18
14203.0	2.2579847242973181e+18
14204.0	2.2574798324367352e+18
14205.0	2.2569667381952504e+18
14206.0	2.256399206921011e+18
14207.0	2.255941700629299e+18
14208.0	2.255429188557209e+18
14209.0	2.2548592111648765e+18
14210.0	2.2543629243383803e+18
14211.0	2.2538911507021821e+18
14212.0	2.2533786788954104e+18
14213.0	2.252856785004134e+18
14214.0	2.252354184911257e+18
14215.0	2.2518352941416443e+18
14216.0	2.2513306707165181e+18
14217.0	2.2508191602442232e+18
14218.0	2.250301668694425e+18
14219.0	2.249795793688985e+18
14220.0	2.2492806324944893e+18
14221.0	2.2487598173782008e+18
14222.0	2.2481748159889403e+18
14223.0	2.2477475657285627e+18
14224.0	2.247227211985715e+18
14225.0	2.2453020499378184e+18
14226.0	2.24610929910743e+18
14227.0	2.245605965850214e+18
14228.0	2.2423001983090693e+18
14229.0	2.2440516423516137e+18
14230.0	2.2440749526155261e+18
14231.0	2.243479747323494e+18
14232.0	2.2430547837976573e+18
14233.0	2.2425419529584637e+18
14234.0	2.2420347089321981e+18
14235.0	2.2415237403639803e+18
14236.0	2.2410147397631995e+18
14237.0	2.2405028350263293e+18
14238.0	2.23999345861591e+18
14239.0	2.2394745611354104e+18
14240.0	2.238388080371302e+18
14241.0	2.2384529964531712e+18
14242.0	2.237951970063155e+18
14243.0	2.2373808333651965e+18
14244.0	2.236940533786214e+18
14245.0	2.236425218241331e+18
14246.0	2.23589432337367e+18
14247.0	2.2352805037604856e+18
14248.0	2.2347665152933883e+18
14249.0	2.2342630008422395e+18
14250.0	2.233754748505292e+18
14251.0	2.2332478299570173e+18
14252.0	2.232739809145651e+18
14253.0	2.2322314762780672e+18
14254.0	2.2317225092317181e+18
14255.0	2.231200414013849e+18
14256.0	2.2292675982000136e+18
14257.0	2.2301274389086203e+18
14258.0	2.2296925499817976e+18
14259.0	2.229176781452083e+18
14260.0	2.2286389760491517e+18
14261.0	2.2281620199309304e+18
14262.0	2.2276767691571195e+18
14263.0	2.2250788810129418e+18
14264.0	2.2262535579238392e+18
14265.0	2.226151312536371e+18
14266.0	2.225655488761036e+18
14267.0	2.2251499023237117e+18
14268.0	2.2246440407400445e+18
14269.0	2.22413697622999e+18
14270.0	2.2236318880759808e+18
14271.0	2.2231241675767803e+18
14272.0	2.2226176063832061e+18
14273.0	2.2220649816653821e+18
14274.0	2.2183419949613071e+18
14275.0	2.2206957611909117e+18
14276.0	2.2204850175475712e+18
14277.0	2.2199858634948603e+18
14278.0	2.21949048431575e+18
14279.0	2.2189851512143867e+18
14280.0	2.2184774156156923e+18
14281.0	2.217975614118297e+18
14282.0	2.2174707675561976e+18
14283.0	2.2169658303971323e+18
14284.0	2.2164608278069245e+18
14285.0	2.2159551742607357e+18
14286.0	2.2154484603944955e+18
14287.0	2.2149466823852027e+18
14288.0	2.214442436447436e+18
14289.0	2.213560803812965e+18
14290.0	2.2134323356368893e+18
14291.0	2.2129297623875576e+18
14292.0	2.2124262210928637e+18
14293.0	2.211921255412531e+18
14294.0	2.2113563950710776e+18
14295.0	2.2109070945157117e+18
14296.0	2.2101037175275517e+18
14297.0	2.2099054494220283e+18
14298.0	2.208914184391884e+18
14299.0	2.208880284349235e+18
14300.0	2.2083933877305344e+18
14301.0	2.2078931800686587e+18
14302.0	2.207388586842521e+18
14303.0	2.2068674177269755e+18
14304.0	2.2063747547791357e+18
14305.0	2.205872471775641e+18
14306.0	2.2053237678931965e+18
14307.0	2.2048321954643963e+18
14308.0	2.2043390493327355e+18
14309.0	2.203812581972377e+18
14310.0	2.2031475012534272e+18
14311.0	2.2025603205038077e+18
14312.0	2.2021949110616061e+18
14313.0	2.2017817284968448e+18
14314.0	2.201312753300275e+18
14315.0	2.200839226445004e+18
14316.0	2.2003255735222264e+18
14317.0	2.1997793979662333e+18
14318.0	2.1993529580453883e+18
14319.0	2.198855795448217e+18
14320.0	2.1983563578605565e+18
14321.0	2.1978569454387195e+18
14322.0	2.1973388012552187e+18
14323.0	2.1968486280462333e+18
14324.0	2.1963554500378624e+18
14325.0	2.195852146979635e+18
14326.0	2.1953572996382717e+18
14327.0	2.1948540569780224e+18
14328.0	2.1943546881769472e+18
14329.0	2.1937657340755968e+18
14330.0	2.1932647227850747e+18
14331.0	2.1927543061872637e+18
14332.0	2.1922648543985661e+18
14333.0	2.1917650292572157e+18
14334.0	2.1912652057935867e+18
14335.0	2.190759303944601e+18
14336.0	2.1901144162828285e+18
14337.0	2.1897657052037115e+18
14338.0	2.1892655646507005e+18
14339.0	2.1887559751696381e+18
14340.0	2.1882655402360827e+18
14341.0	2.1877570496626683e+18
14342.0	2.1872689383735296e+18
14343.0	2.1867664171335677e+18
14344.0	2.186267330189721e+18
14345.0	2.185770003175833e+18
14346.0	2.1852642875539453e+18
14347.0	2.1847224572968955e+18
14348.0	2.1842676924022781e+18
14349.0	2.1837751234068475e+18
14350.0	2.183159426423193e+18
14351.0	2.1826515951943675e+18
14352.0	2.1822783189155837e+18
14353.0	2.1817836628344827e+18
14354.0	2.181270920914534e+18
14355.0	2.180744052578713e+18
14356.0	2.1802566794870776e+18
14357.0	2.1797923733897208e+18
14358.0	2.179294774584934e+18
14359.0	2.178789406251417e+18
14360.0	2.1782891281252347e+18
14361.0	2.1777974634217467e+18
14362.0	2.1773045202943992e+18
14363.0	2.1768064349503483e+18
14364.0	2.1759167492521976e+18
14365.0	2.1757321294118902e+18
14366.0	2.1752540106326016e+18
14367.0	2.174819145193881e+18
14368.0	2.174322011117977e+18
14369.0	2.1738253434486781e+18
14370.0	2.173328877105971e+18
14371.0	2.1728327412744187e+18
14372.0	2.172333021829529e+18
14373.0	2.171837922829926e+18
14374.0	2.1713428523515901e+18
14375.0	2.1708463860088824e+18
14376.0	2.170350000196812e+18
14377.0	2.1698534281576443e+18
14378.0	2.1693563075035133e+18
14379.0	2.1688613108449277e+18
14380.0	2.1683647438389243e+18
14381.0	2.1678635781980155e+18
14382.0	2.1673725292183547e+18
14383.0	2.166871626979737e+18
14384.0	2.1663718051938301e+18
14385.0	2.165886084657971e+18
14386.0	2.165383164120268e+18
14387.0	2.1648948565377021e+18
14388.0	2.16439851099095e+18
14389.0	2.1639039790612475e+18
14390.0	2.1634079556370424e+18
14391.0	2.1629095397818358e+18
14392.0	2.162350705816371e+18
14393.0	2.1616970168270845e+18
14394.0	2.1611828656209917e+18
14395.0	2.1606707981451261e+18
14396.0	2.1602093206863872e+18
14397.0	2.1597166258618363e+18
14398.0	2.1592202048176125e+18
14399.0	2.1587237586075645e+18
14400.0	2.1582127950725117e+18
14401.0	2.1577320758247421e+18
14402.0	2.1572398457290747e+18
14403.0	2.1553689479086054e+18
14404.0	2.1525075685539827e+18
14405.0	2.1551276059787246e+18
14406.0	2.1552612969021432e+18
14407.0	2.1528180410023939e+18
14408.0	2.1542094459895803e+18
14409.0	2.1537729397391357e+18
14410.0	2.1532586996137976e+18
14411.0	2.1527908132585464e+18
14412.0	2.1522975983403005e+18
14413.0	2.151805010889932e+18
14414.0	2.1513097223077883e+18
14415.0	2.1508161282244603e+18
14416.0	2.1503031933665275e+18
14417.0	2.1497664147292155e+18
14418.0	2.1492778152230912e+18
14419.0	2.1488385625423864e+18
14420.0	2.1483440675225595e+18
14421.0	2.1478514045747195e+18
14422.0	2.14735400206336e+18
14423.0	2.1468227666182144e+18
14424.0	2.1383617347321807e+18
14425.0	2.1458582075604987e+18
14426.0	2.1453828771545083e+18
14427.0	2.1448923600125947e+18
14428.0	2.1443890284331005e+18
14429.0	2.143904920187699e+18
14430.0	2.1434128159211512e+18
14431.0	2.1422951194689533e+18
14432.0	2.142419740629401e+18
14433.0	2.1404844199772147e+18
14434.0	2.1414316750143488e+18
14435.0	2.1408600853315581e+18
14436.0	2.1403253585477627e+18
14437.0	2.139805771523686e+18
14438.0	2.1392151078240253e+18
14439.0	2.138805166617395e+18
14440.0	2.1383291248574464e+18
14441.0	2.137835022424473e+18
14442.0	2.1373412404363261e+18
14443.0	2.1368325149818877e+18
14444.0	2.1363587045916667e+18
14445.0	2.13586772272087e+18
14446.0	2.1336880855384072e+18
14447.0	2.1348739209756664e+18
14448.0	2.1343923595116544e+18
14449.0	2.133900522002841e+18
14450.0	2.133405641107046e+18
14451.0	2.132915363879321e+18
14452.0	2.132420855437721e+18
14453.0	2.1319029226471424e+18
14454.0	2.1314379739824128e+18
14455.0	2.1309427827081216e+18
14456.0	2.130439518237491e+18
14457.0	2.1299451406581755e+18
14458.0	2.1294458674872317e+18
14459.0	2.1289522566266877e+18
14460.0	2.128439789853081e+18
14461.0	2.1278560803094525e+18
14462.0	2.127186525106995e+18
14463.0	2.126923651298099e+18
14464.0	2.1264870108299261e+18
14465.0	2.126004966182092e+18
14466.0	2.1255304410824701e+18
14467.0	2.1250169827753984e+18
14468.0	2.1245512455815165e+18
14469.0	2.1240094270685176e+18
14470.0	2.123515646758092e+18
14471.0	2.1229960060469243e+18
14472.0	2.122507326010163e+18
14473.0	2.1220199747289088e+18
14474.0	2.121530512873881e+18
14475.0	2.1210371016622075e+18
14476.0	2.1204537477955584e+18
14477.0	2.120054027268915e+18
14478.0	2.1195659747000312e+18
14479.0	2.119070991463219e+18
14480.0	2.1185747063144443e+18
14481.0	2.118093411608166e+18
14482.0	2.117600736916275e+18
14483.0	2.1171065354977275e+18
14484.0	2.116616216326963e+18
14485.0	2.1161120626638843e+18
14486.0	2.115504395255808e+18
14487.0	2.1151385143738363e+18
14488.0	2.1145402472398845e+18
14489.0	2.1141017277235192e+18
14490.0	2.1136628860846077e+18
14491.0	2.1131841096384504e+18
14492.0	2.1126929264410621e+18
14493.0	2.112193279138201e+18
14494.0	2.111699367965491e+18
14495.0	2.1112202542972925e+18
14496.0	2.1106686462787581e+18
14497.0	2.1102389146681336e+18
14498.0	2.1097483505500157e+18
14499.0	2.1092578216640512e+18
14500.0	2.108766675376537e+18
14501.0	2.1082280411791355e+18
14502.0	2.1076056953847803e+18
14503.0	2.1072576402948093e+18
14504.0	2.1068003890167805e+18
14505.0	2.106265336754995e+18
14506.0	2.105725872085401e+18
14507.0	2.10522006922199e+18
14508.0	2.104839986426675e+18
14509.0	2.104349210915635e+18
14510.0	2.1038582206562301e+18
14511.0	2.1033670659801083e+18
14512.0	2.1028684622200824e+18
14513.0	2.10238479353774e+18
14514.0	2.1018758113918973e+18
14515.0	2.101402076499148e+18
14516.0	2.0999804591013893e+18
14517.0	2.1004072916090877e+18
14518.0	2.0999038895652861e+18
14519.0	2.0994128909172733e+18
14520.0	2.0989216741654525e+18
14521.0	2.0984298433675264e+18
14522.0	2.0979278422212605e+18
14523.0	2.097273025803059e+18
14524.0	2.0968443478015997e+18
14525.0	2.096462038669721e+18
14526.0	2.0959737461866493e+18
14527.0	2.0954707233079293e+18
14528.0	2.0949246987468797e+18
14529.0	2.094494155119001e+18
14530.0	2.0940008261156861e+18
14531.0	2.093515268318822e+18
14532.0	2.0928839232258043e+18
14533.0	2.092531734229811e+18
14534.0	2.0920415559876603e+18
14535.0	2.091544277627699e+18
14536.0	2.091057778629017e+18
14537.0	2.0905601966014461e+18
14538.0	2.0900740583129083e+18
14539.0	2.0895823181119483e+18
14540.0	2.089090307797811e+18
14541.0	2.0885877647474683e+18
14542.0	2.0881057419100155e+18
14543.0	2.0875433796960253e+18
14544.0	2.0871203707158528e+18
14545.0	2.0866217350791165e+18
14546.0	2.0779936054771666e+18
14547.0	2.0782977529151434e+18
14548.0	2.0851433133834237e+18
14549.0	2.0846042077462525e+18
14550.0	2.0841633981399037e+18
14551.0	2.0836742802178043e+18
14552.0	2.0831807347884024e+18
14553.0	2.0826858622812155e+18
14554.0	2.082195885365657e+18
14555.0	2.081702217462579e+18
14556.0	2.0812063936872443e+18
14557.0	2.0807148078366717e+18
14558.0	2.08021778113495e+18
14559.0	2.0789916971565043e+18
14560.0	2.0791655510573053e+18
14561.0	2.0786569715646461e+18
14562.0	2.0781430887940093e+18
14563.0	2.077666684646195e+18
14564.0	2.0771196534521853e+18
14565.0	2.0766879689736187e+18
14566.0	2.0761941383315448e+18
14567.0	2.0756911288745981e+18
14568.0	2.0751144825389053e+18
14569.0	2.0747012412538875e+18
14570.0	2.0739580911157245e+18
14571.0	2.0737168565600253e+18
14572.0	2.0731631597780987e+18
14573.0	2.072689022232166e+18
14574.0	2.072093020022374e+18
14575.0	2.071708315104051e+18
14576.0	2.0712192022151168e+18
14577.0	2.070749495531929e+18
14578.0	2.0702560457326587e+18
14579.0	2.069762114427289e+18
14580.0	2.0692654954119165e+18
14581.0	2.0687625346088955e+18
14582.0	2.06826452811776e+18
14583.0	2.0677790978277373e+18
14584.0	2.0672553349545981e+18
14585.0	2.066786936894259e+18
14586.0	2.066289856505446e+18
14587.0	2.0657931150163963e+18
14588.0	2.06529872569303e+18
14589.0	2.064814689589657e+18
14590.0	2.06433160307671e+18
14591.0	2.0638410741907453e+18
14592.0	2.0633607525629947e+18
14593.0	2.0628259150495736e+18
14594.0	2.062395463696384e+18
14595.0	2.0619080520171512e+18
14596.0	2.0611140065165307e+18
14597.0	2.0605697167196152e+18
14598.0	2.0604220453421053e+18
14599.0	2.059809670247219e+18
14600.0	2.0592991093653501e+18
14601.0	2.0588162661220347e+18
14602.0	2.0583179928731643e+18
14603.0	2.0578389966454781e+18
14604.0	2.0572912809410555e+18
14605.0	2.0566267756806144e+18
14606.0	2.056162800094412e+18
14607.0	2.055714209215283e+18
14608.0	2.0552279316758525e+18
14609.0	2.05472144597975e+18
14610.0	2.0541801274277883e+18
14611.0	2.0537415793901565e+18
14612.0	2.0532792026726397e+18
14613.0	2.0527984481927165e+18
14614.0	2.05231202804695e+18
14615.0	2.051819682188492e+18
14616.0	2.0513391240019965e+18
14617.0	2.0508506083819515e+18
14618.0	2.0503060971257853e+18
14619.0	2.0496125773479928e+18
14620.0	2.0484825043435517e+18
14621.0	2.0488927492177917e+18
14622.0	2.0484041681666045e+18
14623.0	2.0479142113837053e+18
14624.0	2.0473968842506237e+18
14625.0	2.0469330261049344e+18
14626.0	2.0464392743157755e+18
14627.0	2.045944509182771e+18
14628.0	2.0454592248545275e+18
14629.0	2.0449667129016315e+18
14630.0	2.0444672300154877e+18
14631.0	2.0439819825971197e+18
14632.0	2.0428772851318787e+18
14633.0	2.0428779847417848e+18
14634.0	2.0424903471661056e+18
14635.0	2.0417694285168627e+18
14636.0	2.040908047659827e+18
14637.0	2.041022468272947e+18
14638.0	2.040506401108787e+18
14639.0	2.0400096243875837e+18
14640.0	2.0395328544964603e+18
14641.0	2.0366331576582124e+18
14642.0	2.0385388648464381e+18
14643.0	2.0380429689290747e+18
14644.0	2.0375364547117053e+18
14645.0	2.037036636281241e+18
14646.0	2.0364887259611133e+18
14647.0	2.0359703150198781e+18
14648.0	2.0355297772044288e+18
14649.0	2.0350514940084221e+18
