# Flux units: erg / (cm m2 s)
# Wavelength units: Angstrom
wave	flux
14000.0	1.7909564666019837e+18
14001.0	1.7905270202040317e+18
14002.0	1.7902607037104125e+18
14003.0	1.789907758061977e+18
14004.0	1.789550505702195e+18
14005.0	1.78919318791127e+18
14006.0	1.788829278352179e+18
14007.0	1.7884714790551547e+18
14008.0	1.7880378618413056e+18
14009.0	1.7877623698882555e+18
14010.0	1.7873965477265403e+18
14011.0	1.786502318758297e+18
14012.0	1.7866939296645115e+18
14013.0	1.7863375060992e+18
14014.0	1.7859761080893437e+18
14015.0	1.785622437665177e+18
14016.0	1.7852679669678077e+18
14017.0	1.7849117329850363e+18
14018.0	1.7845553060642813e+18
14019.0	1.7841993304506363e+18
14020.0	1.7838426451607544e+18
14021.0	1.783486003491635e+18
14022.0	1.7831293987323896e+18
14023.0	1.782762553160499e+18
14024.0	1.7824057655295997e+18
14025.0	1.7820636244082688e+18
14026.0	1.7817066941710333e+18
14027.0	1.7813528660410363e+18
14028.0	1.7809974944071675e+18
14029.0	1.780641869437337e+18
14030.0	1.7798200677105667e+18
14031.0	1.77990084329472e+18
14032.0	1.7795733100953595e+18
14033.0	1.7791843185983488e+18
14034.0	1.7788659038158843e+18
14035.0	1.778511916302336e+18
14036.0	1.7781572258234365e+18
14037.0	1.7778025890316288e+18
14038.0	1.777448012637798e+18
14039.0	1.7770900355022848e+18
14040.0	1.7767317261778941e+18
14041.0	1.77638097331159e+18
14042.0	1.776019170970828e+18
14043.0	1.7756415829475325e+18
14044.0	1.775311841866547e+18
14045.0	1.7749647195897853e+18
14046.0	1.7746109619240955e+18
14047.0	1.7742543571648507e+18
14048.0	1.773904852523417e+18
14049.0	1.7735531567775741e+18
14050.0	1.7731995937275904e+18
14051.0	1.7728386503802875e+18
14052.0	1.7724924844048381e+18
14053.0	1.7721392854204413e+18
14054.0	1.7717861166350333e+18
14055.0	1.7714329428164603e+18
14056.0	1.7710798377844733e+18
14057.0	1.770726861937049e+18
14058.0	1.7703739431321597e+18
14059.0	1.7700211115687933e+18
14060.0	1.7696683487920128e+18
14061.0	1.769309734122291e+18
14062.0	1.7689630715412477e+18
14063.0	1.768597138649907e+18
14064.0	1.7681717053620221e+18
14065.0	1.7678982988169213e+18
14066.0	1.767553500184576e+18
14067.0	1.7671955800915963e+18
14068.0	1.76684928157614e+18
14069.0	1.7664957252370427e+18
14070.0	1.7661450227023872e+18
14071.0	1.7657909294923776e+18
14072.0	1.7654416563765243e+18
14073.0	1.765089975730176e+18
14074.0	1.7647384460787707e+18
14075.0	1.7643722783064061e+18
14076.0	1.7640282631700475e+18
14077.0	1.763576019890995e+18
14078.0	1.7633246820958205e+18
14079.0	1.7629730534588413e+18
14080.0	1.7626305566605307e+18
14081.0	1.7622795320033277e+18
14082.0	1.7619239825309693e+18
14083.0	1.7615764475346944e+18
14084.0	1.761226813708697e+18
14085.0	1.760627647315968e+18
14086.0	1.760516736496435e+18
14087.0	1.760175051715379e+18
14088.0	1.7598141167566848e+18
14089.0	1.7594690480111613e+18
14090.0	1.7591221471936512e+18
14091.0	1.7587737515261947e+18
14092.0	1.758423644582707e+18
14093.0	1.758073596359475e+18
14094.0	1.7577236169228288e+18
14095.0	1.7573736945287168e+18
14096.0	1.7569997169623037e+18
14097.0	1.75666297307136e+18
14098.0	1.756314491840102e+18
14099.0	1.755974949509529e+18
14100.0	1.755614875222016e+18
14101.0	1.7552761767854077e+18
14102.0	1.7549266570444797e+18
14103.0	1.754564348031795e+18
14104.0	1.7542284815892477e+18
14105.0	1.7538788997726203e+18
14106.0	1.7535302994231293e+18
14107.0	1.7531799408214016e+18
14108.0	1.752822968641126e+18
14109.0	1.752479626271129e+18
14110.0	1.7521291317739517e+18
14111.0	1.7517740218646525e+18
14112.0	1.7514316290850813e+18
14113.0	1.7510894846083072e+18
14114.0	1.7507302374375421e+18
14115.0	1.7503916765741053e+18
14116.0	1.7500184439160827e+18
14117.0	1.7488822723936253e+18
14118.0	1.749348291444736e+18
14119.0	1.74898377958359e+18
14120.0	1.7486420025278461e+18
14121.0	1.7482937763102717e+18
14122.0	1.747937909748531e+18
14123.0	1.747596186379878e+18
14124.0	1.7472466867716096e+18
14125.0	1.7465138898534395e+18
14126.0	1.7465672883765243e+18
14127.0	1.7462202080428027e+18
14128.0	1.7458718861950976e+18
14129.0	1.7455154794070013e+18
14130.0	1.7451422719148032e+18
14131.0	1.744806752760627e+18
14132.0	1.7444552449196027e+18
14133.0	1.7436436387069944e+18
14134.0	1.7437657399295997e+18
14135.0	1.7434053468749821e+18
14136.0	1.743047799236198e+18
14137.0	1.7427242070048765e+18
14138.0	1.7423701909700603e+18
14139.0	1.7420327038484475e+18
14140.0	1.741677760033587e+18
14141.0	1.7413357212532733e+18
14142.0	1.7409292059541504e+18
14143.0	1.7406410908237821e+18
14144.0	1.7403021658947581e+18
14145.0	1.739955159380787e+18
14146.0	1.7396092064759805e+18
14147.0	1.739263558916505e+18
14148.0	1.738795850399744e+18
14149.0	1.7384257349484541e+18
14150.0	1.7380827482554363e+18
14151.0	1.7377311632392187e+18
14152.0	1.7373919900073981e+18
14153.0	1.7370465454522365e+18
14154.0	1.7366801713201144e+18
14155.0	1.736278684152627e+18
14156.0	1.7359946022649853e+18
14157.0	1.7356661630959616e+18
14158.0	1.7353176181112827e+18
14159.0	1.7349760071499768e+18
14160.0	1.7346229457387515e+18
14161.0	1.7342386770280448e+18
14162.0	1.7338507827609597e+18
14163.0	1.7335964066119675e+18
14164.0	1.733219565174784e+18
14165.0	1.7328131035627515e+18
14166.0	1.7325617204690941e+18
14167.0	1.732084573090611e+18
14168.0	1.7313956200710141e+18
14169.0	1.731054720463667e+18
14170.0	1.7307068130131965e+18
14171.0	1.730364106499686e+18
14172.0	1.7300226918318077e+18
14173.0	1.7296267226906621e+18
14174.0	1.7293296250388475e+18
14175.0	1.728991460117708e+18
14176.0	1.7286478543454203e+18
14177.0	1.72830430897111e+18
14178.0	1.7279592788131837e+18
14179.0	1.7276069254004733e+18
14180.0	1.7272742415958016e+18
14181.0	1.7269310183440381e+18
14182.0	1.7265871709798397e+18
14183.0	1.7262448050438144e+18
14184.0	1.7258973941989376e+18
14185.0	1.7255587830038523e+18
14186.0	1.725055934608179e+18
14187.0	1.7248524957646843e+18
14188.0	1.7245296266313723e+18
14189.0	1.7241857792671741e+18
14190.0	1.7238354340872187e+18
14191.0	1.723476490584064e+18
14192.0	1.7231285781004288e+18
14193.0	1.7227690591387643e+18
14194.0	1.7224490656202747e+18
14195.0	1.7221089411203067e+18
14196.0	1.721766561762508e+18
14197.0	1.7214244911054848e+18
14198.0	1.7210784660586493e+18
14199.0	1.7207378986401784e+18
14200.0	1.7203113077243896e+18
14201.0	1.720049697239859e+18
14202.0	1.7197153290027003e+18
14203.0	1.7193619387580413e+18
14204.0	1.719029687805542e+18
14205.0	1.7186883939336184e+18
14206.0	1.7182409355165693e+18
14207.0	1.7180079083749376e+18
14208.0	1.7176668309291005e+18
14209.0	1.7172140507791352e+18
14210.0	1.7169007748579323e+18
14211.0	1.716639545216204e+18
14212.0	1.7163019540758525e+18
14213.0	1.7159607172464637e+18
14214.0	1.7156203595431933e+18
14215.0	1.7152630551740416e+18
14216.0	1.7149156980162557e+18
14217.0	1.7145748739063805e+18
14218.0	1.7142247367639037e+18
14219.0	1.7138939101970427e+18
14220.0	1.713553634702131e+18
14221.0	1.7132111731359741e+18
14222.0	1.7128572342763515e+18
14223.0	1.712532286445977e+18
14224.0	1.7121927004946424e+18
14225.0	1.7115751294959616e+18
14226.0	1.7115102150918141e+18
14227.0	1.711172858832486e+18
14228.0	1.7101600300466176e+18
14229.0	1.7103146388029435e+18
14230.0	1.710153698325299e+18
14231.0	1.7098045325836288e+18
14232.0	1.709474397238067e+18
14233.0	1.7091306622812157e+18
14234.0	1.7087959031349243e+18
14235.0	1.708454424713625e+18
14236.0	1.7081172848803837e+18
14237.0	1.707777088238387e+18
14238.0	1.7074388360757248e+18
14239.0	1.7070951648722941e+18
14240.0	1.7053583354626043e+18
14241.0	1.7064218817724413e+18
14242.0	1.7060833863401467e+18
14243.0	1.7055948556206077e+18
14244.0	1.7053822429954048e+18
14245.0	1.7050274971516925e+18
14246.0	1.7046849835761661e+18
14247.0	1.7043627771428861e+18
14248.0	1.704013858026291e+18
14249.0	1.7036882340741115e+18
14250.0	1.7033498510491643e+18
14251.0	1.7030138084458493e+18
14252.0	1.7026756334583803e+18
14253.0	1.7023368293253115e+18
14254.0	1.70199763428311e+18
14255.0	1.7016325033426941e+18
14256.0	1.701050679558144e+18
14257.0	1.7009641410002936e+18
14258.0	1.7006485481455613e+18
14259.0	1.7002945488879616e+18
14260.0	1.6999613433118715e+18
14261.0	1.699619916899942e+18
14262.0	1.6993151386386432e+18
14263.0	1.6985808569368579e+18
14264.0	1.6985445778849787e+18
14265.0	1.6983009458651133e+18
14266.0	1.6979659619041275e+18
14267.0	1.697630457849446e+18
14268.0	1.6972935864516603e+18
14269.0	1.6969544786509821e+18
14270.0	1.6966198822436861e+18
14271.0	1.6962817626210304e+18
14272.0	1.6959464162721787e+18
14273.0	1.6956084660994043e+18
14274.0	1.6946506498047997e+18
14275.0	1.6948619772952576e+18
14276.0	1.6945606232637435e+18
14277.0	1.694225174573875e+18
14278.0	1.6939041442234365e+18
14279.0	1.6935667577651197e+18
14280.0	1.6932261517590525e+18
14281.0	1.6928959425937405e+18
14282.0	1.6925601818476544e+18
14283.0	1.6922242365521915e+18
14284.0	1.69188835501015e+18
14285.0	1.6915524030038016e+18
14286.0	1.6912155584495613e+18
14287.0	1.6908811432361981e+18
14288.0	1.690545317058969e+18
14289.0	1.689311057543167e+18
14290.0	1.6898724399677435e+18
14291.0	1.6895382814457853e+18
14292.0	1.6892038595215357e+18
14293.0	1.6888666391576576e+18
14294.0	1.688413714723635e+18
14295.0	1.6881871233220605e+18
14296.0	1.6871402065887235e+18
14297.0	1.687523966949785e+18
14298.0	1.6870085121540093e+18
14299.0	1.6868463637168125e+18
14300.0	1.6865178322731005e+18
14301.0	1.6861851669233661e+18
14302.0	1.6858524160098304e+18
14303.0	1.6854899039928315e+18
14304.0	1.6851698332991485e+18
14305.0	1.6848489589768187e+18
14306.0	1.6844925572218877e+18
14307.0	1.6841714731843581e+18
14308.0	1.683846884386406e+18
14309.0	1.6835095851696123e+18
14310.0	1.683068347744256e+18
14311.0	1.682718125037977e+18
14312.0	1.682441561020825e+18
14313.0	1.682062632497971e+18
14314.0	1.681817139884851e+18
14315.0	1.6814871723114493e+18
14316.0	1.6811087739486205e+18
14317.0	1.680807226979123e+18
14318.0	1.680487084143411e+18
14319.0	1.68015412854784e+18
14320.0	1.679820340802355e+18
14321.0	1.6794875009695741e+18
14322.0	1.6791212493111293e+18
14323.0	1.678802903315251e+18
14324.0	1.6784880318808061e+18
14325.0	1.678146951079526e+18
14326.0	1.6778219998937085e+18
14327.0	1.6774835044614141e+18
14328.0	1.6771504331030525e+18
14329.0	1.676823460262707e+18
14330.0	1.6764907680694272e+18
14331.0	1.6761578225401853e+18
14332.0	1.675825479312998e+18
14333.0	1.6754929951571965e+18
14334.0	1.6751605546221565e+18
14335.0	1.6748148852523003e+18
14336.0	1.67446295126999e+18
14337.0	1.6741630887329787e+18
14338.0	1.6738295375462397e+18
14339.0	1.6734899297845248e+18
14340.0	1.673166698263347e+18
14341.0	1.672833091711795e+18
14342.0	1.672503231512576e+18
14343.0	1.6721666587492347e+18
14344.0	1.6718344044412925e+18
14345.0	1.6715079097516032e+18
14346.0	1.671173497893683e+18
14347.0	1.6708251710128125e+18
14348.0	1.670512520881766e+18
14349.0	1.6701816926371835e+18
14350.0	1.6698279869808635e+18
14351.0	1.6694900787511296e+18
14352.0	1.6688230501974013e+18
14353.0	1.668287769765478e+18
14354.0	1.6679547906818048e+18
14355.0	1.6676191004000253e+18
14356.0	1.6672897753939965e+18
14357.0	1.6669650658000893e+18
14358.0	1.666633573177753e+18
14359.0	1.6662909069295613e+18
14360.0	1.6659699420102653e+18
14361.0	1.6656404542652413e+18
14362.0	1.6653105856774136e+18
14363.0	1.6649796332814333e+18
14364.0	1.664582132380467e+18
14365.0	1.6643017565798397e+18
14366.0	1.6639751377387515e+18
14367.0	1.6636578185084925e+18
14368.0	1.6633269718089725e+18
14369.0	1.662997128386969e+18
14370.0	1.6626669259325435e+18
14371.0	1.6623368291745792e+18
14372.0	1.6620019290996733e+18
14373.0	1.661676358834585e+18
14374.0	1.661346028873318e+18
14375.0	1.661014992591257e+18
14376.0	1.6606868134690813e+18
14377.0	1.6603564415647741e+18
14378.0	1.660024861700915e+18
14379.0	1.6596975231172605e+18
14380.0	1.6593663039635459e+18
14381.0	1.6590290433343485e+18
14382.0	1.658707363705651e+18
14383.0	1.658372737099366e+18
14384.0	1.658033817203507e+18
14385.0	1.6577205597372413e+18
14386.0	1.6573790376951805e+18
14387.0	1.6570620154216443e+18
14388.0	1.6567311603335163e+18
14389.0	1.656403581835673e+18
14390.0	1.6560732267085821e+18
14391.0	1.655745601234534e+18
14392.0	1.655414986060595e+18
14393.0	1.6550883974184957e+18
14394.0	1.654727662108672e+18
14395.0	1.6544196156456957e+18
14396.0	1.6541020447571965e+18
14397.0	1.6537735586119677e+18
14398.0	1.6534439819476992e+18
14399.0	1.65311629272023e+18
14400.0	1.6527711870648315e+18
14401.0	1.6524425415360507e+18
14402.0	1.652106804278067e+18
14403.0	1.6499090930008038e+18
14404.0	1.6459043849633782e+18
14405.0	1.649548726789732e+18
14406.0	1.6507941431541757e+18
14407.0	1.647971858068276e+18
14408.0	1.650108223455232e+18
14409.0	1.6497932278693885e+18
14410.0	1.6494773498019835e+18
14411.0	1.649154339740057e+18
14412.0	1.6488243251904507e+18
14413.0	1.648500013216563e+18
14414.0	1.6481700540317693e+18
14415.0	1.6478434486124541e+18
14416.0	1.647514519548723e+18
14417.0	1.6471803358609405e+18
14418.0	1.6468424293089277e+18
14419.0	1.6465328544415741e+18
14420.0	1.6462021134385147e+18
14421.0	1.6458790194905085e+18
14422.0	1.6455481207816187e+18
14423.0	1.645216089610649e+18
14424.0	1.6347541381578706e+18
14425.0	1.6445612648038395e+18
14426.0	1.6442437207588861e+18
14427.0	1.6439163905638397e+18
14428.0	1.6435726606401533e+18
14429.0	1.6432579016130557e+18
14430.0	1.642936906494771e+18
14431.0	1.6424854366453757e+18
14432.0	1.642275590583091e+18
14433.0	1.6400656722034675e+18
14434.0	1.6416139290607608e+18
14435.0	1.6412788276592637e+18
14436.0	1.640977478660915e+18
14437.0	1.6406511416770557e+18
14438.0	1.6402695740981248e+18
14439.0	1.6399836920152061e+18
14440.0	1.639671489835827e+18
14441.0	1.6393370964328448e+18
14442.0	1.6390070835609597e+18
14443.0	1.6386444104826875e+18
14444.0	1.6383625968746493e+18
14445.0	1.638041373586227e+18
14446.0	1.6352190599790597e+18
14447.0	1.6373691994603515e+18
14448.0	1.6370642651709437e+18
14449.0	1.6367385791430653e+18
14450.0	1.6364083766886397e+18
14451.0	1.6360853750153208e+18
14452.0	1.6357589289795581e+18
14453.0	1.6354044633153533e+18
14454.0	1.6351097715163133e+18
14455.0	1.6347794063228928e+18
14456.0	1.634451770782515e+18
14457.0	1.6341101698875392e+18
14458.0	1.6337833849520123e+18
14459.0	1.633456284604825e+18
14460.0	1.633131457570406e+18
14461.0	1.632781296939827e+18
14462.0	1.6323777344307195e+18
14463.0	1.6321499652685821e+18
14464.0	1.6318321729208312e+18
14465.0	1.631486882716057e+18
14466.0	1.6311840556449792e+18
14467.0	1.630822414365491e+18
14468.0	1.6305277594763261e+18
14469.0	1.6301814022406141e+18
14470.0	1.6298580365017085e+18
14471.0	1.629548238497382e+18
14472.0	1.6292282214907901e+18
14473.0	1.6289083890335744e+18
14474.0	1.6285846961389568e+18
14475.0	1.628254904726323e+18
14476.0	1.6278165177499643e+18
14477.0	1.6276117702836221e+18
14478.0	1.6272875958829053e+18
14479.0	1.6269613595623421e+18
14480.0	1.6266233053708285e+18
14481.0	1.626314980406067e+18
14482.0	1.6259868633595904e+18
14483.0	1.6256572279750653e+18
14484.0	1.6253306208780288e+18
14485.0	1.6249857450704893e+18
14486.0	1.6244186701365243e+18
14487.0	1.624368194204467e+18
14488.0	1.6236798048993275e+18
14489.0	1.6230634502488061e+18
14490.0	1.622745236792934e+18
14491.0	1.622424979872153e+18
14492.0	1.6220704739426304e+18
14493.0	1.621722242691891e+18
14494.0	1.6213834251370496e+18
14495.0	1.621078086516736e+18
14496.0	1.6206311045726205e+18
14497.0	1.620429111925145e+18
14498.0	1.6201063535214587e+18
14499.0	1.619782927384576e+18
14500.0	1.6194588469362685e+18
14501.0	1.6190791483391997e+18
14502.0	1.6185675070046205e+18
14503.0	1.6184718785511421e+18
14504.0	1.6181582016544763e+18
14505.0	1.617787171844915e+18
14506.0	1.6174126473412605e+18
14507.0	1.6169677910704125e+18
14508.0	1.6168699916451837e+18
14509.0	1.6165465873186813e+18
14510.0	1.6162203006664701e+18
14511.0	1.6158992652828667e+18
14512.0	1.6155618066825213e+18
14513.0	1.6152527217098747e+18
14514.0	1.6148954576060413e+18
14515.0	1.6146047403294712e+18
14516.0	1.6120024565547018e+18
14517.0	1.6139575759994875e+18
14518.0	1.6136363275452413e+18
14519.0	1.6133133040615424e+18
14520.0	1.6129901648150528e+18
14521.0	1.612664123110195e+18
14522.0	1.6123211548721147e+18
14523.0	1.6118752231817213e+18
14524.0	1.6115537666899963e+18
14525.0	1.6113467710767104e+18
14526.0	1.6110288965206013e+18
14527.0	1.6106748351873021e+18
14528.0	1.610266872014438e+18
14529.0	1.6100485819793405e+18
14530.0	1.6097208910741504e+18
14531.0	1.6094111954108413e+18
14532.0	1.6089221093654525e+18
14533.0	1.6087652373626875e+18
14534.0	1.608445240488755e+18
14535.0	1.608112439243571e+18
14536.0	1.607799097891225e+18
14537.0	1.6074653051125757e+18
14538.0	1.6071538109317115e+18
14539.0	1.6068311515135997e+18
14540.0	1.606508374654976e+18
14541.0	1.6061673760620541e+18
14542.0	1.6058627437625341e+18
14543.0	1.6054570270588928e+18
14544.0	1.6052168008138747e+18
14545.0	1.6048883784220672e+18
14546.0	1.5915248645046218e+18
14547.0	1.5922923181178816e+18
14548.0	1.6039134393008125e+18
14549.0	1.603493191850393e+18
14550.0	1.603276446996889e+18
14551.0	1.6029594935099387e+18
14552.0	1.6026348963233792e+18
14553.0	1.6023070963662848e+18
14554.0	1.601992105813606e+18
14555.0	1.601669065552691e+18
14556.0	1.6013441160445947e+18
14557.0	1.6010244815585277e+18
14558.0	1.6007014110986237e+18
14559.0	1.598700634138212e+18
14560.0	1.6000499702562813e+18
14561.0	1.5997279383060472e+18
14562.0	1.5993893858312192e+18
14563.0	1.5990878153736187e+18
14564.0	1.5987557053497344e+18
14565.0	1.598444563490406e+18
14566.0	1.5981220986879997e+18
14567.0	1.5977989846073341e+18
14568.0	1.5974593164476416e+18
14569.0	1.5971542227746813e+18
14570.0	1.5963608936611835e+18
14571.0	1.5965065148628992e+18
14572.0	1.5961469556359165e+18
14573.0	1.5958209491632123e+18
14574.0	1.595514065361305e+18
14575.0	1.5952158016929792e+18
14576.0	1.5948914125438976e+18
14577.0	1.5942286437253123e+18
14578.0	1.593868264092467e+18
14579.0	1.5935473662820347e+18
14580.0	1.5932248645697533e+18
14581.0	1.5928976870473728e+18
14582.0	1.5925787286831101e+18
14583.0	1.5922565742591997e+18
14584.0	1.5919213537394688e+18
14585.0	1.591610752106496e+18
14586.0	1.5912849301831677e+18
14587.0	1.5909629502423035e+18
14588.0	1.5906421765832696e+18
14589.0	1.5903278520860667e+18
14590.0	1.5900136181858296e+18
14591.0	1.5896978474926077e+18
14592.0	1.5893796743020544e+18
14593.0	1.5889621799927803e+18
14594.0	1.5887552095453181e+18
14595.0	1.5884358753714176e+18
14596.0	1.588052950515712e+18
14597.0	1.5877335291002877e+18
14598.0	1.587489137072537e+18
14599.0	1.587182884093952e+18
14600.0	1.5868480645496832e+18
14601.0	1.5865308711485437e+18
14602.0	1.5862096461823997e+18
14603.0	1.5859010796257272e+18
14604.0	1.5855436175507453e+18
14605.0	1.5852551031226363e+18
14606.0	1.5848962049179643e+18
14607.0	1.584627474182963e+18
14608.0	1.5843240766865405e+18
14609.0	1.5840022846504957e+18
14610.0	1.5836674483290112e+18
14611.0	1.5833756740878333e+18
14612.0	1.5830665488498685e+18
14613.0	1.5827520968458237e+18
14614.0	1.582433677030195e+18
14615.0	1.582119954835046e+18
14616.0	1.5818061739196416e+18
14617.0	1.5814904233590781e+18
14618.0	1.581169292345344e+18
14619.0	1.580805506937651e+18
14620.0	1.5803839944851453e+18
14621.0	1.5802283136647165e+18
14622.0	1.5799099408252925e+18
14623.0	1.5795969148846077e+18
14624.0	1.5792269856604157e+18
14625.0	1.578962521371443e+18
14626.0	1.5786459218837501e+18
14627.0	1.578325331096371e+18
14628.0	1.578017126927564e+18
14629.0	1.577700846206976e+18
14630.0	1.5773827032154107e+18
14631.0	1.5770672177348603e+18
14632.0	1.5759499491016707e+18
14633.0	1.5763016750465021e+18
14634.0	1.576113699762995e+18
14635.0	1.575667113761177e+18
14636.0	1.5752170229989368e+18
14637.0	1.5751671896342528e+18
14638.0	1.574846363965849e+18
14639.0	1.5745210151600125e+18
14640.0	1.5742111836012541e+18
14641.0	1.5706805460008942e+18
14642.0	1.5735750402244605e+18
14643.0	1.5732620612599803e+18
14644.0	1.5729346505342976e+18
14645.0	1.572604107502387e+18
14646.0	1.5722976011878397e+18
14647.0	1.571973532483584e+18
14648.0	1.5716699672150016e+18
