# Flux units: erg / (cm m2 s)
# Wavelength units: Angstrom
wave	flux
14000.0	1.9632207161196544e+18
14001.0	1.962830038512435e+18
14002.0	1.962457567540019e+18
14003.0	1.9620756358955008e+18
14004.0	1.9616937243836416e+18
14005.0	1.961311891724697e+18
14006.0	1.9609293930102784e+18
14007.0	1.9605479797817341e+18
14008.0	1.960157235065651e+18
14009.0	1.9597851902345216e+18
14010.0	1.95940391625687e+18
14011.0	1.958961170559795e+18
14012.0	1.9586413313916925e+18
14013.0	1.9582603694702587e+18
14014.0	1.9578793387622397e+18
14015.0	1.9574981637701627e+18
14016.0	1.9571175424262141e+18
14017.0	1.9567367784759293e+18
14018.0	1.9563560866676733e+18
14019.0	1.9559755005558784e+18
14020.0	1.9555949194772475e+18
14021.0	1.955214434028748e+18
14022.0	1.9548341163524093e+18
14023.0	1.9544537382780928e+18
14024.0	1.954072863598182e+18
14025.0	1.9536937522036733e+18
14026.0	1.9533136106881021e+18
14027.0	1.952933917124198e+18
14028.0	1.9525541161861112e+18
14029.0	1.9521743488024568e+18
14030.0	1.9517615437250555e+18
14031.0	1.9514144499695616e+18
14032.0	1.9510357496168445e+18
14033.0	1.950652195615539e+18
14034.0	1.9502770939756536e+18
14035.0	1.949897985936588e+18
14036.0	1.9495189131296768e+18
14037.0	1.94913990910935e+18
14038.0	1.9487609940082683e+18
14039.0	1.9483821644709888e+18
14040.0	1.94800342049751e+18
14041.0	1.9476247654432768e+18
14042.0	1.9472456121057277e+18
14043.0	1.9468650998136827e+18
14044.0	1.9464881677795325e+18
14045.0	1.9461110344187896e+18
14046.0	1.9457328138944512e+18
14047.0	1.9453545631711227e+18
14048.0	1.9449766060490747e+18
14049.0	1.9445986959032317e+18
14050.0	1.944220834411315e+18
14051.0	1.9438421810348027e+18
14052.0	1.943465317787238e+18
14053.0	1.9430878002282493e+18
14054.0	1.9427102122049533e+18
14055.0	1.9423328573849597e+18
14056.0	1.9419554790768637e+18
14057.0	1.9415782416973821e+18
14058.0	1.9412010697490427e+18
14059.0	1.9408239967862781e+18
14060.0	1.940447002676428e+18
14061.0	1.9400694163308541e+18
14062.0	1.9396932778590203e+18
14063.0	1.9393149784817661e+18
14064.0	1.9389340115271675e+18
14065.0	1.9385624968560637e+18
14066.0	1.9381868818333693e+18
14067.0	1.937810503447347e+18
14068.0	1.9374342039142392e+18
14069.0	1.9370578708267003e+18
14070.0	1.9366818514731003e+18
14071.0	1.936305553617715e+18
14072.0	1.9359298916188155e+18
14073.0	1.935554029971046e+18
14074.0	1.9351782689865725e+18
14075.0	1.9348025499451387e+18
14076.0	1.9344269651214333e+18
14077.0	1.9340443690991616e+18
14078.0	1.933675454896537e+18
14079.0	1.9333000378449915e+18
14080.0	1.9329254445547517e+18
14081.0	1.9325502808391677e+18
14082.0	1.932174919152435e+18
14083.0	1.9318000423272445e+18
14084.0	1.9314252141559805e+18
14085.0	1.9310250540662781e+18
14086.0	1.9306749504782333e+18
14087.0	1.9303010735751168e+18
14088.0	1.9299264400195581e+18
14089.0	1.9295520497336315e+18
14090.0	1.929177560462131e+18
14091.0	1.9288033681473533e+18
14092.0	1.9284291573776381e+18
14093.0	1.9280550254608381e+18
14094.0	1.9276809757523965e+18
14095.0	1.9273069998637056e+18
14096.0	1.9269316885086205e+18
14097.0	1.926559163849113e+18
14098.0	1.9261849597902845e+18
14099.0	1.9258120307998715e+18
14100.0	1.9254373251022843e+18
14101.0	1.9250650823000061e+18
14102.0	1.9246917137465341e+18
14103.0	1.9243169929494525e+18
14104.0	1.9239452752740347e+18
14105.0	1.923572153345638e+18
14106.0	1.9231991555686397e+18
14107.0	1.9228261443698688e+18
14108.0	1.922453389862502e+18
14109.0	1.922080127005491e+18
14110.0	1.9217075838910461e+18
14111.0	1.9213344669958141e+18
14112.0	1.920962662078873e+18
14113.0	1.9205904293429243e+18
14114.0	1.920218106010009e+18
14115.0	1.919845665236582e+18
14116.0	1.9194722698395643e+18
14117.0	1.9190426103709693e+18
14118.0	1.91872944350167e+18
14119.0	1.9183567779135483e+18
14120.0	1.917985100503449e+18
14121.0	1.9176138324574205e+18
14122.0	1.9172415326126075e+18
14123.0	1.916870138737459e+18
14124.0	1.916498468038246e+18
14125.0	1.9160813713489915e+18
14126.0	1.9157566365892603e+18
14127.0	1.9153855598034941e+18
14128.0	1.9150143202787325e+18
14129.0	1.914643397843353e+18
14130.0	1.9142724317872125e+18
14131.0	1.9139015261290493e+18
14132.0	1.9135305349070843e+18
14133.0	1.9131053700546555e+18
14134.0	1.9127891816087547e+18
14135.0	1.9124174589001728e+18
14136.0	1.9120473820364792e+18
14137.0	1.911677873920409e+18
14138.0	1.9113071108685821e+18
14139.0	1.9109374903451643e+18
14140.0	1.9105668598333435e+18
14141.0	1.9101967980691453e+18
14142.0	1.909823003374387e+18
14143.0	1.9094571325587456e+18
14144.0	1.9090878274469888e+18
14145.0	1.908718131426099e+18
14146.0	1.9083483649409021e+18
14147.0	1.907978905478758e+18
14148.0	1.907609484604211e+18
14149.0	1.9072402147246075e+18
14150.0	1.9068709381341181e+18
14151.0	1.9065015155818493e+18
14152.0	1.9061326584217597e+18
14153.0	1.905763603290521e+18
14154.0	1.9053946555334656e+18
14155.0	1.9050238102732797e+18
14156.0	1.9046567482753021e+18
14157.0	1.904288345777766e+18
14158.0	1.9039193242009597e+18
14159.0	1.9035512270487552e+18
14160.0	1.9031821064863741e+18
14161.0	1.9028083939999741e+18
14162.0	1.9024354381660155e+18
14163.0	1.902077737854566e+18
14164.0	1.901708082098995e+18
14165.0	1.9013356564250621e+18
14166.0	1.9009737098002427e+18
14167.0	1.9006061092536315e+18
14168.0	1.900238174840422e+18
14169.0	1.8998706850234365e+18
14170.0	1.899502782486937e+18
14171.0	1.899135289314508e+18
14172.0	1.8987681283309563e+18
14173.0	1.8983966874796027e+18
14174.0	1.8980330413228027e+18
14175.0	1.8976663685562365e+18
14176.0	1.8972992830701563e+18
14177.0	1.8969322764369917e+18
14178.0	1.896565258059776e+18
14179.0	1.8961977044893693e+18
14180.0	1.895831753143091e+18
14181.0	1.8954650736656381e+18
14182.0	1.8950983673446397e+18
14183.0	1.8947319445585917e+18
14184.0	1.8943649949679608e+18
14185.0	1.89399911408599e+18
14186.0	1.8936202258284541e+18
14187.0	1.8932641260634107e+18
14188.0	1.892900521849651e+18
14189.0	1.8925344731955192e+18
14190.0	1.892168588958105e+18
14191.0	1.8918027265310715e+18
14192.0	1.8914362265698304e+18
14193.0	1.8910696225898493e+18
14194.0	1.89070562075607e+18
14195.0	1.8903402985553917e+18
14196.0	1.88997484717015e+18
14197.0	1.8896094981259261e+18
14198.0	1.8892437330067456e+18
14199.0	1.888878838625075e+18
14200.0	1.8885073373757437e+18
14201.0	1.8881486153318397e+18
14202.0	1.8877840246177787e+18
14203.0	1.887418284664422e+18
14204.0	1.8870540563382272e+18
14205.0	1.8866326076391421e+18
14206.0	1.88620945269719e+18
14207.0	1.8858566815318013e+18
14208.0	1.8854919867990013e+18
14209.0	1.885114132017971e+18
14210.0	1.88475327423447e+18
14211.0	1.8843981408370683e+18
14212.0	1.8840336927293437e+18
14213.0	1.8836693956165632e+18
14214.0	1.8833050699825152e+18
14215.0	1.8829397645590525e+18
14216.0	1.8825768767324155e+18
14217.0	1.882212848055091e+18
14218.0	1.881848889842073e+18
14219.0	1.881485005448806e+18
14220.0	1.8811212317851645e+18
14221.0	1.8807574698655741e+18
14222.0	1.8803938539077627e+18
14223.0	1.8799749167579133e+18
14224.0	1.8795620714151933e+18
14225.0	1.8791784284946432e+18
14226.0	1.878834554286899e+18
14227.0	1.8784711312670717e+18
14228.0	1.8780579621240832e+18
14229.0	1.877735319483187e+18
14230.0	1.877380934349619e+18
14231.0	1.8770177076232187e+18
14232.0	1.8766545396170747e+18
14233.0	1.8762914471084027e+18
14234.0	1.8759284284194816e+18
14235.0	1.8755652436361213e+18
14236.0	1.8752026074677243e+18
14237.0	1.8748396676317181e+18
14238.0	1.8744770247524347e+18
14239.0	1.8741137560829952e+18
14240.0	1.8735930818953213e+18
14241.0	1.8733889568636925e+18
14242.0	1.8730268089122813e+18
14243.0	1.8725781341470715e+18
14244.0	1.8721964759711744e+18
14245.0	1.8718330294632445e+18
14246.0	1.8714698698457088e+18
14247.0	1.8711092570095613e+18
14248.0	1.8707453675831293e+18
14249.0	1.8703845651644413e+18
14250.0	1.8700224356679675e+18
14251.0	1.8696606484267003e+18
14252.0	1.869298678313779e+18
14253.0	1.8689367031676925e+18
14254.0	1.86857471124439e+18
14255.0	1.8682098470617083e+18
14256.0	1.8678302541611005e+18
14257.0	1.867488688498278e+18
14258.0	1.867128459860377e+18
14259.0	1.866767058495078e+18
14260.0	1.8664050766381053e+18
14261.0	1.8660453848711163e+18
14262.0	1.865707711522406e+18
14263.0	1.8653151699664893e+18
14264.0	1.8649784462082043e+18
14265.0	1.864624602978713e+18
14266.0	1.8639787623710715e+18
14267.0	1.8635508796096507e+18
14268.0	1.8631898674757627e+18
14269.0	1.8628286590484475e+18
14270.0	1.8624680562786304e+18
14271.0	1.8621071632629755e+18
14272.0	1.8617465202278397e+18
14273.0	1.8613855265488893e+18
14274.0	1.8609774727790587e+18
14275.0	1.8606599471890427e+18
14276.0	1.8603038256136187e+18
14277.0	1.859943521478246e+18
14278.0	1.859583697171251e+18
14279.0	1.8592233796141053e+18
14280.0	1.8588626308825088e+18
14281.0	1.858503293114777e+18
14282.0	1.8581433228460032e+18
14283.0	1.8577833995534333e+18
14284.0	1.8574235484028923e+18
14285.0	1.8570637559726077e+18
14286.0	1.85670399206359e+18
14287.0	1.8563444043153403e+18
14288.0	1.8559846622167037e+18
14289.0	1.8555235454681088e+18
14290.0	1.855265669591859e+18
14291.0	1.8548423351336955e+18
14292.0	1.8544418780872704e+18
14293.0	1.8540820806238205e+18
14294.0	1.8537087775014907e+18
14295.0	1.8533631718850555e+18
14296.0	1.8529217884979197e+18
14297.0	1.8526442111369213e+18
14298.0	1.8522684535078912e+18
14299.0	1.8519259499986941e+18
14300.0	1.8515672799641597e+18
14301.0	1.851208217342771e+18
14302.0	1.8508489970155515e+18
14303.0	1.85048672323502e+18
14304.0	1.850130202361856e+18
14305.0	1.8497725943250944e+18
14306.0	1.8494125502365693e+18
14307.0	1.8490546821529592e+18
14308.0	1.848696768770867e+18
14309.0	1.8483379427082237e+18
14310.0	1.8479727396257787e+18
14311.0	1.84761678078935e+18
14312.0	1.847260533384806e+18
14313.0	1.8468953001033723e+18
14314.0	1.8465469111468027e+18
14315.0	1.8461891521150976e+18
14316.0	1.8458259908198397e+18
14317.0	1.8454725183668221e+18
14318.0	1.8449864371208187e+18
14319.0	1.8444304200499192e+18
14320.0	1.8440584456830976e+18
14321.0	1.8437004400263165e+18
14322.0	1.8433383306625021e+18
14323.0	1.8429825882521592e+18
14324.0	1.8426266847805437e+18
14325.0	1.8422689056161787e+18
14326.0	1.841911190205235e+18
14327.0	1.8415535268036603e+18
14328.0	1.841195274521804e+18
14329.0	1.8408384248152061e+18
14330.0	1.8404809711288315e+18
14331.0	1.8401235476414461e+18
14332.0	1.8397662533386235e+18
14333.0	1.8394090043342845e+18
14334.0	1.8390518090170363e+18
14335.0	1.8386935382802427e+18
14336.0	1.8383355376566272e+18
14337.0	1.8379805837754365e+18
14338.0	1.837623492476928e+18
14339.0	1.8372666494812155e+18
14340.0	1.8369100363333632e+18
14341.0	1.8365531899822075e+18
14342.0	1.8361966590427133e+18
14343.0	1.8358398563123192e+18
14344.0	1.8354833740267512e+18
14345.0	1.8351270494470141e+18
14346.0	1.8347703255695352e+18
14347.0	1.8344128433618944e+18
14348.0	1.8340579112910843e+18
14349.0	1.8337017511280637e+18
14350.0	1.8333439316983805e+18
14351.0	1.8329005216235517e+18
14352.0	1.8325280221298685e+18
14353.0	1.8321716740620285e+18
14354.0	1.8318150609141755e+18
14355.0	1.8314584947425277e+18
14356.0	1.83110246376407e+18
14357.0	1.8307468404719613e+18
14358.0	1.8303908027826168e+18
14359.0	1.8300347332165627e+18
14360.0	1.8296786267406333e+18
14361.0	1.8293228490981376e+18
14362.0	1.8289670664224765e+18
14363.0	1.8286112216711163e+18
14364.0	1.8282501709496315e+18
14365.0	1.827898725184307e+18
14366.0	1.8275432746975232e+18
14367.0	1.827188668104704e+18
14368.0	1.8268331152769021e+18
14369.0	1.8264777302212605e+18
14370.0	1.8261223569096704e+18
14371.0	1.8257670406406141e+18
14372.0	1.8254117679923192e+18
14373.0	1.8250565423202304e+18
14374.0	1.8247014273777656e+18
14375.0	1.8243463711555581e+18
14376.0	1.823991345132339e+18
14377.0	1.8236363224645627e+18
14378.0	1.8232812041666552e+18
14379.0	1.822926637839155e+18
14380.0	1.8225718349529085e+18
14381.0	1.8222168441618427e+18
14382.0	1.8218623113887741e+18
14383.0	1.821507394417459e+18
14384.0	1.82115323913175e+18
14385.0	1.82079883051008e+18
14386.0	1.820444393367142e+18
14387.0	1.8200766284038134e+18
14388.0	1.8196324197335037e+18
14389.0	1.8192779775574013e+18
14390.0	1.8189232182919163e+18
14391.0	1.8185689438879736e+18
14392.0	1.8182143456837627e+18
14393.0	1.8178601182560253e+18
14394.0	1.8175031561420792e+18
14395.0	1.817151391609651e+18
14396.0	1.8167972430348285e+18
14397.0	1.8164430760050688e+18
14398.0	1.816088898908979e+18
14399.0	1.815734857708339e+18
14400.0	1.8153788938387453e+18
14401.0	1.815026151194624e+18
14402.0	1.8146725243912187e+18
14403.0	1.814212269991526e+18
14404.0	1.8135107407708155e+18
14405.0	1.813444291251404e+18
14406.0	1.8132571581841405e+18
14407.0	1.8127540296089597e+18
14408.0	1.8125490288066555e+18
14409.0	1.8121949339189243e+18
14410.0	1.8118430167138304e+18
14411.0	1.8114898663833597e+18
14412.0	1.811136138916659e+18
14413.0	1.8107830775054333e+18
14414.0	1.8104294037258237e+18
14415.0	1.8100761275662333e+18
14416.0	1.8097229436813312e+18
14417.0	1.8093693974085627e+18
14418.0	1.8090151750139904e+18
14419.0	1.8086629927288824e+18
14420.0	1.8083094565224443e+18
14421.0	1.8079567977644027e+18
14422.0	1.807603580325068e+18
14423.0	1.8072484737712125e+18
14424.0	1.8062780275884024e+18
14425.0	1.8065425388535805e+18
14426.0	1.8061919571148797e+18
14427.0	1.8058394208305147e+18
14428.0	1.805459051144806e+18
14429.0	1.8050320592535552e+18
14430.0	1.8046795296800763e+18
14431.0	1.8043175142686717e+18
14432.0	1.803972955550515e+18
14433.0	1.8035073458634747e+18
14434.0	1.8032663629660155e+18
14435.0	1.8029132965216253e+18
14436.0	1.802562644318617e+18
14437.0	1.8020519525744637e+18
14438.0	1.801544092824371e+18
14439.0	1.801194215728742e+18
14440.0	1.80084278338519e+18
14441.0	1.8004896917749755e+18
14442.0	1.800136902154649e+18
14443.0	1.799780455101235e+18
14444.0	1.7994333361799163e+18
14445.0	1.799081506216345e+18
14446.0	1.7985457023352832e+18
14447.0	1.7983757675921405e+18
14448.0	1.798025645549158e+18
14449.0	1.7976737769979896e+18
14450.0	1.797321854759731e+18
14451.0	1.7969699811753984e+18
14452.0	1.796617966662451e+18
14453.0	1.796264524408422e+18
14454.0	1.7959146171138048e+18
14455.0	1.7955623593312253e+18
14456.0	1.7952108347129853e+18
14457.0	1.7948589930053627e+18
14458.0	1.7945078240641021e+18
14459.0	1.7941560125554688e+18
14460.0	1.7938044258615293e+18
14461.0	1.7934504886796285e+18
14462.0	1.793097016226611e+18
14463.0	1.7927492966809597e+18
14464.0	1.7923987367526395e+18
14465.0	1.7920450210299896e+18
14466.0	1.791696160633651e+18
14467.0	1.7913426395267064e+18
14468.0	1.790993223804518e+18
14469.0	1.7906395751907325e+18
14470.0	1.7902877016063997e+18
14471.0	1.789938561030553e+18
14472.0	1.7895885379731453e+18
14473.0	1.789237454595686e+18
14474.0	1.788886354441011e+18
14475.0	1.7885350328270848e+18
14476.0	1.7881768912748541e+18
14477.0	1.7878329365364733e+18
14478.0	1.7874033005559803e+18
14479.0	1.7870334787059712e+18
14480.0	1.786681199113011e+18
14481.0	1.7863307297816576e+18
14482.0	1.7859789635715064e+18
14483.0	1.7856269020823547e+18
14484.0	1.785275558658048e+18
14485.0	1.7849212104343547e+18
14486.0	1.7845418356375547e+18
14487.0	1.7842229611593728e+18
14488.0	1.7838718660378621e+18
14489.0	1.7835198867570685e+18
14490.0	1.7831692462981117e+18
14491.0	1.7828183189487616e+18
14492.0	1.7824674285092861e+18
14493.0	1.7820784269459453e+18
14494.0	1.7814206275387387e+18
14495.0	1.7810693814222843e+18
14496.0	1.780703770653491e+18
14497.0	1.7803670972268541e+18
14498.0	1.7800161581334523e+18
14499.0	1.779665116699033e+18
14500.0	1.7793140081557507e+18
14501.0	1.778959834415104e+18
14502.0	1.7785874892718077e+18
14503.0	1.7782593487372288e+18
14504.0	1.7779093424570365e+18
14505.0	1.7775556888100861e+18
14506.0	1.7772012868993021e+18
14507.0	1.776830451705446e+18
14508.0	1.776506086044467e+18
14509.0	1.7761552375480315e+18
14510.0	1.775804357174886e+18
14511.0	1.7754534466027523e+18
14512.0	1.7751008952188923e+18
14513.0	1.77475170598912e+18
14514.0	1.774397268846182e+18
14515.0	1.7740497053286397e+18
14516.0	1.7734397092429821e+18
14517.0	1.7733473758347261e+18
14518.0	1.7729973376778237e+18
14519.0	1.7726465462239224e+18
14520.0	1.7722956675284987e+18
14521.0	1.7719447670226941e+18
14522.0	1.771593831284736e+18
14523.0	1.7712352115818493e+18
14524.0	1.7708844117393403e+18
14525.0	1.770540661682995e+18
14526.0	1.7701904473653243e+18
14527.0	1.7698372903239677e+18
14528.0	1.7694745417482237e+18
14529.0	1.7691367425703933e+18
14530.0	1.7687854897430525e+18
14531.0	1.7684361662955517e+18
14532.0	1.7680755014500347e+18
14533.0	1.767734633719398e+18
14534.0	1.7673245465509885e+18
14535.0	1.7669384944222205e+18
14536.0	1.7665874144002043e+18
14537.0	1.7662350341439488e+18
14538.0	1.7658852979769344e+18
14539.0	1.765534226343526e+18
14540.0	1.7651831211556856e+18
14541.0	1.764831462319718e+18
14542.0	1.7644807698513915e+18
14543.0	1.7641251163602936e+18
14544.0	1.7637782071541752e+18
14545.0	1.7634264426217472e+18
14546.0	1.7622952187002875e+18
14547.0	1.7620096218300406e+18
14548.0	1.762371712738918e+18
14549.0	1.762009556398899e+18
14550.0	1.7616708462182397e+18
14551.0	1.7613197410303995e+18
14552.0	1.7609683472744443e+18
14553.0	1.7606163411501053e+18
14554.0	1.7602658885959677e+18
14555.0	1.7599145367830528e+18
14556.0	1.7595630138425341e+18
14557.0	1.7592117912141821e+18
14558.0	1.7588600904351741e+18
14559.0	1.7583177920937974e+18
14560.0	1.7581571066298365e+18
14561.0	1.7578055417462781e+18
14562.0	1.7574523108851712e+18
14563.0	1.757103445455667e+18
14564.0	1.7567514040991744e+18
14565.0	1.7564007787397117e+18
14566.0	1.7560493648510968e+18
14567.0	1.755697882175897e+18
14568.0	1.7553460371128317e+18
14569.0	1.7549948480389117e+18
14570.0	1.7545904600907776e+18
14571.0	1.7542914565472253e+18
14572.0	1.753936116790067e+18
14573.0	1.7535849210052603e+18
14574.0	1.7532351160516603e+18
14575.0	1.7528846416871424e+18
14576.0	1.75253287379927e+18
14577.0	1.7521811545653243e+18
14578.0	1.7518289722802176e+18
14579.0	1.751477172515635e+18
14580.0	1.7511251445809147e+18
14581.0	1.750772613329715e+18
14582.0	1.750420756522598e+18
14583.0	1.7500684786073597e+18
14584.0	1.7497149205905405e+18
14585.0	1.7493638237913085e+18
14586.0	1.7490110358487037e+18
14587.0	1.7486588216868861e+18
14588.0	1.7483069497802747e+18
14589.0	1.747959575845273e+18
14590.0	1.747612951851827e+18
14591.0	1.7472662037069821e+18
14592.0	1.7469193498656763e+18
14593.0	1.7465599869321213e+18
14594.0	1.7462259173294077e+18
14595.0	1.7458784846741504e+18
14596.0	1.7455270422642685e+18
14597.0	1.7451795139788797e+18
14598.0	1.7448376731697147e+18
14599.0	1.7441400312299512e+18
14600.0	1.7436879171354621e+18
14601.0	1.7433408284131325e+18
14602.0	1.742993365558886e+18
14603.0	1.7426463422676987e+18
14604.0	1.742294414996275e+18
14605.0	1.741950732048793e+18
14606.0	1.7415968468762621e+18
14607.0	1.7412557895630843e+18
14608.0	1.74090890552279e+18
14609.0	1.740560531665715e+18
14610.0	1.740211959837491e+18
14611.0	1.7398645791916024e+18
14612.0	1.7395170475507712e+18
14613.0	1.7391689136078843e+18
14614.0	1.7388202159505405e+18
14615.0	1.7384722044813312e+18
14616.0	1.7381237920366595e+18
14617.0	1.7377752202084347e+18
14618.0	1.737426576238182e+18
14619.0	1.7370742513467387e+18
14620.0	1.7367163446755323e+18
14621.0	1.7363803255603195e+18
14622.0	1.7360314097991677e+18
14623.0	1.7356823296212987e+18
14624.0	1.735326795248435e+18
14625.0	1.7349838555316221e+18
14626.0	1.7346343223689213e+18
14627.0	1.7342843311882237e+18
14628.0	1.7339352728207352e+18
14629.0	1.7335854343127037e+18
14630.0	1.7332353307246587e+18
14631.0	1.7328852875345915e+18
14632.0	1.732485627405926e+18
14633.0	1.7321783258513403e+18
14634.0	1.7318339298721787e+18
14635.0	1.7314810664321021e+18
14636.0	1.7311259850440704e+18
14637.0	1.7307821561348093e+18
14638.0	1.7304309318287357e+18
14639.0	1.730078924026675e+18
14640.0	1.7297281778712576e+18
14641.0	1.7291855859286013e+18
14642.0	1.729025296406937e+18
14643.0	1.7286746056163325e+18
14644.0	1.7283228041740285e+18
14645.0	1.7275293894967293e+18
14646.0	1.727155970611609e+18
14647.0	1.7268034947252221e+18
