# Flux units: erg / (cm m2 s)
# Wavelength units: Angstrom
wave	flux
14000.0	1.8876773735333883e+18
14001.0	1.8871083826413565e+18
14002.0	1.8867995593932792e+18
14003.0	1.8863618418278397e+18
14004.0	1.8859211513397243e+18
14005.0	1.885479313290035e+18
14006.0	1.8850226827689984e+18
14007.0	1.8845764524441597e+18
14008.0	1.8839490550300672e+18
14009.0	1.883713175761715e+18
14010.0	1.8832432241311741e+18
14011.0	1.8816596042579976e+18
14012.0	1.8823852859588608e+18
14013.0	1.881948895471206e+18
14014.0	1.8814936775917563e+18
14015.0	1.8810624897187837e+18
14016.0	1.880626964935475e+18
14017.0	1.8801837998079997e+18
14018.0	1.879742439908966e+18
14019.0	1.879300969280307e+18
14020.0	1.8788547708321787e+18
14021.0	1.878415971136307e+18
14022.0	1.8779772687482875e+18
14023.0	1.8775088706879483e+18
14024.0	1.8770684301803515e+18
14025.0	1.876657968880025e+18
14026.0	1.8762163137019896e+18
14027.0	1.8757780575879165e+18
14028.0	1.8753288291745787e+18
14029.0	1.874892588004147e+18
14030.0	1.8739803017183232e+18
14031.0	1.8739862207201277e+18
14032.0	1.8735844986716155e+18
14033.0	1.8730585396609021e+18
14034.0	1.8727095131701243e+18
14035.0	1.8722638197161981e+18
14036.0	1.8718325714452477e+18
14037.0	1.8713817844285437e+18
14038.0	1.8709504875036672e+18
14039.0	1.8705039971319805e+18
14040.0	1.870045596614656e+18
14041.0	1.869629276710502e+18
14042.0	1.8691807848169472e+18
14043.0	1.868680939542937e+18
14044.0	1.8683046114885627e+18
14045.0	1.8678809213534203e+18
14046.0	1.8674407241154555e+18
14047.0	1.866996906354278e+18
14048.0	1.8665741658095608e+18
14049.0	1.8661422649049083e+18
14050.0	1.8657039014166523e+18
14051.0	1.8652439439736832e+18
14052.0	1.864824042133913e+18
14053.0	1.8643947752521725e+18
14054.0	1.8639614516396024e+18
14055.0	1.8635203702423547e+18
14056.0	1.863087781471846e+18
14057.0	1.862643356375449e+18
14058.0	1.8622117524275197e+18
14059.0	1.8617766521077752e+18
14060.0	1.861341618896896e+18
14061.0	1.860892860245606e+18
14062.0	1.8604708981637115e+18
14063.0	1.8600042097016827e+18
14064.0	1.8595313841340413e+18
14065.0	1.8591510580690944e+18
14066.0	1.8587277236109307e+18
14067.0	1.858285811741491e+18
14068.0	1.8578645123596283e+18
14069.0	1.8574278198820861e+18
14070.0	1.8569962763321336e+18
14071.0	1.8565559230660603e+18
14072.0	1.8561263239954427e+18
14073.0	1.8556943056502781e+18
14074.0	1.855258948639129e+18
14075.0	1.854792095760384e+18
14076.0	1.8543799198285821e+18
14077.0	1.8538422838755328e+18
14078.0	1.8535142389710843e+18
14079.0	1.8530688642842621e+18
14080.0	1.8526567655276541e+18
14081.0	1.85222254601175e+18
14082.0	1.851746802886246e+18
14083.0	1.8513532043657213e+18
14084.0	1.8509268030324733e+18
14085.0	1.8499599790505984e+18
14086.0	1.8500490761338877e+18
14087.0	1.8496308671152125e+18
14088.0	1.8491763320684541e+18
14089.0	1.848751168893747e+18
14090.0	1.848329127958937e+18
14091.0	1.8479044630675453e+18
14092.0	1.8474689970044923e+18
14093.0	1.8470415873605632e+18
14094.0	1.8466108541501437e+18
14095.0	1.8461800336982016e+18
14096.0	1.8457231934619645e+18
14097.0	1.8452753642684413e+18
14098.0	1.8448722933317627e+18
14099.0	1.8444567955111933e+18
14100.0	1.843998381572096e+18
14101.0	1.8435970135228413e+18
14102.0	1.8431621296291837e+18
14103.0	1.8427098628620283e+18
14104.0	1.842295093172633e+18
14105.0	1.841861725939302e+18
14106.0	1.8414407839121405e+18
14107.0	1.840984525845299e+18
14108.0	1.8405548076564475e+18
14109.0	1.8401428145963003e+18
14110.0	1.839674924885606e+18
14111.0	1.8391858187075581e+18
14112.0	1.8388478014259197e+18
14113.0	1.8384271781658621e+18
14114.0	1.8379773055074304e+18
14115.0	1.8375734477193216e+18
14116.0	1.837019287886233e+18
14117.0	1.8359394810986496e+18
14118.0	1.836291133223731e+18
14119.0	1.8358438845218813e+18
14120.0	1.835426628449075e+18
14121.0	1.8349679762735104e+18
14122.0	1.834561798196428e+18
14123.0	1.8341256207794176e+18
14124.0	1.833699521436057e+18
14125.0	1.8323708615589885e+18
14126.0	1.8328678547062781e+18
14127.0	1.8324471005839355e+18
14128.0	1.8320173471629312e+18
14129.0	1.8315698216370168e+18
14130.0	1.8311175162822653e+18
14131.0	1.8307366214696955e+18
14132.0	1.8302939294597115e+18
14133.0	1.8287985560649687e+18
14134.0	1.8294533003411453e+18
14135.0	1.8289994447716347e+18
14136.0	1.8285449768337405e+18
14137.0	1.8281746617335805e+18
14138.0	1.8277385715580925e+18
14139.0	1.827323811935027e+18
14140.0	1.8268163682598907e+18
14141.0	1.8264726031040507e+18
14142.0	1.8259486321934333e+18
14143.0	1.825513496641536e+18
14144.0	1.8251984708567035e+18
14145.0	1.8247710880563197e+18
14146.0	1.8243440206675965e+18
14147.0	1.8239209076686843e+18
14148.0	1.823495388816998e+18
14149.0	1.8230687542804475e+18
14150.0	1.8226497600880637e+18
14151.0	1.8222103094362107e+18
14152.0	1.8217984807927805e+18
14153.0	1.8213781762998272e+18
14154.0	1.8209019013365755e+18
14155.0	1.820256275477299e+18
14156.0	1.8200945498259453e+18
14157.0	1.8196810937925627e+18
14158.0	1.81924676019159e+18
14159.0	1.818834171540275e+18
14160.0	1.8184112917446653e+18
14161.0	1.8178540012830715e+18
14162.0	1.817351874307686e+18
14163.0	1.8171364263329787e+18
14164.0	1.8166666944839677e+18
14165.0	1.8154467207675907e+18
14166.0	1.8158581719236603e+18
14167.0	1.8154191407022075e+18
14168.0	1.815014167229235e+18
14169.0	1.8146042461552637e+18
14170.0	1.8141731589455872e+18
14171.0	1.8137457342021627e+18
14172.0	1.813338786050867e+18
14173.0	1.812529641055847e+18
14174.0	1.81248839427031e+18
14175.0	1.812074265470566e+18
14176.0	1.8116497230528507e+18
14177.0	1.811228713916825e+18
14178.0	1.8108015055994877e+18
14179.0	1.810306508940902e+18
14180.0	1.8099691057053693e+18
14181.0	1.8095466050748416e+18
14182.0	1.8091258777960443e+18
14183.0	1.8087062091595768e+18
14184.0	1.8082752326795261e+18
14185.0	1.8078641338449917e+18
14186.0	1.8072588018253821e+18
14187.0	1.8069777801019384e+18
14188.0	1.806596725905817e+18
14189.0	1.8061744081469435e+18
14190.0	1.805764300845875e+18
14191.0	1.805344731194982e+18
14192.0	1.8049075857326077e+18
14193.0	1.8044844140134397e+18
14194.0	1.8040865641463808e+18
14195.0	1.8036708012457981e+18
14196.0	1.8032511628083197e+18
14197.0	1.80282895410135e+18
14198.0	1.8024031047385085e+18
14199.0	1.801969071449702e+18
14200.0	1.8014804098678781e+18
14201.0	1.8011514069843965e+18
14202.0	1.8007301780668413e+18
14203.0	1.8002223954919416e+18
14204.0	1.7998912283475965e+18
14205.0	1.7994740326727677e+18
14206.0	1.7988088814895104e+18
14207.0	1.7986438960250875e+18
14208.0	1.7982262775644152e+18
14209.0	1.7975189769814008e+18
14210.0	1.7972272245506035e+18
14211.0	1.7969594970931197e+18
14212.0	1.7965548843302907e+18
14213.0	1.7961348382064637e+18
14214.0	1.7957210885718008e+18
14215.0	1.7952782640218107e+18
14216.0	1.794886011034009e+18
14217.0	1.794473809936384e+18
14218.0	1.7940331345477627e+18
14219.0	1.7936376720785405e+18
14220.0	1.7932243301302272e+18
14221.0	1.7928054600892408e+18
14222.0	1.792351076037427e+18
14223.0	1.791975925743616e+18
14224.0	1.791561791910707e+18
14225.0	1.7908950754131968e+18
14226.0	1.7907308717670397e+18
14227.0	1.790313213041049e+18
14228.0	1.7892802901835779e+18
14229.0	1.7894132177436662e+18
14230.0	1.7890684778315776e+18
14231.0	1.788632958081433e+18
14232.0	1.7882406212075517e+18
14233.0	1.7878066684493821e+18
14234.0	1.7874112797999104e+18
14235.0	1.786991292396339e+18
14236.0	1.7865782222389243e+18
14237.0	1.7861622529785853e+18
14238.0	1.7857512279638016e+18
14239.0	1.7853248534740987e+18
14240.0	1.7820842738057236e+18
14241.0	1.7845040701243387e+18
14242.0	1.7840910855307261e+18
14243.0	1.7833661671931907e+18
14244.0	1.7832662739714048e+18
14245.0	1.7828092105981947e+18
14246.0	1.782369513321267e+18
14247.0	1.7820152087183355e+18
14248.0	1.78158442685399e+18
14249.0	1.7811907008266237e+18
14250.0	1.7807830715203584e+18
14251.0	1.7803724307038203e+18
14252.0	1.7799607060791293e+18
14253.0	1.7795492196909053e+18
14254.0	1.7791332000989184e+18
14255.0	1.7786647751950333e+18
14256.0	1.7780888922226685e+18
14257.0	1.7778908908748795e+18
14258.0	1.777490396918579e+18
14259.0	1.777037408731136e+18
14260.0	1.7766538211753981e+18
14261.0	1.7762102550724603e+18
14262.0	1.7758478638514176e+18
14263.0	1.7750992594403328e+18
14264.0	1.7749670482673661e+18
14265.0	1.7746009929023485e+18
14266.0	1.7742009015992317e+18
14267.0	1.7737927756873725e+18
14268.0	1.7733777476288512e+18
14269.0	1.7729534921015293e+18
14270.0	1.7725625762578432e+18
14271.0	1.7721352840544253e+18
14272.0	1.7717416301690875e+18
14273.0	1.7713301253259261e+18
14274.0	1.7704184212094979e+18
14275.0	1.7704683569151997e+18
14276.0	1.7700092819537917e+18
14277.0	1.7696338498027515e+18
14278.0	1.769282395648819e+18
14279.0	1.7688721105092605e+18
14280.0	1.7684473717981181e+18
14281.0	1.7680542212292605e+18
14282.0	1.7676446021451776e+18
14283.0	1.7672367513796603e+18
14284.0	1.7668270098219003e+18
14285.0	1.7664190147723256e+18
14286.0	1.7660065016184827e+18
14287.0	1.7655991340367864e+18
14288.0	1.7651872131186685e+18
14289.0	1.7629594555252677e+18
14290.0	1.7643490821275648e+18
14291.0	1.763957872682598e+18
14292.0	1.7635497601925115e+18
14293.0	1.7631422802034688e+18
14294.0	1.7624629472395261e+18
14295.0	1.7622981865897981e+18
14296.0	1.7604456195555338e+18
14297.0	1.761516180419379e+18
14298.0	1.760799169183744e+18
14299.0	1.7606681995247616e+18
14300.0	1.7602730524671997e+18
14301.0	1.7598668173475835e+18
14302.0	1.7594696184365053e+18
14303.0	1.7590007137042427e+18
14304.0	1.7586313314172928e+18
14305.0	1.758246460404531e+18
14306.0	1.7576581404819453e+18
14307.0	1.7574051736190968e+18
14308.0	1.7570404000333821e+18
14309.0	1.7566266839531517e+18
14310.0	1.7553750314975222e+18
14311.0	1.7556510905204733e+18
14312.0	1.7553420491685885e+18
14313.0	1.7548611957030912e+18
14314.0	1.7545994828775421e+18
14315.0	1.7541971719487485e+18
14316.0	1.7536908875792381e+18
14317.0	1.7532993040023547e+18
14318.0	1.752983581963059e+18
14319.0	1.7525803617091581e+18
14320.0	1.7521731652550656e+18
14321.0	1.7517602091827197e+18
14322.0	1.751269344752435e+18
14323.0	1.7509348859183096e+18
14324.0	1.7505548333219837e+18
14325.0	1.7501325910605821e+18
14326.0	1.749749131011686e+18
14327.0	1.749329628469657e+18
14328.0	1.7489237825814528e+18
14329.0	1.748537292567347e+18
14330.0	1.7481316731715581e+18
14331.0	1.7477227738300416e+18
14332.0	1.747323575074816e+18
14333.0	1.7469219788554235e+18
14334.0	1.74651765466071e+18
14335.0	1.7460620223840256e+18
14336.0	1.7456531733741563e+18
14337.0	1.7453022779015163e+18
14338.0	1.7449011715768315e+18
14339.0	1.7444787447660541e+18
14340.0	1.7441015929503741e+18
14341.0	1.7436930543190016e+18
14342.0	1.7432876932923387e+18
14343.0	1.7428514823208957e+18
14344.0	1.7424497334288384e+18
14345.0	1.7420741435719675e+18
14346.0	1.7416692741177344e+18
14347.0	1.7412439549149181e+18
14348.0	1.7408667762556925e+18
14349.0	1.740467686552371e+18
14350.0	1.7400469408186363e+18
14351.0	1.7396336794009595e+18
14352.0	1.7392460099485693e+18
14353.0	1.7388593907499003e+18
14354.0	1.7384547410771963e+18
14355.0	1.7380541884006397e+18
14356.0	1.7376554560520187e+18
14357.0	1.7372598040002557e+18
14358.0	1.7368577279524861e+18
14359.0	1.7364259293888507e+18
14360.0	1.736055181436518e+18
14361.0	1.735656917172224e+18
14362.0	1.7352540425289725e+18
14363.0	1.7348562799034365e+18
14364.0	1.7343841740783613e+18
14365.0	1.7340488931606523e+18
14366.0	1.7336421597577208e+18
14367.0	1.7332523830870013e+18
14368.0	1.7328538839416832e+18
14369.0	1.7324581027053565e+18
14370.0	1.7320585533063165e+18
14371.0	1.7316593109303296e+18
14372.0	1.7312465863835648e+18
14373.0	1.7308601769000957e+18
14374.0	1.7304573391667197e+18
14375.0	1.7300575213322237e+18
14376.0	1.7296611780591616e+18
14377.0	1.7292643700572157e+18
14378.0	1.7288616598306816e+18
14379.0	1.7284685243613181e+18
14380.0	1.7280670304829435e+18
14381.0	1.7276451304767485e+18
14382.0	1.7272700187705341e+18
14383.0	1.7268141499351035e+18
14384.0	1.7264310757621752e+18
14385.0	1.7260797994467325e+18
14386.0	1.725644890387251e+18
14387.0	1.7252808046673915e+18
14388.0	1.7248774300631035e+18
14389.0	1.7244886583476221e+18
14390.0	1.7240871778910205e+18
14391.0	1.7236927337988093e+18
14392.0	1.7232689748770813e+18
14393.0	1.7229007602843643e+18
14394.0	1.7224266546151421e+18
14395.0	1.7220706420916221e+18
14396.0	1.721709500773171e+18
14397.0	1.7213137799348221e+18
14398.0	1.7208994095431677e+18
14399.0	1.720516437711257e+18
14400.0	1.7200789013397504e+18
14401.0	1.7197162030956541e+18
14402.0	1.7193252956405757e+18
14403.0	1.707185146114847e+18
14404.0	1.6875619019128768e+18
14405.0	1.7156576469057418e+18
14406.0	1.7177449641017344e+18
14407.0	1.6983461772394596e+18
14408.0	1.7169094906216443e+18
14409.0	1.7165178567131133e+18
14410.0	1.7161516235096061e+18
14411.0	1.7157636470341627e+18
14412.0	1.7153612052430843e+18
14413.0	1.7149732522557437e+18
14414.0	1.7145766942343165e+18
14415.0	1.7141835486986237e+18
14416.0	1.7137833164668928e+18
14417.0	1.7133518484144125e+18
14418.0	1.7129093208211453e+18
14419.0	1.7126053713543165e+18
14420.0	1.7122012216426493e+18
14421.0	1.7118182598770688e+18
14422.0	1.7114149993578496e+18
14423.0	1.711014451714457e+18
14424.0	1.6487948912426644e+18
14425.0	1.710233848119296e+18
14426.0	1.7098489217417213e+18
14427.0	1.7094572156911616e+18
14428.0	1.7090017394425853e+18
14429.0	1.7086671363244024e+18
14430.0	1.708278943422873e+18
14431.0	1.7077715500793856e+18
14432.0	1.7074275500425216e+18
14433.0	1.6926010763116444e+18
14434.0	1.7066763065753595e+18
14435.0	1.7062791596736507e+18
14436.0	1.705920763107737e+18
14437.0	1.7055278759411712e+18
14438.0	1.7047078542770176e+18
14439.0	1.704645154465382e+18
14440.0	1.7043507914997757e+18
14441.0	1.703945799571865e+18
14442.0	1.7035437939884027e+18
14443.0	1.703073887656345e+18
14444.0	1.7027732349124605e+18
14445.0	1.7023903369003005e+18
14446.0	1.6865564064481357e+18
14447.0	1.7015871394283515e+18
14448.0	1.701219335877427e+18
14449.0	1.700828240517529e+18
14450.0	1.700424016986112e+18
14451.0	1.7000360455438333e+18
14452.0	1.69964512298926e+18
14453.0	1.6989693820272637e+18
14454.0	1.6988693076115453e+18
14455.0	1.6984631597334525e+18
14456.0	1.6980293462261757e+18
14457.0	1.697600579305472e+18
14458.0	1.697290563197337e+18
14459.0	1.6968776524234747e+18
14460.0	1.696526832448307e+18
14461.0	1.696102560143769e+18
14462.0	1.6956202554490877e+18
14463.0	1.695343127717478e+18
14464.0	1.6949531295875072e+18
14465.0	1.6945250387886077e+18
14466.0	1.6941657932955648e+18
14467.0	1.6935600619782144e+18
14468.0	1.693372506125107e+18
14469.0	1.6929680661676024e+18
14470.0	1.6925529038913528e+18
14471.0	1.6921907425181696e+18
14472.0	1.691816652544409e+18
14473.0	1.691448360776499e+18
14474.0	1.6910634260103165e+18
14475.0	1.690659345085235e+18
14476.0	1.6892868446650373e+18
14477.0	1.6898962099273725e+18
14478.0	1.689500853154611e+18
14479.0	1.6891043454648315e+18
14480.0	1.688699722635673e+18
14481.0	1.68834756551639e+18
14482.0	1.68795289157632e+18
14483.0	1.6875477721415677e+18
14484.0	1.6871738214187005e+18
14485.0	1.686700064715571e+18
14486.0	1.6857934138966019e+18
14487.0	1.6860140040880123e+18
14488.0	1.685597130535731e+18
14489.0	1.6852280854708221e+18
14490.0	1.6848343846092797e+18
14491.0	1.684462520972083e+18
14492.0	1.6840790777004032e+18
14493.0	1.683676508402483e+18
14494.0	1.6832632402739197e+18
14495.0	1.6829179785904125e+18
14496.0	1.6822547500761088e+18
14497.0	1.6821398529900544e+18
14498.0	1.6817519486566395e+18
14499.0	1.6813730083897341e+18
14500.0	1.680986013381427e+18
14501.0	1.680149283287859e+18
14502.0	1.67935600450601e+18
14503.0	1.6797753828966397e+18
14504.0	1.6794297118490621e+18
14505.0	1.6786493783670776e+18
14506.0	1.6776986554793981e+18
14507.0	1.6777886652432384e+18
14508.0	1.6779003830468605e+18
14509.0	1.677513767203635e+18
14510.0	1.6771249518673915e+18
14511.0	1.676745759942246e+18
14512.0	1.676324321309491e+18
14513.0	1.675975497823027e+18
14514.0	1.675449725039411e+18
14515.0	1.6751956022263805e+18
14516.0	1.6704469152563238e+18
14517.0	1.6744357403033595e+18
14518.0	1.674051008541491e+18
14519.0	1.673663981656473e+18
14520.0	1.6732811473977344e+18
14521.0	1.6728860489940987e+18
14522.0	1.672508888789811e+18
14523.0	1.6711492061626355e+18
14524.0	1.670688218598604e+18
14525.0	1.6713479910064125e+18
14526.0	1.6709709817970688e+18
14527.0	1.6705345644658685e+18
14528.0	1.6699210267099133e+18
14529.0	1.6698038680551421e+18
14530.0	1.669398921425715e+18
14531.0	1.6690543157313539e+18
14532.0	1.6670966411165693e+18
14533.0	1.668289524662272e+18
14534.0	1.667909646548992e+18
14535.0	1.6675009082687488e+18
14536.0	1.6671342925447163e+18
14537.0	1.6667285120876541e+18
14538.0	1.6663741168877565e+18
14539.0	1.6659920711581696e+18
14540.0	1.6656120219172861e+18
14541.0	1.66518007571415e+18
14542.0	1.6648378926497787e+18
14543.0	1.6638100147011576e+18
14544.0	1.6640760912805885e+18
14545.0	1.663677085463347e+18
14546.0	1.6080455887486748e+18
14547.0	1.6128648960540378e+18
14548.0	1.6625226133536763e+18
14549.0	1.6619231885918205e+18
14550.0	1.661769510970982e+18
14551.0	1.6614080592740347e+18
14552.0	1.661016468986265e+18
14553.0	1.6606202532200443e+18
14554.0	1.6602617274695672e+18
14555.0	1.6598786331639805e+18
14556.0	1.659472696678809e+18
14557.0	1.6591190648422397e+18
14558.0	1.658737406666342e+18
14559.0	1.655090065073756e+18
14560.0	1.6579412757577725e+18
14561.0	1.657580010287923e+18
14562.0	1.6571625461776381e+18
14563.0	1.6568292986585085e+18
14564.0	1.656436951718297e+18
14565.0	1.6560715775082493e+18
14566.0	1.6556909477756928e+18
14567.0	1.6553064274067453e+18
14568.0	1.6548850609160192e+18
14569.0	1.654549407544115e+18
14570.0	1.653233189650432e+18
14571.0	1.653780566455091e+18
14572.0	1.6533202013257728e+18
14573.0	1.65292936265728e+18
14574.0	1.6526142831853565e+18
14575.0	1.65226282567598e+18
14576.0	1.6518745421774843e+18
14577.0	1.6514828193497085e+18
14578.0	1.6511184953933824e+18
14579.0	1.650742397186867e+18
14580.0	1.6503643779891195e+18
14581.0	1.6499520359628797e+18
14582.0	1.6496031504007165e+18
14583.0	1.6492258459123707e+18
14584.0	1.6488233319792637e+18
14585.0	1.6484669872668667e+18
14586.0	1.6480807740768253e+18
14587.0	1.6476878298677248e+18
14588.0	1.6473223717715963e+18
14589.0	1.6469649868718075e+18
14590.0	1.6466002652954621e+18
14591.0	1.6462245294768125e+18
14592.0	1.645852912464691e+18
14593.0	1.6452666762723323e+18
14594.0	1.6451374732541947e+18
14595.0	1.644762074657587e+18
14596.0	1.6442830750744568e+18
14597.0	1.643987517571072e+18
14598.0	1.64368054484992e+18
14599.0	1.6433287467630592e+18
14600.0	1.642965983087821e+18
14601.0	1.6426019107897341e+18
14602.0	1.6422103926439933e+18
14603.0	1.6418763012308992e+18
14604.0	1.6414300339961853e+18
14605.0	1.6411364612374525e+18
14606.0	1.640650071290675e+18
14607.0	1.640424697914982e+18
14608.0	1.640058035214745e+18
14609.0	1.6396131739107323e+18
14610.0	1.6393097193717757e+18
14611.0	1.6389744569090043e+18
14612.0	1.6386168773935104e+18
14613.0	1.638259004276736e+18
14614.0	1.6378893199998976e+18
14615.0	1.6375259439562747e+18
14616.0	1.6371726208204797e+18
14617.0	1.6368081441914875e+18
14618.0	1.63641902015447e+18
14619.0	1.6360568856248312e+18
14620.0	1.6355567148728315e+18
14621.0	1.6353644530106368e+18
14622.0	1.634995951527526e+18
14623.0	1.634638952503705e+18
14624.0	1.6341582299004925e+18
14625.0	1.633909673767731e+18
14626.0	1.6335244554665981e+18
14627.0	1.6331336939732987e+18
14628.0	1.632832497647616e+18
14629.0	1.632470817780531e+18
14630.0	1.632107493746278e+18
14631.0	1.631738014151475e+18
14632.0	1.624737613401297e+18
14633.0	1.6304056817418217e+18
14634.0	1.6306424384585728e+18
14635.0	1.630065470000331e+18
14636.0	1.629030312417689e+18
14637.0	1.6295782126714875e+18
14638.0	1.6292098084962301e+18
14639.0	1.6288349249601533e+18
14640.0	1.6284837107204093e+18
14641.0	1.60473030684834e+18
14642.0	1.6277591178608637e+18
14643.0	1.6274078449008635e+18
14644.0	1.6270228497367035e+18
14645.0	1.6266330126680061e+18
14646.0	1.6262938159480832e+18
14647.0	1.6259359763857405e+18
