# Flux units: erg / (cm m2 s)
# Wavelength units: Angstrom
wave	flux
14000.0	1.061242176484147e+18
14001.0	1.0610096828579837e+18
14002.0	1.0609483352899583e+18
14003.0	1.0607945410674685e+18
14004.0	1.0606397678944255e+18
14005.0	1.0604859384397821e+18
14006.0	1.0603289322192893e+18
14007.0	1.0601705133572095e+18
14008.0	1.0599351759929344e+18
14009.0	1.0598631849590783e+18
14010.0	1.0597047191207932e+18
14011.0	1.0594825350938621e+18
14012.0	1.0593925437849597e+18
14013.0	1.059249122915123e+18
14014.0	1.0590964544438272e+18
14015.0	1.0589427030032383e+18
14016.0	1.0587887141650431e+18
14017.0	1.0586342253658111e+18
14018.0	1.0584059109441536e+18
14019.0	1.058326887740211e+18
14020.0	1.0581729458782204e+18
14021.0	1.0580189721395197e+18
14022.0	1.0578644833402879e+18
14023.0	1.0577110187900927e+18
14024.0	1.0575564377161724e+18
14025.0	1.057403465577267e+18
14026.0	1.057249647866675e+18
14027.0	1.057095842738995e+18
14028.0	1.0569418681614333e+18
14029.0	1.0567869246996477e+18
14030.0	1.056621504705331e+18
14031.0	1.0564725163163647e+18
14032.0	1.0563266543615996e+18
14033.0	1.0561689653084159e+18
14034.0	1.056020746154803e+18
14035.0	1.0558651576090621e+18
14036.0	1.0556863963725823e+18
14037.0	1.0555522088435711e+18
14038.0	1.0554073652658173e+18
14039.0	1.0552540433219581e+18
14040.0	1.0551001534693375e+18
14041.0	1.0549473214201855e+18
14042.0	1.0547922026364928e+18
14043.0	1.0546368732987391e+18
14044.0	1.0544448890994687e+18
14045.0	1.0542913104642045e+18
14046.0	1.054181841646387e+18
14047.0	1.0540288233701375e+18
14048.0	1.0538741525381117e+18
14049.0	1.0537221450891264e+18
14050.0	1.0535698398445565e+18
14051.0	1.0534159306981375e+18
14052.0	1.0532640297844732e+18
14053.0	1.0531114141614079e+18
14054.0	1.0529586693537788e+18
14055.0	1.0528059329347583e+18
14056.0	1.0526532191649792e+18
14057.0	1.0525000146616319e+18
14058.0	1.052347840279347e+18
14059.0	1.0521269556477948e+18
14060.0	1.0520420839063551e+18
14061.0	1.0518893063831551e+18
14062.0	1.0517371739439101e+18
14063.0	1.0515807809306623e+18
14064.0	1.0514251630247932e+18
14065.0	1.0512774899695613e+18
14066.0	1.0511278271365119e+18
14067.0	1.0509756561096703e+18
14068.0	1.0508233936470015e+18
14069.0	1.0506702545747965e+18
14070.0	1.0505188662050813e+18
14071.0	1.050365884838707e+18
14072.0	1.0502145820327933e+18
14073.0	1.0500611233546237e+18
14074.0	1.0499103968460799e+18
14075.0	1.0497558761701375e+18
14076.0	1.049605914702643e+18
14077.0	1.0494510584823804e+18
14078.0	1.049301211099955e+18
14079.0	1.0491500467060736e+18
14080.0	1.0489750989307901e+18
14081.0	1.0488424658108413e+18
14082.0	1.0486946660876285e+18
14083.0	1.0485423163834367e+18
14084.0	1.0483876992385023e+18
14085.0	1.0482234284834813e+18
14086.0	1.0480582484033533e+18
14087.0	1.047888728057446e+18
14088.0	1.0477825970667519e+18
14089.0	1.0476332865552383e+18
14090.0	1.0474818864414719e+18
14091.0	1.047329963717427e+18
14092.0	1.047178985550643e+18
14093.0	1.0470276651286527e+18
14094.0	1.046876286825267e+18
14095.0	1.0467249034887167e+18
14096.0	1.0465734186500092e+18
14097.0	1.0464207954771967e+18
14098.0	1.0462710126870527e+18
14099.0	1.0461196226396159e+18
14100.0	1.0459674130251775e+18
14101.0	1.0458175178276863e+18
14102.0	1.0456657486151679e+18
14103.0	1.0455119669755903e+18
14104.0	1.0453643065032701e+18
14105.0	1.0452134826868733e+18
14106.0	1.0450618552418303e+18
14107.0	1.0448531324141567e+18
14108.0	1.0447579426848765e+18
14109.0	1.0446095985410047e+18
14110.0	1.0444588443500541e+18
14111.0	1.0443080163393533e+18
14112.0	1.0441553981997055e+18
14113.0	1.0440063804506111e+18
14114.0	1.0438535769227263e+18
14115.0	1.043702402462515e+18
14116.0	1.0435475059769344e+18
14117.0	1.043377553617715e+18
14118.0	1.0432490049110013e+18
14119.0	1.0431016086798333e+18
14120.0	1.0429498595999741e+18
14121.0	1.0428000700989437e+18
14122.0	1.0426497571487741e+18
14123.0	1.0424990054744063e+18
14124.0	1.042341602472755e+18
14125.0	1.0421677334724605e+18
14126.0	1.0420416283672573e+18
14127.0	1.0418982762840064e+18
14128.0	1.0417482879729663e+18
14129.0	1.041598011093811e+18
14130.0	1.0414383305850877e+18
14131.0	1.0412857401278463e+18
14132.0	1.0411407229059072e+18
14133.0	1.0409618350014464e+18
14134.0	1.0407849939173375e+18
14135.0	1.0406967700881405e+18
14136.0	1.0405487816212477e+18
14137.0	1.0403995004698621e+18
14138.0	1.0402498837741565e+18
14139.0	1.0400998652641277e+18
14140.0	1.0399502385020924e+18
14141.0	1.0397997644906495e+18
14142.0	1.0396500471316479e+18
14143.0	1.0395014278414336e+18
14144.0	1.0393504790347773e+18
14145.0	1.039201788441395e+18
14146.0	1.0390528017301503e+18
14147.0	1.0389033444179965e+18
14148.0	1.0387533351354367e+18
14149.0	1.0386044599926783e+18
14150.0	1.0384549842255872e+18
14151.0	1.0383054925201405e+18
14152.0	1.0381562868662272e+18
14153.0	1.0380069646106621e+18
14154.0	1.0378552641847293e+18
14155.0	1.0377073738645503e+18
14156.0	1.0375590943129596e+18
14157.0	1.0374098089672703e+18
14158.0	1.0372595958415359e+18
14159.0	1.037111044499046e+18
14160.0	1.0369599103041532e+18
14161.0	1.0368086477635581e+18
14162.0	1.0366574540095487e+18
14163.0	1.0364672154796031e+18
14164.0	1.0363646093819903e+18
14165.0	1.0362167962370047e+18
14166.0	1.0360678950895615e+18
14167.0	1.0359176727363581e+18
14168.0	1.0357712235790333e+18
14169.0	1.0356225220804605e+18
14170.0	1.035473421284147e+18
14171.0	1.0353246669373439e+18
14172.0	1.0351755074207741e+18
14173.0	1.0350269913104381e+18
14174.0	1.0348776774434813e+18
14175.0	1.0347305353871359e+18
14176.0	1.0345817239977983e+18
14177.0	1.0344332808683519e+18
14178.0	1.0342851103686655e+18
14179.0	1.0341364541685759e+18
14180.0	1.0339882996072447e+18
14181.0	1.0338392667586557e+18
14182.0	1.0336909209370623e+18
14183.0	1.0335425675657212e+18
14184.0	1.0333945338003455e+18
14185.0	1.0332459975573501e+18
14186.0	1.0330598107250687e+18
14187.0	1.0329458439356413e+18
14188.0	1.0327908711137277e+18
14189.0	1.0326487731273727e+18
14190.0	1.0325059159719932e+18
14191.0	1.0323578595573759e+18
14192.0	1.0322057824829439e+18
14193.0	1.0320608634077183e+18
14194.0	1.0319135426740223e+18
14195.0	1.0317656070553596e+18
14196.0	1.0316184599658493e+18
14197.0	1.0314705906171901e+18
14198.0	1.0313223370702845e+18
14199.0	1.031174448427827e+18
14200.0	1.0310247763673085e+18
14201.0	1.0308765765074941e+18
14202.0	1.0307315601244157e+18
14203.0	1.030583034786611e+18
14204.0	1.0304354556837887e+18
14205.0	1.030285612495667e+18
14206.0	1.030133704032256e+18
14207.0	1.0299898637320191e+18
14208.0	1.0298436653940732e+18
14209.0	1.0296890054672383e+18
14210.0	1.0295423751159804e+18
14211.0	1.0294027844845567e+18
14212.0	1.0292561457446911e+18
14213.0	1.0291089651007485e+18
14214.0	1.0289622902898685e+18
14215.0	1.0288139729895421e+18
14216.0	1.0286675397705727e+18
14217.0	1.0285205797470208e+18
14218.0	1.0283729243078653e+18
14219.0	1.0282259508625405e+18
14220.0	1.0280791745495039e+18
14221.0	1.0279322573078524e+18
14222.0	1.0277858551267327e+18
14223.0	1.0276373230780415e+18
14224.0	1.0274907531247613e+18
14225.0	1.0273319559364605e+18
14226.0	1.0271940472209405e+18
14227.0	1.0270214658719741e+18
14228.0	1.0268535091625983e+18
14229.0	1.0267321109053437e+18
14230.0	1.026609125523456e+18
14231.0	1.0264628365885439e+18
14232.0	1.0263171675717631e+18
14233.0	1.0261709440679933e+18
14234.0	1.0260242164088831e+18
14235.0	1.0258772622573567e+18
14236.0	1.0257304121245693e+18
14237.0	1.0255827097092095e+18
14238.0	1.0254331030798332e+18
14239.0	1.0252695369678847e+18
14240.0	1.0249248708755453e+18
14241.0	1.0249617706844157e+18
14242.0	1.0248426197352445e+18
14243.0	1.0246935214555133e+18
14244.0	1.0245574943047677e+18
14245.0	1.0244132513513468e+18
14246.0	1.0242668894355456e+18
14247.0	1.0241214058070013e+18
14248.0	1.0239732235632639e+18
14249.0	1.0238295904616447e+18
14250.0	1.0236837578670077e+18
14251.0	1.0235374395719677e+18
14252.0	1.023390499681075e+18
14253.0	1.0232386482601981e+18
14254.0	1.0230959907536893e+18
14255.0	1.022947652481843e+18
14256.0	1.0227963630977023e+18
14257.0	1.0226522971439103e+18
14258.0	1.0225140512063485e+18
14259.0	1.0223684157439999e+18
14260.0	1.0222207452053501e+18
14261.0	1.0220765802659837e+18
14262.0	1.0219390691704831e+18
14263.0	1.0217811938902013e+18
14264.0	1.0216397535707133e+18
14265.0	1.0215019404853248e+18
14266.0	1.0213589977661437e+18
14267.0	1.0212148554760191e+18
14268.0	1.02106931396608e+18
14269.0	1.0209244653551615e+18
14270.0	1.0207790144421885e+18
14271.0	1.0206331726200831e+18
14272.0	1.0204863837241341e+18
14273.0	1.0203359097126911e+18
14274.0	1.0201723461173247e+18
14275.0	1.0200402465128445e+18
14276.0	1.0199041413480448e+18
14277.0	1.0197612380553213e+18
14278.0	1.0196170001350655e+18
14279.0	1.0194721339080701e+18
14280.0	1.0193271552737277e+18
14281.0	1.0191825742594045e+18
14282.0	1.0190376795111421e+18
14283.0	1.0188918443999231e+18
14284.0	1.018745698071347e+18
14285.0	1.0186023401160701e+18
14286.0	1.0184566543220732e+18
14287.0	1.0183088940253184e+18
14288.0	1.0181495943593983e+18
14289.0	1.0178827862933503e+18
14290.0	1.0178611747225596e+18
14291.0	1.017729984443187e+18
14292.0	1.0175862649389053e+18
14293.0	1.0174411260821501e+18
14294.0	1.0172885314306047e+18
14295.0	1.0171418952073212e+18
14296.0	1.016906344772403e+18
14297.0	1.0168360071331837e+18
14298.0	1.016701101539328e+18
14299.0	1.0165715461996541e+18
14300.0	1.016431520199475e+18
14301.0	1.0162887955841021e+18
14302.0	1.0161438958026751e+18
14303.0	1.0159967067701247e+18
14304.0	1.0158546498879487e+18
14305.0	1.0157108288815103e+18
14306.0	1.0155676353429503e+18
14307.0	1.0154236062990336e+18
14308.0	1.0152796905013247e+18
14309.0	1.0151355020738556e+18
14310.0	1.0149911332913151e+18
14311.0	1.0148446698733567e+18
14312.0	1.0146876695248893e+18
14313.0	1.0144994744598528e+18
14314.0	1.0144135222657021e+18
14315.0	1.0142697599795199e+18
14316.0	1.0141240624414719e+18
14317.0	1.0139817580953599e+18
14318.0	1.0138404134060031e+18
14319.0	1.0136968247640063e+18
14320.0	1.0135522211004415e+18
14321.0	1.0134085829656575e+18
14322.0	1.0132636747956223e+18
14323.0	1.0131203294232573e+18
14324.0	1.0129766367625213e+18
14325.0	1.0128315398488063e+18
14326.0	1.0126886533332991e+18
14327.0	1.0125458381209599e+18
14328.0	1.0124041268494332e+18
14329.0	1.0122613099593727e+18
14330.0	1.0121179486486527e+18
14331.0	1.0119745563000831e+18
14332.0	1.0118312260272124e+18
14333.0	1.0116878974320639e+18
14334.0	1.0115445076000765e+18
14335.0	1.0113998217281536e+18
14336.0	1.0112568563597311e+18
14337.0	1.0111141929811967e+18
14338.0	1.0109716470431741e+18
14339.0	1.0108273613078527e+18
14340.0	1.0106855695056895e+18
14341.0	1.0105425529667583e+18
14342.0	1.0103845476630527e+18
14343.0	1.010255734715187e+18
14344.0	1.0100790966353919e+18
14345.0	1.0099507995869181e+18
14346.0	1.009826808410931e+18
14347.0	1.0096842658283519e+18
14348.0	1.0095418071318527e+18
14349.0	1.009398992758374e+18
14350.0	1.0092548093640703e+18
14351.0	1.0091128112021501e+18
14352.0	1.0089660013346815e+18
14353.0	1.008824302646067e+18
14354.0	1.0086854183354365e+18
14355.0	1.0085428229046272e+18
14356.0	1.0083843310616575e+18
14357.0	1.008240119984947e+18
14358.0	1.0081140903772157e+18
14359.0	1.0079713447903231e+18
14360.0	1.0078289389420541e+18
14361.0	1.0076880925360124e+18
14362.0	1.0075448629264383e+18
14363.0	1.0074028932857855e+18
14364.0	1.0072586478157821e+18
14365.0	1.007116159759155e+18
14366.0	1.0069749853585405e+18
14367.0	1.0068342043836415e+18
14368.0	1.0066896485351423e+18
14369.0	1.0065477350981631e+18
14370.0	1.0064056656330751e+18
14371.0	1.0062658745139199e+18
14372.0	1.0061221021614077e+18
14373.0	1.0059778952790013e+18
14374.0	1.0058315107139581e+18
14375.0	1.0056844257001468e+18
14376.0	1.0055558727991295e+18
14377.0	1.0054131540557823e+18
14378.0	1.005271186931712e+18
14379.0	1.005129352347648e+18
14380.0	1.0049874800148477e+18
14381.0	1.0048455623835647e+18
14382.0	1.004704704233472e+18
14383.0	1.0045631028527101e+18
14384.0	1.0044197700632573e+18
14385.0	1.0042798153662464e+18
14386.0	1.0041362275631101e+18
14387.0	1.003996532912947e+18
14388.0	1.0038549365653501e+18
14389.0	1.0037124803854335e+18
14390.0	1.0035710820089853e+18
14391.0	1.003430364787507e+18
14392.0	1.0032865907572735e+18
14393.0	1.0031458164932605e+18
14394.0	1.0030016817528828e+18
14395.0	1.0028634181992447e+18
14396.0	1.0027152007233532e+18
14397.0	1.0025806969438204e+18
14398.0	1.0024397918175231e+18
14399.0	1.0022900274823165e+18
14400.0	1.0021536421380095e+18
14401.0	1.0020111750529023e+18
14402.0	1.0018641588256768e+18
14403.0	1.0017016672944127e+18
14404.0	1.001239709168435e+18
14405.0	1.0011182018592765e+18
14406.0	1.0012767197069311e+18
14407.0	1.0011559623393277e+18
14408.0	1.0010239281659901e+18
14409.0	1.0008838350569468e+18
14410.0	1.0007459372466173e+18
14411.0	1.0006061486440447e+18
14412.0	1.0004655757066237e+18
14413.0	1.0003237386059775e+18
14414.0	1.0001849557975037e+18
14415.0	1.0000444004761596e+18
14416.0	9.999033930088445e+17
14417.0	9.997632848003072e+17
14418.0	9.996226481094656e+17
14419.0	9.994819409543165e+17
14420.0	9.993411213918204e+17
14421.0	9.991973339398141e+17
14422.0	9.99059497366323e+17
14423.0	9.989177458294783e+17
14424.0	9.987688471986175e+17
14425.0	9.986350522564608e+17
14426.0	9.98498772608614e+17
14427.0	9.983572945403903e+17
14428.0	9.982150094880764e+17
14429.0	9.980720432807935e+17
14430.0	9.979367341948928e+17
14431.0	9.977933661732863e+17
14432.0	9.976563156123645e+17
14433.0	9.975135138217983e+17
14434.0	9.97374771278643e+17
14435.0	9.972356822859773e+17
14436.0	9.970966134259711e+17
14437.0	9.969564842459135e+17
14438.0	9.968165823971327e+17
14439.0	9.966767946334205e+17
14440.0	9.965369095618557e+17
14441.0	9.963933368582141e+17
14442.0	9.962511910567935e+17
14443.0	9.961091752787965e+17
14444.0	9.959726926266365e+17
14445.0	9.958283699814396e+17
14446.0	9.955975607877631e+17
14447.0	9.955337872343037e+17
14448.0	9.95414995317555e+17
14449.0	9.952779833442301e+17
14450.0	9.951391619481599e+17
14451.0	9.949999236382719e+17
14452.0	9.9486055530496e+17
14453.0	9.947207557971965e+17
14454.0	9.945813950136319e+17
14455.0	9.944417733443581e+17
14456.0	9.942998951395327e+17
14457.0	9.941608061468672e+17
14458.0	9.940219805564924e+17
14459.0	9.938817700069373e+17
14460.0	9.937448092041216e+17
14461.0	9.936042119397375e+17
14462.0	9.934648494784511e+17
14463.0	9.93326919791411e+17
14464.0	9.931862747119616e+17
14465.0	9.93040633377587e+17
14466.0	9.929079172104192e+17
14467.0	9.927693952876544e+17
14468.0	9.926307198533631e+17
14469.0	9.924588062375932e+17
14470.0	9.923505780948992e+17
14471.0	9.922121903898621e+17
14472.0	9.920759375855617e+17
14473.0	9.91937334293299e+17
14474.0	9.917978451640317e+17
14475.0	9.916596948566016e+17
14476.0	9.915207820247039e+17
14477.0	9.913820319318016e+17
14478.0	9.912432877109247e+17
14479.0	9.911043841064957e+17
14480.0	9.909625595887613e+17
14481.0	9.908267329257472e+17
14482.0	9.906875399143423e+17
14483.0	9.905482084909056e+17
14484.0	9.904070307348477e+17
14485.0	9.902633414295548e+17
14486.0	9.901114405158911e+17
14487.0	9.899909406785535e+17
14488.0	9.898545427513341e+17
14489.0	9.897174963847165e+17
14490.0	9.895800725307391e+17
14491.0	9.894418895077375e+17
14492.0	9.893024825868287e+17
14493.0	9.891649949794303e+17
14494.0	9.890224976953341e+17
14495.0	9.888848876142591e+17
14496.0	9.887411697876991e+17
14497.0	9.886076214706175e+17
14498.0	9.884705449050111e+17
14499.0	9.883344288350205e+17
14500.0	9.881961845751805e+17
14501.0	9.880522629054463e+17
14502.0	9.878929498177535e+17
14503.0	9.877784612569085e+17
14504.0	9.876439474110463e+17
14505.0	9.875057987813375e+17
14506.0	9.87363911349043e+17
14507.0	9.872130338455551e+17
14508.0	9.870866586271741e+17
14509.0	9.869545959325695e+17
14510.0	9.86816748453888e+17
14511.0	9.86678709714944e+17
14512.0	9.865402783891453e+17
14513.0	9.863994714095616e+17
14514.0	9.862567627325439e+17
14515.0	9.860934658949117e+17
14516.0	9.856174325235712e+17
14517.0	9.857766382370812e+17
14518.0	9.857033889120256e+17
14519.0	9.855330540322816e+17
14520.0	9.854396384935935e+17
14521.0	9.853032346943487e+17
14522.0	9.851670095724541e+17
14523.0	9.850296234672127e+17
14524.0	9.848915671121919e+17
14525.0	9.847546365083647e+17
14526.0	9.846164727791612e+17
14527.0	9.844707601416191e+17
14528.0	9.843284616675324e+17
14529.0	9.842044193210365e+17
14530.0	9.840682101374975e+17
14531.0	9.839322098302975e+17
14532.0	9.837953312358399e+17
14533.0	9.836568277680127e+17
14534.0	9.835200573865981e+17
14535.0	9.83383344886579e+17
14536.0	9.83247222944563e+17
14537.0	9.831078881656832e+17
14538.0	9.829734003245055e+17
14539.0	9.828365980663808e+17
14540.0	9.826993830887421e+17
14541.0	9.825586037915647e+17
14542.0	9.824257039138813e+17
14543.0	9.822868900675581e+17
14544.0	9.821482490265599e+17
14545.0	9.820127738462205e+17
14546.0	9.818458699071484e+17
14547.0	9.816983302307839e+17
14548.0	9.815961595019263e+17
14549.0	9.814576837165053e+17
14550.0	9.813288464416765e+17
14551.0	9.811945381167101e+17
14552.0	9.810558475829247e+17
14553.0	9.8091971641344e+17
14554.0	9.807852126339068e+17
14555.0	9.806481167745021e+17
14556.0	9.805074867945471e+17
14557.0	9.803686259720191e+17
14558.0	9.802028335235072e+17
14559.0	9.798245190467583e+17
14560.0	9.799287449845757e+17
14561.0	9.798221064830973e+17
14562.0	9.796888937103359e+17
14563.0	9.795567773286396e+17
14564.0	9.79364547343155e+17
14565.0	9.792862690476031e+17
14566.0	9.791501991149567e+17
14567.0	9.790137634390016e+17
14568.0	9.788762473103361e+17
14569.0	9.787289450315775e+17
14570.0	9.785324251119613e+17
14571.0	9.784613165596671e+17
14572.0	9.783283478953983e+17
14573.0	9.781930471981053e+17
14574.0	9.780605667508221e+17
14575.0	9.779269387419647e+17
14576.0	9.777905701748735e+17
14577.0	9.776551503593471e+17
14578.0	9.775195627716605e+17
14579.0	9.773838820704253e+17
14580.0	9.772486962970623e+17
14581.0	9.771129124159485e+17
14582.0	9.769768986869759e+17
14583.0	9.768416256720895e+17
14584.0	9.767055867772927e+17
14585.0	9.765704748236799e+17
14586.0	9.764349946101757e+17
14587.0	9.762994355437565e+17
14588.0	9.761632875970557e+17
14589.0	9.760286923816957e+17
14590.0	9.758920377630719e+17
14591.0	9.757563050524672e+17
14592.0	9.756199037698047e+17
14593.0	9.754789298569213e+17
14594.0	9.753495364173821e+17
14595.0	9.75215311139635e+17
14596.0	9.750741770043391e+17
14597.0	9.7494151200768e+17
14598.0	9.748097815019517e+17
14599.0	9.746756568875004e+17
14600.0	9.74540754649088e+17
14601.0	9.744048306782205e+17
14602.0	9.742696784592893e+17
14603.0	9.741341923737599e+17
14604.0	9.739871895683071e+17
14605.0	9.738001127047167e+17
14606.0	9.737121967374335e+17
14607.0	9.735951555231741e+17
14608.0	9.734248273543167e+17
14609.0	9.732604383199231e+17
14610.0	9.731269076189181e+17
14611.0	9.729674888347645e+17
14612.0	9.729215427510271e+17
14613.0	9.727869324361727e+17
14614.0	9.726073214337021e+17
14615.0	9.724856891342847e+17
14616.0	9.723827290374141e+17
14617.0	9.721491104989183e+17
14618.0	9.72043820885606e+17
14619.0	9.719703383572477e+17
14620.0	9.718379627675645e+17
14621.0	9.717085189963775e+17
14622.0	9.715741704060927e+17
14623.0	9.71440119611392e+17
14624.0	9.713028912119805e+17
14625.0	9.711711531565056e+17
14626.0	9.709968856973311e+17
14627.0	9.708625354293245e+17
14628.0	9.707682499919868e+17
14629.0	9.70635202474803e+17
14630.0	9.704643609231357e+17
14631.0	9.703295870304255e+17
14632.0	9.701623945232383e+17
14633.0	9.700798455873535e+17
14634.0	9.699640827969532e+17
14635.0	9.698286654980093e+17
14636.0	9.696915142737919e+17
14637.0	9.695611200733181e+17
14638.0	9.694265701564413e+17
14639.0	9.692927643090941e+17
14640.0	9.691587210641405e+17
14641.0	9.690229506048e+17
14642.0	9.688905842425856e+17
14643.0	9.687575895736317e+17
14644.0	9.686236344090623e+17
14645.0	9.684439739138045e+17
14646.0	9.683117040205823e+17
14647.0	9.682221321420796e+17
14648.0	9.680884152139773e+17
14649.0	9.679545623904256e+17
14650.0	9.678204201598975e+17
14651.0	9.676108114952191e+17
14652.0	9.675437118586877e+17
