# Flux units: erg / (cm m2 s)
# Wavelength units: Angstrom
wave	flux
14000.0	1.5213496807456765e+18
14001.0	1.5210092408340477e+18
14002.0	1.5206757097799677e+18
14003.0	1.520338885358387e+18
14004.0	1.520002166633267e+18
14005.0	1.5196655032729595e+18
14006.0	1.5193286788513792e+18
14007.0	1.5189922906374141e+18
14008.0	1.5186527936053243e+18
14009.0	1.5183197474127872e+18
14010.0	1.517983532004147e+18
14011.0	1.5176266722312187e+18
14012.0	1.5173113612337147e+18
14013.0	1.516975409227366e+18
14014.0	1.5166395360739323e+18
14015.0	1.5163036914417664e+18
14016.0	1.5159680984678397e+18
14017.0	1.5156325541478397e+18
14018.0	1.5152969628516347e+18
14019.0	1.5149615443607555e+18
14020.0	1.514626184590131e+18
14021.0	1.5142909187719163e+18
14022.0	1.5139557754273792e+18
14023.0	1.51362046263296e+18
14024.0	1.5132853763309563e+18
14025.0	1.5129508470325248e+18
14026.0	1.512615975478886e+18
14027.0	1.5122813304176637e+18
14028.0	1.511946695422771e+18
14029.0	1.5116121241812992e+18
14030.0	1.5112662299967488e+18
14031.0	1.5109433155649536e+18
14032.0	1.5106090496688125e+18
14033.0	1.5102734214627323e+18
14034.0	1.5099407510798336e+18
14035.0	1.5096044316524544e+18
14036.0	1.509269462790963e+18
14037.0	1.5089356096143357e+18
14038.0	1.5086018487123965e+18
14039.0	1.5082681716965373e+18
14040.0	1.507934586955366e+18
14041.0	1.5076010793893885e+18
14042.0	1.507267357075046e+18
14043.0	1.5069329166958592e+18
14044.0	1.5066007143972864e+18
14045.0	1.5062530837708797e+18
14046.0	1.5059045522079741e+18
14047.0	1.5055715563470843e+18
14048.0	1.5052387098034173e+18
14049.0	1.504905938757222e+18
14050.0	1.5045732599857147e+18
14051.0	1.5042403647881216e+18
14052.0	1.5039081322905597e+18
14053.0	1.5035727439986685e+18
14054.0	1.5032400400613373e+18
14055.0	1.5029077756870653e+18
14056.0	1.5025755968765947e+18
14057.0	1.5022435053076475e+18
14058.0	1.5019115009802237e+18
14059.0	1.5015795855720448e+18
14060.0	1.5012477557276672e+18
14061.0	1.500915800054169e+18
14062.0	1.5005843560857597e+18
14063.0	1.500252262839091e+18
14064.0	1.4999192468455421e+18
14065.0	1.499589604750131e+18
14066.0	1.4992585835675648e+18
14067.0	1.4989273728024573e+18
14068.0	1.4985962358571005e+18
14069.0	1.4982651358216187e+18
14070.0	1.4979342203355139e+18
14071.0	1.4976032545177597e+18
14072.0	1.4972716629098493e+18
14073.0	1.4969385647079421e+18
14074.0	1.496607941145395e+18
14075.0	1.4962773880471547e+18
14076.0	1.4959469490339837e+18
14077.0	1.4956141964427264e+18
14078.0	1.495286106239795e+18
14079.0	1.494955900429926e+18
14080.0	1.494626004998553e+18
14081.0	1.494295973671731e+18
14082.0	1.493965563179827e+18
14083.0	1.493636149254553e+18
14084.0	1.4933064350171136e+18
14085.0	1.492968417735475e+18
14086.0	1.4926469612437496e+18
14087.0	1.4923176681144315e+18
14088.0	1.4919882189570048e+18
14089.0	1.4916588822069245e+18
14090.0	1.491329627665203e+18
14091.0	1.491000509018931e+18
14092.0	1.4906714339934205e+18
14093.0	1.4903424462094336e+18
14094.0	1.490013547344691e+18
14095.0	1.4896824808636413e+18
14096.0	1.4893521760681981e+18
14097.0	1.4890240774766587e+18
14098.0	1.4886952339767293e+18
14099.0	1.4883670213001213e+18
14100.0	1.4880382331650045e+18
14101.0	1.4877103258337277e+18
14102.0	1.4873820846358525e+18
14103.0	1.4870534776946683e+18
14104.0	1.486725907585433e+18
14105.0	1.486397859325542e+18
14106.0	1.4860700526575616e+18
14107.0	1.4857420211748864e+18
14108.0	1.4854145416626176e+18
14109.0	1.4850867618381821e+18
14110.0	1.4847588310188032e+18
14111.0	1.4844307559153664e+18
14112.0	1.4841045044953085e+18
14113.0	1.4837772833521664e+18
14114.0	1.4834499951001595e+18
14115.0	1.483122914885632e+18
14116.0	1.482794286134067e+18
14117.0	1.4824491251138557e+18
14118.0	1.4821421037387773e+18
14119.0	1.4818150621118464e+18
14120.0	1.4814858109255677e+18
14121.0	1.4811585411284987e+18
14122.0	1.4808317494820864e+18
14123.0	1.480505335323033e+18
14124.0	1.4801788574105595e+18
14125.0	1.4798379997462523e+18
14126.0	1.4795270256590845e+18
14127.0	1.479200925233971e+18
14128.0	1.4788748533301245e+18
14129.0	1.4785486069432315e+18
14130.0	1.4782226239586301e+18
14131.0	1.4778973623943165e+18
14132.0	1.4775716864327675e+18
14133.0	1.4772282920534016e+18
14134.0	1.4769205710684157e+18
14135.0	1.4765946971357181e+18
14136.0	1.476268586644275e+18
14137.0	1.475944543105843e+18
14138.0	1.4756191188025341e+18
14139.0	1.4752942934458365e+18
14140.0	1.4749683389825021e+18
14141.0	1.4746443591974912e+18
14142.0	1.4743175558070267e+18
14143.0	1.4739937924481021e+18
14144.0	1.4736701314301947e+18
14145.0	1.473345551020851e+18
14146.0	1.4730209991327741e+18
14147.0	1.4726954204790784e+18
14148.0	1.4723690868506621e+18
14149.0	1.472044870506905e+18
14150.0	1.471720694428467e+18
14151.0	1.471396536804966e+18
14152.0	1.4710726224510973e+18
14153.0	1.4707486946754557e+18
14154.0	1.4704240605790205e+18
14155.0	1.4700931350265853e+18
14156.0	1.4697772166938621e+18
14157.0	1.4694538761207803e+18
14158.0	1.469130250335027e+18
14159.0	1.4688069181505536e+18
14160.0	1.4684836128096256e+18
14161.0	1.468158287491891e+18
14162.0	1.4678337825800192e+18
14163.0	1.4675141178949632e+18
14164.0	1.467190527341363e+18
14165.0	1.4668584106065915e+18
14166.0	1.4665453813104637e+18
14167.0	1.4662226984042493e+18
14168.0	1.4658998947020795e+18
14169.0	1.4655774668095485e+18
14170.0	1.465254817457766e+18
14171.0	1.464932471773593e+18
14172.0	1.4646102401744893e+18
14173.0	1.4642833428316157e+18
14174.0	1.4639657316777981e+18
14175.0	1.4636437685141501e+18
14176.0	1.463321776829235e+18
14177.0	1.462999867352678e+18
14178.0	1.4626779444543485e+18
14179.0	1.4623496361476093e+18
14180.0	1.4620055639687165e+18
14181.0	1.461683981647872e+18
14182.0	1.4613624681136125e+18
14183.0	1.4610410820861947e+18
14184.0	1.4607195903623165e+18
14185.0	1.4603985046470656e+18
14186.0	1.460073196106547e+18
14187.0	1.4597554742231037e+18
14188.0	1.459435230724096e+18
14189.0	1.4591142087622653e+18
14190.0	1.458793480401715e+18
14191.0	1.4584727302307835e+18
14192.0	1.4581518374535165e+18
14193.0	1.457830927899033e+18
14194.0	1.4575109595463677e+18
14195.0	1.4571906120286208e+18
14196.0	1.4568702661885947e+18
14197.0	1.456550005912371e+18
14198.0	1.456229656716902e+18
14199.0	1.4559096162222077e+18
14200.0	1.4555874936750075e+18
14201.0	1.455269820445491e+18
14202.0	1.4549500081209341e+18
14203.0	1.4546291472203773e+18
14204.0	1.454310469035622e+18
14205.0	1.4539908899143677e+18
14206.0	1.4536675610853373e+18
14207.0	1.453352038694912e+18
14208.0	1.4530327061987325e+18
14209.0	1.4527088539205632e+18
14210.0	1.4523916152209408e+18
14211.0	1.4520751499509757e+18
14212.0	1.4517561295110141e+18
14213.0	1.4514371510140925e+18
14214.0	1.4511183117680637e+18
14215.0	1.4507976907816957e+18
14216.0	1.4504777912156157e+18
14217.0	1.450159191883776e+18
14218.0	1.449840642883584e+18
14219.0	1.4495222046130173e+18
14220.0	1.4492038451953664e+18
14221.0	1.4488855478534141e+18
14222.0	1.448567354530201e+18
14223.0	1.4482492367044603e+18
14224.0	1.4479312010870781e+18
14225.0	1.4476065854455808e+18
14226.0	1.4472953731219456e+18
14227.0	1.4469775858073597e+18
14228.0	1.4466417713741821e+18
14229.0	1.4463404005654525e+18
14230.0	1.4460246936256507e+18
14231.0	1.4457072351444992e+18
14232.0	1.445389847127654e+18
14233.0	1.445072544674611e+18
14234.0	1.4447553227522048e+18
14235.0	1.4444381025075197e+18
14236.0	1.4441211104329725e+18
14237.0	1.4438041066143741e+18
14238.0	1.4434872487575547e+18
14239.0	1.4431702516498432e+18
14240.0	1.442801907872563e+18
14241.0	1.4425370610630653e+18
14242.0	1.4422204968075264e+18
14243.0	1.4418989513965565e+18
14244.0	1.441587603177472e+18
14245.0	1.4412707302211584e+18
14246.0	1.4409538874638336e+18
14247.0	1.4406388566458363e+18
14248.0	1.4403222454140925e+18
14249.0	1.440006717990502e+18
14250.0	1.4396907895914493e+18
14251.0	1.439375027286835e+18
14252.0	1.439059259949056e+18
14253.0	1.4387435731419136e+18
14254.0	1.4384279131783165e+18
14255.0	1.438111191216947e+18
14256.0	1.4377877701132285e+18
14257.0	1.4374785677000704e+18
14258.0	1.4371633355554813e+18
14259.0	1.4368481386430464e+18
14260.0	1.4365328393895936e+18
14261.0	1.4362182363906045e+18
14262.0	1.4359097117769725e+18
14263.0	1.4355855373762557e+18
14264.0	1.4352785881432064e+18
14265.0	1.4349653239660541e+18
14266.0	1.434650655535923e+18
14267.0	1.4343360894468093e+18
14268.0	1.434021635765043e+18
14269.0	1.4337071703392253e+18
14270.0	1.4333929280503808e+18
14271.0	1.4330785397997565e+18
14272.0	1.4327645290364925e+18
14273.0	1.4324504444534784e+18
14274.0	1.4321229850738685e+18
14275.0	1.4318213626068992e+18
14276.0	1.4315079122026493e+18
14277.0	1.4311946715135997e+18
14278.0	1.430881279829606e+18
14279.0	1.430567676752691e+18
14280.0	1.4302538975150077e+18
14281.0	1.4299407356788736e+18
14282.0	1.429627392648806e+18
14283.0	1.4293141184053245e+18
14284.0	1.4290009381142525e+18
14285.0	1.4286877997662208e+18
14286.0	1.4283747369156608e+18
14287.0	1.4280618200268797e+18
14288.0	1.4277489350148093e+18
14289.0	1.4274031515598845e+18
14290.0	1.427123225388646e+18
14291.0	1.4268107665178621e+18
14292.0	1.4264982438936573e+18
14293.0	1.4261856977813501e+18
14294.0	1.425868873478963e+18
14295.0	1.4255610467975165e+18
14296.0	1.4252221285793792e+18
14297.0	1.4249366491496448e+18
14298.0	1.424619058128486e+18
14299.0	1.4243124394065915e+18
14300.0	1.424000666723942e+18
14301.0	1.4236887346577408e+18
14302.0	1.4233769519087613e+18
14303.0	1.423064259834675e+18
14304.0	1.4227526297583613e+18
14305.0	1.422439090434867e+18
14306.0	1.4221254303154173e+18
14307.0	1.4218158772584448e+18
14308.0	1.4215050961092603e+18
14309.0	1.4211938032549885e+18
14310.0	1.4208727963926525e+18
14311.0	1.4205680399417341e+18
14312.0	1.4202601444737021e+18
14313.0	1.4199463534919677e+18
14314.0	1.4196389210750973e+18
14315.0	1.4193282439446525e+18
14316.0	1.4190159192915963e+18
14317.0	1.4187061967847421e+18
14318.0	1.418396494410547e+18
14319.0	1.4180861293363195e+18
14320.0	1.4177757273522173e+18
14321.0	1.4174654881071101e+18
14322.0	1.4171537976328192e+18
14323.0	1.416844769702707e+18
14324.0	1.4165351612809213e+18
14325.0	1.416225203893043e+18
14326.0	1.415915335424409e+18
14327.0	1.4156055323869181e+18
14328.0	1.4152956068757501e+18
14329.0	1.4149861796478973e+18
14330.0	1.4146766215577597e+18
14331.0	1.4143671205101565e+18
14332.0	1.4140577251590141e+18
14333.0	1.413748403627622e+18
14334.0	1.4134391575937021e+18
14335.0	1.413129136452403e+18
14336.0	1.4128202142187517e+18
14337.0	1.4125118640881664e+18
14338.0	1.4122028831342587e+18
14339.0	1.411894022976307e+18
14340.0	1.4115853071024123e+18
14341.0	1.4112765559963645e+18
14342.0	1.4109679844065277e+18
14343.0	1.4106589984194557e+18
14344.0	1.4103507556630525e+18
14345.0	1.4100425884041213e+18
14346.0	1.409734213107712e+18
14347.0	1.4094254603239421e+18
14348.0	1.4091178853007357e+18
14349.0	1.408809808638771e+18
14350.0	1.4085012823474173e+18
14351.0	1.4081933516472317e+18
14352.0	1.4078860366708736e+18
14353.0	1.4075782703874045e+18
14354.0	1.4072704898433021e+18
14355.0	1.4069627822800893e+18
14356.0	1.4066553112756221e+18
14357.0	1.4063479728111613e+18
14358.0	1.4060405932425213e+18
14359.0	1.405723295822643e+18
14360.0	1.4053917201530877e+18
14361.0	1.4050837760311293e+18
14362.0	1.4047767303290877e+18
14363.0	1.4044697383141373e+18
14364.0	1.4041610442506237e+18
14365.0	1.4038558381703165e+18
14366.0	1.4035489719844861e+18
14367.0	1.4032426057596925e+18
14368.0	1.4029359971041277e+18
14369.0	1.4026294907895808e+18
14370.0	1.4023230532616187e+18
14371.0	1.4020166945865725e+18
14372.0	1.4017103921152e+18
14373.0	1.4014041970180093e+18
14374.0	1.401098056446771e+18
14375.0	1.400792000600473e+18
14376.0	1.4004860185739261e+18
14377.0	1.400180095267635e+18
14378.0	1.3998742013214717e+18
14379.0	1.399568540578611e+18
14380.0	1.399262859703091e+18
14381.0	1.3989571586949117e+18
14382.0	1.398651690890035e+18
14383.0	1.398345619944243e+18
14384.0	1.3980408483938301e+18
14385.0	1.397735633924915e+18
14386.0	1.3974304169394173e+18
14387.0	1.3971252637073405e+18
14388.0	1.396820134802227e+18
14389.0	1.3965152122568701e+18
14390.0	1.3962102251192317e+18
14391.0	1.395905457763123e+18
14392.0	1.3956003657678845e+18
14393.0	1.3952960279085053e+18
14394.0	1.3949902010712061e+18
14395.0	1.3946863841443837e+18
14396.0	1.394382417900339e+18
14397.0	1.3940780473253885e+18
14398.0	1.3937735920254973e+18
14399.0	1.3934695075020797e+18
14400.0	1.3931646218665981e+18
14401.0	1.3928610800861181e+18
14402.0	1.3925171907788795e+18
14403.0	1.392033580816793e+18
14404.0	1.3914034445221885e+18
14405.0	1.39154210989015e+18
14406.0	1.3912840335261693e+18
14407.0	1.3907174342262781e+18
14408.0	1.3906766253260797e+18
14409.0	1.3903727983329275e+18
14410.0	1.390069910025011e+18
14411.0	1.3897667465707517e+18
14412.0	1.3894634329604093e+18
14413.0	1.389160404562739e+18
14414.0	1.3888572436250621e+18
14415.0	1.3885542789808125e+18
14416.0	1.3882513948671997e+18
14417.0	1.3879482112802813e+18
14418.0	1.387644465656627e+18
14419.0	1.3873429992177664e+18
14420.0	1.387040250999603e+18
14421.0	1.3867378433589245e+18
14422.0	1.3864353786757117e+18
14423.0	1.386132797390848e+18
14424.0	1.384740798490213e+18
14425.0	1.3855253455699965e+18
14426.0	1.3852232986394621e+18
14427.0	1.3849211946663933e+18
14428.0	1.3846182761594877e+18
14429.0	1.3843171234545664e+18
14430.0	1.3840152996610045e+18
14431.0	1.383710544887808e+18
14432.0	1.3834109918904317e+18
14433.0	1.3829136036397053e+18
14434.0	1.3828081168941053e+18
14435.0	1.3825062545129472e+18
14436.0	1.3822055036223485e+18
14437.0	1.3819041252638717e+18
14438.0	1.3815977590390781e+18
14439.0	1.3813005456244733e+18
14440.0	1.381000407102259e+18
14441.0	1.3806991201796093e+18
14442.0	1.3803978332569597e+18
14443.0	1.380095607649075e+18
14444.0	1.3797963952291837e+18
14445.0	1.3794957609402365e+18
14446.0	1.3789774917664765e+18
14447.0	1.3788941282967547e+18
14448.0	1.3785938555568128e+18
14449.0	1.3782933663907837e+18
14450.0	1.3779929434947581e+18
14451.0	1.377692619584307e+18
14452.0	1.3773922730246141e+18
14453.0	1.3770888226799613e+18
14454.0	1.3767920035299323e+18
14455.0	1.3764917752496125e+18
14456.0	1.3761912877613053e+18
14457.0	1.375890976433766e+18
14458.0	1.3755920475488253e+18
14459.0	1.3752921036423165e+18
14460.0	1.3749927192559613e+18
14461.0	1.374692542985011e+18
14462.0	1.3743904188792832e+18
14463.0	1.3740939872829437e+18
14464.0	1.3737947085930493e+18
14465.0	1.3734945910423547e+18
14466.0	1.373196103398195e+18
14467.0	1.3728945337794557e+18
14468.0	1.372597618160435e+18
14469.0	1.3722980509024256e+18
14470.0	1.3719986866487293e+18
14471.0	1.3717002996678653e+18
14472.0	1.371401931141939e+18
14473.0	1.3711033201852413e+18
14474.0	1.3708046362476541e+18
14475.0	1.3705059128836093e+18
14476.0	1.3701946795884541e+18
14477.0	1.36990899044352e+18
14478.0	1.369610560680755e+18
14479.0	1.3693120680034301e+18
14480.0	1.369013736387379e+18
14481.0	1.3687158342680573e+18
14482.0	1.3684176091873277e+18
14483.0	1.3681192985427965e+18
14484.0	1.3678215490961408e+18
14485.0	1.3675223442259965e+18
14486.0	1.3672158689492987e+18
14487.0	1.3669282034483197e+18
14488.0	1.3666305127219197e+18
14489.0	1.3663326139580413e+18
14490.0	1.3660351312691197e+18
14491.0	1.3657378096414717e+18
14492.0	1.3654404192272381e+18
14493.0	1.3651430556565501e+18
14494.0	1.3648451283714045e+18
14495.0	1.3645486481211387e+18
14496.0	1.3642469543510013e+18
14497.0	1.363954453656371e+18
14498.0	1.3636574298243072e+18
14499.0	1.363360556148326e+18
14500.0	1.3630636900220923e+18
14501.0	1.3627617882144763e+18
14502.0	1.3624553104211965e+18
14503.0	1.3621701078155264e+18
14504.0	1.3618739807256573e+18
14505.0	1.361572957205299e+18
14506.0	1.3612696981209085e+18
14507.0	1.3609765238210557e+18
14508.0	1.3606885018042365e+18
14509.0	1.360392260629299e+18
14510.0	1.3600960899186685e+18
14511.0	1.3597999854780413e+18
14512.0	1.359503411275366e+18
14513.0	1.3592079846342656e+18
14514.0	1.3589101513015293e+18
14515.0	1.3586161297522685e+18
14516.0	1.3582382615494653e+18
14517.0	1.358024789930803e+18
14518.0	1.3577291619631101e+18
14519.0	1.3574336103317504e+18
14520.0	1.3571381174206464e+18
14521.0	1.356842503713587e+18
14522.0	1.3565473287307261e+18
14523.0	1.356240391241728e+18
14524.0	1.3559443413270525e+18
14525.0	1.3556614657212413e+18
14526.0	1.355366565884723e+18
14527.0	1.3550709580496893e+18
14528.0	1.3547715023601661e+18
14529.0	1.3544813513146365e+18
14530.0	1.3541863038386176e+18
14531.0	1.3538920474083325e+18
14532.0	1.3535785491890173e+18
14533.0	1.3533027602792445e+18
14534.0	1.3530082287026173e+18
14535.0	1.352713672799027e+18
14536.0	1.3524192846675965e+18
14537.0	1.3521245173710845e+18
14538.0	1.3518306216509437e+18
14539.0	1.3515364021305344e+18
14540.0	1.3512422346194944e+18
14541.0	1.3509479874166781e+18
14542.0	1.350654126928691e+18
14543.0	1.350352770380595e+18
14544.0	1.3500662331473917e+18
14545.0	1.3497722510245885e+18
14546.0	1.347976373364325e+18
14547.0	1.3478702163689454e+18
14548.0	1.3488908994084861e+18
14549.0	1.3485937522638845e+18
14550.0	1.348304108729139e+18
14551.0	1.3480106609606653e+18
14552.0	1.3477171813154813e+18
14553.0	1.347423560741683e+18
14554.0	1.347130647327539e+18
14555.0	1.3468374017245181e+18
14556.0	1.3465439489228797e+18
14557.0	1.3462511890202621e+18
14558.0	1.3459581556490237e+18
14559.0	1.3456044340543483e+18
14560.0	1.3453717567176701e+18
14561.0	1.345079209046835e+18
14562.0	1.3447858401312765e+18
14563.0	1.3444939459330045e+18
14564.0	1.3442009947701248e+18
14565.0	1.3439086853357565e+18
14566.0	1.3436161485701117e+18
14567.0	1.3433236604583933e+18
14568.0	1.3430305524285437e+18
14569.0	1.3427388880781312e+18
14570.0	1.3424296177172477e+18
14571.0	1.3421542322995197e+18
14572.0	1.3418606587019261e+18
14573.0	1.3415689087877117e+18
14574.0	1.3412771890724861e+18
14575.0	1.3409859064037373e+18
14576.0	1.340693959357235e+18
14577.0	1.3404021398175741e+18
14578.0	1.3401102280032253e+18
14579.0	1.3398185267429373e+18
14580.0	1.3395268212883453e+18
14581.0	1.3392348624977917e+18
14582.0	1.338943550468915e+18
14583.0	1.3386520052367357e+18
14584.0	1.3383601353654267e+18
14585.0	1.3380690808668157e+18
14586.0	1.3377775809331197e+18
14587.0	1.3374861380419581e+18
14588.0	1.3371962101334013e+18
14589.0	1.33691502231552e+18
14590.0	1.3366025517006845e+18
14591.0	1.3363205426380797e+18
14592.0	1.3360399252455421e+18
14593.0	1.3357550640562173e+18
14594.0	1.3354796610224125e+18
14595.0	1.3352001265991677e+18
14596.0	1.3349187374546941e+18
14597.0	1.3346400192430077e+18
14598.0	1.3343625173794816e+18
14599.0	1.3340835525427195e+18
14600.0	1.3338044300001277e+18
14601.0	1.3335254299312125e+18
14602.0	1.3332461094174717e+18
14603.0	1.332967459992371e+18
14604.0	1.332687067414528e+18
14605.0	1.3324092090351613e+18
14606.0	1.3321281990557693e+18
14607.0	1.3318519647109117e+18
14608.0	1.331573256565555e+18
14609.0	1.331293618123571e+18
14610.0	1.3310150433570813e+18
14611.0	1.3307371531010045e+18
14612.0	1.3304586840309757e+18
14613.0	1.3301801377857536e+18
14614.0	1.3299014715834365e+18
14615.0	1.3296230251626493e+18
14616.0	1.3293446819217405e+18
14617.0	1.3290662573113344e+18
14618.0	1.3287877781749757e+18
14619.0	1.328508835148595e+18
14620.0	1.3282270710333437e+18
14621.0	1.3279531997593595e+18
14622.0	1.3276749706035197e+18
14623.0	1.327396761580339e+18
14624.0	1.3271166290493437e+18
14625.0	1.3268404517470208e+18
14626.0	1.3265620581744637e+18
14627.0	1.3262835396116477e+18
14628.0	1.3260062248140797e+18
14629.0	1.3257282078900221e+18
14630.0	1.325450173349888e+18
14631.0	1.325172170686464e+18
14632.0	1.324805499597619e+18
14633.0	1.3246090526588923e+18
14634.0	1.3243382927196157e+18
14635.0	1.3240539566571517e+18
14636.0	1.3237554077761536e+18
14637.0	1.3235050329931773e+18
14638.0	1.323227178808115e+18
14639.0	1.3229491618840573e+18
14640.0	1.322671655826227e+18
14641.0	1.3220571324088315e+18
14642.0	1.3221161848537085e+18
14643.0	1.321838658663219e+18
14644.0	1.321560962183987e+18
14645.0	1.3212825644171261e+18
14646.0	1.321005502116659e+18
14647.0	1.3207277234290685e+18
