# Flux units: erg / (cm m2 s)
# Wavelength units: Angstrom
wave	flux
14000.0	2.52951674266583e+18
14001.0	2.5289664617250816e+18
14002.0	2.5284390649069563e+18
14003.0	2.5278877471342587e+18
14004.0	2.5273361424711675e+18
14005.0	2.526784430433894e+18
14006.0	2.5262294032187387e+18
14007.0	2.525675414513254e+18
14008.0	2.5250808735989755e+18
14009.0	2.524572265585049e+18
14010.0	2.5240164062199803e+18
14011.0	2.5231903917342715e+18
14012.0	2.5229213019668475e+18
14013.0	2.5223759786934267e+18
14014.0	2.521822577190502e+18
14015.0	2.5212750275805184e+18
14016.0	2.5207260535848955e+18
14017.0	2.5201763598467067e+18
14018.0	2.5196265352462336e+18
14019.0	2.5190769807589376e+18
14020.0	2.5185270420733947e+18
14021.0	2.517977323169382e+18
14022.0	2.517428568955289e+18
14023.0	2.5168721324539894e+18
14024.0	2.5163234604482555e+18
14025.0	2.5157818835271675e+18
14026.0	2.5152324464803835e+18
14027.0	2.5146846921883643e+18
14028.0	2.514136305395302e+18
14029.0	2.5135869488791547e+18
14030.0	2.512929392741581e+18
14031.0	2.5124692926922747e+18
14032.0	2.5119428186210304e+18
14033.0	2.511371017545318e+18
14034.0	2.5108492276727803e+18
14035.0	2.510302072327373e+18
14036.0	2.5097549337591803e+18
14037.0	2.5092079109537787e+18
14038.0	2.5086609904893947e+18
14039.0	2.5081142092759035e+18
14040.0	2.5075641397280763e+18
14041.0	2.5070194657329147e+18
14042.0	2.506468522092134e+18
14043.0	2.5059094448570363e+18
14044.0	2.505377407460966e+18
14045.0	2.5048344665522176e+18
14046.0	2.50428674581463e+18
14047.0	2.5037409712340987e+18
14048.0	2.5031989329395707e+18
14049.0	2.502653990508953e+18
14050.0	2.5021086957567995e+18
14051.0	2.5015593476292603e+18
14052.0	2.501018195171737e+18
14053.0	2.500473853365453e+18
14054.0	2.4999292481568763e+18
14055.0	2.4993847167680507e+18
14056.0	2.498840302819737e+18
14057.0	2.498296049932697e+18
14058.0	2.497751922874777e+18
14059.0	2.4972079367454715e+18
14060.0	2.4966640462462976e+18
14061.0	2.4961172449001467e+18
14062.0	2.495576419598335e+18
14063.0	2.495024975996518e+18
14064.0	2.49447341663191e+18
14065.0	2.49394275328983e+18
14066.0	2.4934038758227963e+18
14067.0	2.492861097653043e+18
14068.0	2.4923183345827835e+18
14069.0	2.4917753651527675e+18
14070.0	2.4912332580716534e+18
14071.0	2.4906896863395835e+18
14072.0	2.4901488425828347e+18
14073.0	2.4896068227432443e+18
14074.0	2.4890649471877115e+18
14075.0	2.488512101010637e+18
14076.0	2.4879811692331003e+18
14077.0	2.4874141899292667e+18
14078.0	2.4868959450824704e+18
14079.0	2.4863540242284534e+18
14080.0	2.485816243991347e+18
14081.0	2.485275371713331e+18
14082.0	2.484733024718028e+18
14083.0	2.4841926255575035e+18
14084.0	2.4836504278794235e+18
14085.0	2.48298338254848e+18
14086.0	2.482564520896102e+18
14087.0	2.4820320070270966e+18
14088.0	2.4814862039252987e+18
14089.0	2.4809531380858875e+18
14090.0	2.480413483833753e+18
14091.0	2.4798741617704955e+18
14092.0	2.479334829640909e+18
14093.0	2.4787955662979067e+18
14094.0	2.4782563566419963e+18
14095.0	2.477717007735193e+18
14096.0	2.4771738822770683e+18
14097.0	2.476629654555853e+18
14098.0	2.4760994290991104e+18
14099.0	2.4755625212772347e+18
14100.0	2.475019063630233e+18
14101.0	2.4744866319695867e+18
14102.0	2.4739485396762624e+18
14103.0	2.4734045350920187e+18
14104.0	2.472873141941042e+18
14105.0	2.4723353919029243e+18
14106.0	2.47179808646103e+18
14107.0	2.471260203882905e+18
14108.0	2.470715779868262e+18
14109.0	2.4701839890972667e+18
14110.0	2.4696467272761344e+18
14111.0	2.469107561240985e+18
14112.0	2.468570331296563e+18
14113.0	2.468039339121049e+18
14114.0	2.4674942624727035e+18
14115.0	2.466964981573222e+18
14116.0	2.4664156133130235e+18
14117.0	2.465695927789158e+18
14118.0	2.4653546725048315e+18
14119.0	2.464816402373017e+18
14120.0	2.4642851216293883e+18
14121.0	2.463744024536678e+18
14122.0	2.463215194944306e+18
14123.0	2.4626782166581243e+18
14124.0	2.4621357522223094e+18
14125.0	2.4613687163617275e+18
14126.0	2.4610710231187456e+18
14127.0	2.4605418177167355e+18
14128.0	2.4600075976048635e+18
14129.0	2.4594666246635515e+18
14130.0	2.45892568359895e+18
14131.0	2.458404826539622e+18
14132.0	2.4578599528955894e+18
14133.0	2.4570536382169083e+18
14134.0	2.4567955694026747e+18
14135.0	2.4562626629468155e+18
14136.0	2.4557349490393083e+18
14137.0	2.455203800835686e+18
14138.0	2.4546704011296763e+18
14139.0	2.454138145629798e+18
14140.0	2.453602283028479e+18
14141.0	2.453068987341209e+18
14142.0	2.452530594735718e+18
14143.0	2.4520049494589435e+18
14144.0	2.4514764503777275e+18
14145.0	2.4509446713507835e+18
14146.0	2.4504121709035515e+18
14147.0	2.4498808834490363e+18
14148.0	2.449349517141606e+18
14149.0	2.4488182078767104e+18
14150.0	2.4482867291619323e+18
14151.0	2.4477543327334395e+18
14152.0	2.447224454565069e+18
14153.0	2.446693381858918e+18
14154.0	2.4461461073952763e+18
14155.0	2.4456297248194555e+18
14156.0	2.445100710677709e+18
14157.0	2.4445704114012155e+18
14158.0	2.4440380787261435e+18
14159.0	2.4435095897112576e+18
14160.0	2.442971453797171e+18
14161.0	2.442419667940146e+18
14162.0	2.4418633304244224e+18
14163.0	2.4413863088750587e+18
14164.0	2.440848344088576e+18
14165.0	2.440295838488985e+18
14166.0	2.4397964176785403e+18
14167.0	2.439263387071282e+18
14168.0	2.438743704417075e+18
14169.0	2.4382155543019515e+18
14170.0	2.437685583858893e+18
14171.0	2.437156935460454e+18
14172.0	2.436629226586112e+18
14173.0	2.436080042875289e+18
14174.0	2.435567606300672e+18
14175.0	2.4350451973488635e+18
14176.0	2.434517610948198e+18
14177.0	2.4339898920075264e+18
14178.0	2.4334612889075707e+18
14179.0	2.4329305903333376e+18
14180.0	2.432407449894912e+18
14181.0	2.431878722643558e+18
14182.0	2.431349181697228e+18
14183.0	2.430822437512806e+18
14184.0	2.4302927455715323e+18
14185.0	2.4297672009580544e+18
14186.0	2.429194799258009e+18
14187.0	2.4286981735317494e+18
14188.0	2.428164082604441e+18
14189.0	2.427388815841689e+18
14190.0	2.4268624374005755e+18
14191.0	2.426335808978944e+18
14192.0	2.425805382195609e+18
14193.0	2.4252781749600256e+18
14194.0	2.424757379976397e+18
14195.0	2.4242323370016763e+18
14196.0	2.4237065558294523e+18
14197.0	2.4231809390739456e+18
14198.0	2.422653146313523e+18
14199.0	2.422128621754777e+18
14200.0	2.421584001446707e+18
14201.0	2.4210764822740987e+18
14202.0	2.4205543216250875e+18
14203.0	2.4200251917205504e+18
14204.0	2.419503358227251e+18
14205.0	2.418977798514278e+18
14206.0	2.418363269224857e+18
14207.0	2.4176356765990907e+18
14208.0	2.4171127693639675e+18
14209.0	2.416518941481369e+18
14210.0	2.4160103385006075e+18
14211.0	2.4155367428587515e+18
14212.0	2.4150162246991867e+18
14213.0	2.414492840991129e+18
14214.0	2.4139685563465723e+18
14215.0	2.413439839161548e+18
14216.0	2.412921743631974e+18
14217.0	2.4123982408056827e+18
14218.0	2.4118669701283835e+18
14219.0	2.411351459967795e+18
14220.0	2.4108283312734203e+18
14221.0	2.4103050398400507e+18
14222.0	2.409776320977305e+18
14223.0	2.4092592790568955e+18
14224.0	2.4087362040496123e+18
14225.0	2.408152712609792e+18
14226.0	2.407610592106905e+18
14227.0	2.406855978097049e+18
14228.0	2.4062060237160443e+18
14229.0	2.405780340447641e+18
14230.0	2.4052885616590843e+18
14231.0	2.404764568938086e+18
14232.0	2.4042442957258747e+18
14233.0	2.403719927195238e+18
14234.0	2.4032001304559616e+18
14235.0	2.4026769900175355e+18
14236.0	2.4021562369769467e+18
14237.0	2.4016336787079163e+18
14238.0	2.4011116036227067e+18
14239.0	2.4005821851500534e+18
14240.0	2.399354644909261e+18
14241.0	2.3995348103987195e+18
14242.0	2.3990209024622587e+18
14243.0	2.3984267876892667e+18
14244.0	2.3979850033266683e+18
14245.0	2.397458334639718e+18
14246.0	2.3969368366907387e+18
14247.0	2.396422351618048e+18
14248.0	2.3958987447730166e+18
14249.0	2.395240824569856e+18
14250.0	2.3945302339747835e+18
14251.0	2.3940109254524923e+18
14252.0	2.3934903888379904e+18
14253.0	2.392969387494605e+18
14254.0	2.3924480841613307e+18
14255.0	2.391912097408614e+18
14256.0	2.3913465861111803e+18
14257.0	2.390873935026585e+18
14258.0	2.3903689290809344e+18
14259.0	2.38983740171223e+18
14260.0	2.389328771887923e+18
14261.0	2.3887970801025024e+18
14262.0	2.3883132939796475e+18
14263.0	2.3877035176755195e+18
14264.0	2.387236097726873e+18
14265.0	2.386753985970175e+18
14266.0	2.386240739056025e+18
14267.0	2.385722680436326e+18
14268.0	2.3852043668029435e+18
14269.0	2.3846848183664635e+18
14270.0	2.384167566730854e+18
14271.0	2.383648840377958e+18
14272.0	2.3831300569825275e+18
14273.0	2.3826058058924027e+18
14274.0	2.3818537587965947e+18
14275.0	2.381196237891174e+18
14276.0	2.3806934465380347e+18
14277.0	2.380180144259071e+18
14278.0	2.3796696672632827e+18
14279.0	2.3791512311562235e+18
14280.0	2.3786312297349115e+18
14281.0	2.378117026519449e+18
14282.0	2.3775996624764923e+18
14283.0	2.3770822011256827e+18
14284.0	2.376564811916902e+18
14285.0	2.3760474696843254e+18
14286.0	2.375530046921113e+18
14287.0	2.375012354044722e+18
14288.0	2.374489703501005e+18
14289.0	2.3735182288748534e+18
14290.0	2.3734562605498363e+18
14291.0	2.3729447467220987e+18
14292.0	2.372429305348096e+18
14293.0	2.3719107618668544e+18
14294.0	2.371325773899366e+18
14295.0	2.370864482667725e+18
14296.0	2.3699962130857984e+18
14297.0	2.3698338901655547e+18
14298.0	2.3692571280670715e+18
14299.0	2.368807701682585e+18
14300.0	2.3682971894546427e+18
14301.0	2.367784048236953e+18
14302.0	2.3670612421509115e+18
14303.0	2.3663519803113467e+18
14304.0	2.365849710729625e+18
14305.0	2.365341718439526e+18
14306.0	2.364819460482662e+18
14307.0	2.364306701785497e+18
14308.0	2.3637951426592763e+18
14309.0	2.363277365896806e+18
14310.0	2.362729920305561e+18
14311.0	2.3622421680488443e+18
14312.0	2.3617216666664955e+18
14313.0	2.361194776520294e+18
14314.0	2.3607050177085435e+18
14315.0	2.3601892777000955e+18
14316.0	2.359650353256857e+18
14317.0	2.3591582590566395e+18
14318.0	2.3586484581826555e+18
14319.0	2.3581350384631803e+18
14320.0	2.3576208939679744e+18
14321.0	2.3571069390553083e+18
14322.0	2.356573500761702e+18
14323.0	2.3560668556820475e+18
14324.0	2.3555661681917947e+18
14325.0	2.3550460073869307e+18
14326.0	2.3545399327326203e+18
14327.0	2.3540222448893947e+18
14328.0	2.3535034363281403e+18
14329.0	2.352991355430502e+18
14330.0	2.3524785162027003e+18
14331.0	2.3519655847002107e+18
14332.0	2.3514530508177403e+18
14333.0	2.3509405035134976e+18
14334.0	2.350213778269798e+18
14335.0	2.349520172928205e+18
14336.0	2.349005147629158e+18
14337.0	2.348498869970534e+18
14338.0	2.3479851952373755e+18
14339.0	2.3474655209717755e+18
14340.0	2.3469605183815675e+18
14341.0	2.346447776461619e+18
14342.0	2.3459353583419387e+18
14343.0	2.345421425239654e+18
14344.0	2.344907144848998e+18
14345.0	2.3443984210722816e+18
14346.0	2.343885197646233e+18
14347.0	2.343370061617561e+18
14348.0	2.3428620206735355e+18
14349.0	2.3423505789878267e+18
14350.0	2.3418332971532283e+18
14351.0	2.341317995030118e+18
14352.0	2.340810784558285e+18
14353.0	2.3403039532515323e+18
14354.0	2.3397923857367035e+18
14355.0	2.3392803031613435e+18
14356.0	2.3387696164503547e+18
14357.0	2.338260300437913e+18
14358.0	2.3377495415848955e+18
14359.0	2.3372277919776763e+18
14360.0	2.336727676590489e+18
14361.0	2.3362174764187643e+18
14362.0	2.335707262825267e+18
14363.0	2.3351965123608576e+18
14364.0	2.3346698587734006e+18
14365.0	2.334169832305459e+18
14366.0	2.3336636905422843e+18
14367.0	2.333156976676045e+18
14368.0	2.332647068427878e+18
14369.0	2.3321376936951803e+18
14370.0	2.331628146157158e+18
14371.0	2.330757396902707e+18
14372.0	2.330199239059046e+18
14373.0	2.329692031942656e+18
14374.0	2.329182023031193e+18
14375.0	2.3286719436554235e+18
14376.0	2.3281619615875067e+18
14377.0	2.327651744638566e+18
14378.0	2.3271409018994683e+18
14379.0	2.326632490178969e+18
14380.0	2.3261221675335675e+18
14381.0	2.325605930919526e+18
14382.0	2.3251029650833403e+18
14383.0	2.324592585395405e+18
14384.0	2.324072874219929e+18
14385.0	2.323576459886592e+18
14386.0	2.3230574265106427e+18
14387.0	2.3225583932538875e+18
14388.0	2.322049001743974e+18
14389.0	2.32154050110423e+18
14390.0	2.321031245489766e+18
14391.0	2.320523575322214e+18
14392.0	2.3200145545887744e+18
14393.0	2.3195067401371643e+18
14394.0	2.318974454438297e+18
14395.0	2.3184834792783867e+18
14396.0	2.3179816844918784e+18
14397.0	2.3174734740979707e+18
14398.0	2.3169648023306235e+18
14399.0	2.3164566087139323e+18
14400.0	2.315939157429453e+18
14401.0	2.315433502205542e+18
14402.0	2.3149185138163707e+18
14403.0	2.3137359650357243e+18
14404.0	2.3116890238877686e+18
14405.0	2.312600635729509e+18
14406.0	2.3128797062627323e+18
14407.0	2.311560082594201e+18
14408.0	2.3118492026798075e+18
14409.0	2.311370161153638e+18
14410.0	2.310874000156262e+18
14411.0	2.310348531040255e+18
14412.0	2.3094420429602816e+18
14413.0	2.3089363625705467e+18
14414.0	2.308427553230029e+18
14415.0	2.307920648103526e+18
14416.0	2.3074138688061435e+18
14417.0	2.3069050745651195e+18
14418.0	2.3063943542996987e+18
14419.0	2.3058900546748416e+18
14420.0	2.305380116227686e+18
14421.0	2.3048731892908027e+18
14422.0	2.3043560953610232e+18
14423.0	2.3037960031043576e+18
14424.0	2.299903868508568e+18
14425.0	2.3027655901183995e+18
14426.0	2.3023318017769472e+18
14427.0	2.301834095597977e+18
14428.0	2.3013159178600445e+18
14429.0	2.300822513359257e+18
14430.0	2.3003182841987072e+18
14431.0	2.299782602791321e+18
14432.0	2.299290909566566e+18
14433.0	2.2981650711314427e+18
14434.0	2.2982764668125176e+18
14435.0	2.297782768710451e+18
14436.0	2.2972847789965304e+18
14437.0	2.296779242890854e+18
14438.0	2.296260395742003e+18
14439.0	2.2957621325594621e+18
14440.0	2.2952636747612155e+18
14441.0	2.2947566303838205e+18
14442.0	2.2942497084801021e+18
14443.0	2.2937244490792952e+18
14444.0	2.2932392234713085e+18
14445.0	2.2927291340292093e+18
14446.0	2.2912888385568768e+18
14447.0	2.291690095876505e+18
14448.0	2.291222776591155e+18
14449.0	2.290720951605657e+18
14450.0	2.2902133133148155e+18
14451.0	2.2897119228592123e+18
14452.0	2.2892059908112381e+18
14453.0	2.288696312410931e+18
14454.0	2.2881996933955581e+18
14455.0	2.287693729470873e+18
14456.0	2.2871901193895933e+18
14457.0	2.28668571910144e+18
14458.0	2.286183783386316e+18
14459.0	2.285679208615116e+18
14460.0	2.2851762075467773e+18
14461.0	2.2843684332503032e+18
14462.0	2.2837364304904187e+18
14463.0	2.283232015102771e+18
14464.0	2.282729269048115e+18
14465.0	2.2822155624382461e+18
14466.0	2.2817209264898043e+18
14467.0	2.2811997741514747e+18
14468.0	2.2807098173685755e+18
14469.0	2.2801969143873536e+18
14470.0	2.2796895126552568e+18
14471.0	2.279195735700275e+18
14472.0	2.2786928118071293e+18
14473.0	2.27819429864407e+18
14474.0	2.277690566089113e+18
14475.0	2.2771838622892024e+18
14476.0	2.2766440855633912e+18
14477.0	2.2761790999887872e+18
14478.0	2.275675949603225e+18
14479.0	2.275172426763468e+18
14480.0	2.2746581916712955e+18
14481.0	2.2741655991877627e+18
14482.0	2.273659353405849e+18
14483.0	2.2731531260788733e+18
14484.0	2.2726452260634621e+18
14485.0	2.2721259309629432e+18
14486.0	2.2714865713938427e+18
14487.0	2.2711428850909181e+18
14488.0	2.2706405651775483e+18
14489.0	2.2701384314912765e+18
14490.0	2.2696368061546493e+18
14491.0	2.2691349023162365e+18
14492.0	2.2686334011310077e+18
14493.0	2.2681274137182203e+18
14494.0	2.2676148093714427e+18
14495.0	2.2671213176291318e+18
14496.0	2.266550474532454e+18
14497.0	2.2661187195895803e+18
14498.0	2.2656186612449277e+18
14499.0	2.2651165141368827e+18
14500.0	2.2646132781875195e+18
14501.0	2.2640865323253755e+18
14502.0	2.2634959374123003e+18
14503.0	2.2630962537955323e+18
14504.0	2.2626004367310845e+18
14505.0	2.2620787777208315e+18
14506.0	2.2615586706030587e+18
14507.0	2.2609658644529147e+18
14508.0	2.260596327815577e+18
14509.0	2.2600976905011195e+18
14510.0	2.259596635589836e+18
14511.0	2.2590943509086203e+18
14512.0	2.2585854543265787e+18
14513.0	2.2580901607112701e+18
14514.0	2.257571875599155e+18
14515.0	2.2570794055892987e+18
14516.0	2.2554459187970053e+18
14517.0	2.2558207083806717e+18
14518.0	2.2551493647269883e+18
14519.0	2.2546494691213304e+18
14520.0	2.254147845462425e+18
14521.0	2.2536455926579195e+18
14522.0	2.2531419154677755e+18
14523.0	2.2525953087373312e+18
14524.0	2.252091963736064e+18
14525.0	2.2516331773427712e+18
14526.0	2.2511354862632963e+18
14527.0	2.250617316913971e+18
14528.0	2.2500709316427773e+18
14529.0	2.2496236141543421e+18
14530.0	2.249118423659315e+18
14531.0	2.2486237021470712e+18
14532.0	2.2480709650219005e+18
14533.0	2.247619941446451e+18
14534.0	2.2471230707728376e+18
14535.0	2.24661441913815e+18
14536.0	2.246117357204275e+18
14537.0	2.2456126834475005e+18
14538.0	2.2451177421537275e+18
14539.0	2.2446166469771261e+18
14540.0	2.244115103848857e+18
14541.0	2.24359737238487e+18
14542.0	2.243108194064793e+18
14543.0	2.2425742977531896e+18
14544.0	2.2421014705078267e+18
14545.0	2.241582240838451e+18
14546.0	2.2375421882400753e+18
14547.0	2.2372990175936486e+18
14548.0	2.2400724105166845e+18
14549.0	2.239532190872371e+18
14550.0	2.2390957030768632e+18
14551.0	2.23860325655511e+18
14552.0	2.2381029079646205e+18
14553.0	2.2376004672552957e+18
14554.0	2.2371030529998845e+18
14555.0	2.2366020970741755e+18
14556.0	2.2361005254246395e+18
14557.0	2.23559959969792e+18
14558.0	2.2350891948441592e+18
14559.0	2.2337553860394993e+18
14560.0	2.2340868887281661e+18
14561.0	2.233594326443622e+18
14562.0	2.2330837840166904e+18
14563.0	2.2325980584476672e+18
14564.0	2.2320972803604477e+18
14565.0	2.2315985407049723e+18
14566.0	2.2310984102182912e+18
14567.0	2.2305977831260155e+18
14568.0	2.2300928677773304e+18
14569.0	2.2295930912899067e+18
14570.0	2.2288622958936061e+18
14571.0	2.2285925870469117e+18
14572.0	2.2280764443852795e+18
14573.0	2.2275678850252795e+18
14574.0	2.2270942474403837e+18
14575.0	2.2265960597553147e+18
14576.0	2.226096412452454e+18
14577.0	2.225592715129651e+18
14578.0	2.225096918197862e+18
14579.0	2.224598044324659e+18
14580.0	2.224098200728371e+18
14581.0	2.223596234814259e+18
14582.0	2.2227660075696118e+18
14583.0	2.2221656567054333e+18
14584.0	2.2216593136156672e+18
14585.0	2.2211631928836093e+18
14586.0	2.2206606246674427e+18
14587.0	2.2201607911374843e+18
14588.0	2.2196605968973821e+18
14589.0	2.2191652730830845e+18
14590.0	2.2186705498931195e+18
14591.0	2.2181753569411064e+18
14592.0	2.2176745872424957e+18
14593.0	2.217121637046681e+18
14594.0	2.2166886892437496e+18
14595.0	2.2161927077625848e+18
14596.0	2.215684351406899e+18
14597.0	2.2151885494419453e+18
14598.0	2.2147096387780603e+18
14599.0	2.2142176418856955e+18
14600.0	2.2137230277476352e+18
14601.0	2.2132283481784315e+18
14602.0	2.2127329622884347e+18
14603.0	2.2122380310609917e+18
14604.0	2.2117220494606333e+18
14605.0	2.211246445586022e+18
14606.0	2.2107208506408955e+18
14607.0	2.2102557744693245e+18
14608.0	2.2097641517088765e+18
14609.0	2.209267819583897e+18
14610.0	2.2087746147319805e+18
14611.0	2.2082790224822272e+18
14612.0	2.2077859182936061e+18
14613.0	2.207291367908966e+18
14614.0	2.206794893177651e+18
14615.0	2.206301428278886e+18
14616.0	2.2058068913160187e+18
14617.0	2.205311661454131e+18
14618.0	2.2048159265980408e+18
14619.0	2.2043025488216061e+18
14620.0	2.2037863776387064e+18
14621.0	2.2033310188306427e+18
14622.0	2.2028368543219704e+18
14623.0	2.202341059067904e+18
14624.0	2.2018151436779517e+18
14625.0	2.201347624743731e+18
14626.0	2.2008554181361661e+18
14627.0	2.2003588091871227e+18
14628.0	2.1998668240388093e+18
14629.0	2.1993717602713595e+18
14630.0	2.1988760774246395e+18
14631.0	2.1983787856429053e+18
14632.0	2.1976232002322427e+18
14633.0	2.197336561496883e+18
14634.0	2.1968933460377595e+18
14635.0	2.196397851095859e+18
14636.0	2.1958981601722365e+18
14637.0	2.1954099247316987e+18
14638.0	2.194913025536819e+18
14639.0	2.1944112441720827e+18
14640.0	2.1939008074416123e+18
14641.0	2.192363870171954e+18
14642.0	2.1929082505658365e+18
14643.0	2.192433975446732e+18
14644.0	2.191933121862041e+18
14645.0	2.1914338168143872e+18
14646.0	2.1909464470781952e+18
14647.0	2.190450594781593e+18
14648.0	2.1899587337846784e+18
14649.0	2.1894639485190136e+18
14650.0	2.1889667288793083e+18
