# Flux units: erg / (cm m2 s)
# Wavelength units: Angstrom
wave	flux
14000.0	1.8629908259405821e+18
14001.0	1.8626118974177275e+18
14002.0	1.86225053967319e+18
14003.0	1.861880461131776e+18
14004.0	1.8615102215290875e+18
14005.0	1.861140050712985e+18
14006.0	1.8607692809502715e+18
14007.0	1.8603995329200123e+18
14008.0	1.8600213576941565e+18
14009.0	1.8596600637030397e+18
14010.0	1.8592904599568381e+18
14011.0	1.8588644092674045e+18
14012.0	1.8585512306540541e+18
14013.0	1.8581818047463421e+18
14014.0	1.8578124073598976e+18
14015.0	1.8574429059547133e+18
14016.0	1.857073896121958e+18
14017.0	1.8567047990476792e+18
14018.0	1.8563357120397312e+18
14019.0	1.8559667911262203e+18
14020.0	1.8555978450468861e+18
14021.0	1.8552289962754043e+18
14022.0	1.8548603001765883e+18
14023.0	1.8544915017367552e+18
14024.0	1.8541223610417147e+18
14025.0	1.8537548410257403e+18
14026.0	1.853386336187187e+18
14027.0	1.853018250779033e+18
14028.0	1.8526500781293568e+18
14029.0	1.8522819558113275e+18
14030.0	1.8518838744186875e+18
14031.0	1.8515452430909437e+18
14032.0	1.85117820625879e+18
14033.0	1.8508097349746683e+18
14034.0	1.8504427719622653e+18
14035.0	1.8500752553017344e+18
14036.0	1.8497077688401917e+18
14037.0	1.8493403780087803e+18
14038.0	1.8489730643525632e+18
14039.0	1.8486058345824253e+18
14040.0	1.8482386937315325e+18
14041.0	1.8478716283781112e+18
14042.0	1.8475041335279608e+18
14043.0	1.847135387097497e+18
14044.0	1.846769913901875e+18
14045.0	1.8464042695786493e+18
14046.0	1.846037645466009e+18
14047.0	1.8456709810880507e+18
14048.0	1.8453046103113725e+18
14049.0	1.8449382663782397e+18
14050.0	1.8445719945871355e+18
14051.0	1.8442050114420728e+18
14052.0	1.8438396741419005e+18
14053.0	1.8434736540090365e+18
14054.0	1.843107722795417e+18
14055.0	1.842741865401548e+18
14056.0	1.8422557506011133e+18
14057.0	1.8417306405175293e+18
14058.0	1.841365168999628e+18
14059.0	1.840999784723251e+18
14060.0	1.8406344860106747e+18
14061.0	1.8402686588157947e+18
14062.0	1.8399041385660416e+18
14063.0	1.839537690614169e+18
14064.0	1.8391686119948283e+18
14065.0	1.8388084773093376e+18
14066.0	1.8384444704423933e+18
14067.0	1.8380797706764283e+18
14068.0	1.837715146407936e+18
14069.0	1.837350488585011e+18
14070.0	1.8369861411405821e+18
14071.0	1.8366215453933565e+18
14072.0	1.836257518393753e+18
14073.0	1.8358933169111037e+18
14074.0	1.8355292211249147e+18
14075.0	1.8351651689594877e+18
14076.0	1.834801249334067e+18
14077.0	1.8344309476556797e+18
14078.0	1.8340731097710587e+18
14079.0	1.8337093663064061e+18
14080.0	1.8333463425843197e+18
14081.0	1.8329828222566397e+18
14082.0	1.832618994905907e+18
14083.0	1.8322559225298941e+18
14084.0	1.8318927679455232e+18
14085.0	1.8315067476934653e+18
14086.0	1.831165928616755e+18
14087.0	1.8308035105521661e+18
14088.0	1.830440505285017e+18
14089.0	1.8300777348988925e+18
14090.0	1.829714878948966e+18
14091.0	1.8293523283443712e+18
14092.0	1.8289897425076221e+18
14093.0	1.8286272489455616e+18
14094.0	1.8282648342364155e+18
14095.0	1.8279024866361341e+18
14096.0	1.8275388505456637e+18
14097.0	1.8271779910844416e+18
14098.0	1.826815319683891e+18
14099.0	1.826454003882393e+18
14100.0	1.8260909919043581e+18
14101.0	1.8257302750494717e+18
14102.0	1.825368506263142e+18
14103.0	1.8250055160954875e+18
14104.0	1.824645295846195e+18
14105.0	1.8242837703294976e+18
14106.0	1.823922382385971e+18
14107.0	1.8235609390776315e+18
14108.0	1.8231998346690555e+18
14109.0	1.8228382219108352e+18
14110.0	1.8224770722037755e+18
14111.0	1.8221154862891005e+18
14112.0	1.8217555059539965e+18
14113.0	1.8213948562079744e+18
14114.0	1.8210340890214392e+18
14115.0	1.8206733335789565e+18
14116.0	1.820311279579955e+18
14117.0	1.8198986674405368e+18
14118.0	1.8195919195340797e+18
14119.0	1.8192307933151227e+18
14120.0	1.8188706737291261e+18
14121.0	1.818510896398336e+18
14122.0	1.818149979894579e+18
14123.0	1.8177903200043005e+18
14124.0	1.8174303128256507e+18
14125.0	1.8170295621779453e+18
14126.0	1.8167117094322176e+18
14127.0	1.8163520948404221e+18
14128.0	1.815992404751155e+18
14129.0	1.815633048528486e+18
14130.0	1.8152736553959424e+18
14131.0	1.8149143360831485e+18
14132.0	1.81455505368023e+18
14133.0	1.8141468656926715e+18
14134.0	1.8138368160301056e+18
14135.0	1.8134766108803064e+18
14136.0	1.8131175381925888e+18
14137.0	1.8127600358522877e+18
14138.0	1.812400797070131e+18
14139.0	1.8120427209490432e+18
14140.0	1.8116833999585275e+18
14141.0	1.8113253792022525e+18
14142.0	1.8109629141614587e+18
14143.0	1.8106083579002875e+18
14144.0	1.8102507599298555e+18
14145.0	1.809892598244966e+18
14146.0	1.809534376162099e+18
14147.0	1.80917644600279e+18
14148.0	1.8088185544310781e+18
14149.0	1.8084608121765888e+18
14150.0	1.8081030632112125e+18
14151.0	1.8077451833835517e+18
14152.0	1.8073878337159165e+18
14153.0	1.8070303229870075e+18
14154.0	1.8066729213100027e+18
14155.0	1.8063119561523197e+18
14156.0	1.8059576632934397e+18
14157.0	1.8056011826855933e+18
14158.0	1.8052437122220032e+18
14159.0	1.804887087330099e+18
14160.0	1.8045294105067515e+18
14161.0	1.8041681299374077e+18
14162.0	1.8038069768749053e+18
14163.0	1.8034597489016827e+18
14164.0	1.8031015905722365e+18
14165.0	1.8027381876850685e+18
14166.0	1.8023901443391488e+18
14167.0	1.8020340328300544e+18
14168.0	1.8016775622885376e+18
14169.0	1.8013216034521088e+18
14170.0	1.8009651865976832e+18
14171.0	1.8006092244058107e+18
14172.0	1.8002535491043328e+18
14173.0	1.7998927651405821e+18
14174.0	1.7995414485598203e+18
14175.0	1.7991862480535547e+18
14176.0	1.7988306415386621e+18
14177.0	1.798475118909849e+18
14178.0	1.7981195425939453e+18
14179.0	1.7977633337769981e+18
14180.0	1.7974090392403963e+18
14181.0	1.7970195628818427e+18
14182.0	1.7966502326042621e+18
14183.0	1.7962951025623035e+18
14184.0	1.7959395262464e+18
14185.0	1.795584928042188e+18
14186.0	1.7952185388105725e+18
14187.0	1.7948729113837565e+18
14188.0	1.794520197260902e+18
14189.0	1.7941654212182013e+18
14190.0	1.7938108465020923e+18
14191.0	1.7934562701082621e+18
14192.0	1.7931011601989627e+18
14193.0	1.7927458841952253e+18
14194.0	1.7923930358546427e+18
14195.0	1.7920389745213435e+18
14196.0	1.7916847873589243e+18
14197.0	1.7913307126038525e+18
14198.0	1.7909762838495227e+18
14199.0	1.7902718706253824e+18
14200.0	1.7897825211777021e+18
14201.0	1.789434063434547e+18
14202.0	1.7890805658157053e+18
14203.0	1.7887256773656576e+18
14204.0	1.7883727719825403e+18
14205.0	1.7880191485345787e+18
14206.0	1.7876549671845885e+18
14207.0	1.7873123361685504e+18
14208.0	1.786958962701107e+18
14209.0	1.786594133750579e+18
14210.0	1.7862437600493563e+18
14211.0	1.7858991694544896e+18
14212.0	1.7855460610670587e+18
14213.0	1.7851930734755837e+18
14214.0	1.784840126149427e+18
14215.0	1.7844862711758848e+18
14216.0	1.784134622406246e+18
14217.0	1.783781935126937e+18
14218.0	1.7834293183119355e+18
14219.0	1.7830329079300093e+18
14220.0	1.7826748871737341e+18
14221.0	1.7823222988799997e+18
14222.0	1.7819698146050043e+18
14223.0	1.7816174997798907e+18
14224.0	1.7812652084428797e+18
14225.0	1.7808947104710653e+18
14226.0	1.780560655967846e+18
14227.0	1.780208675009331e+18
14228.0	1.7798122948263933e+18
14229.0	1.779494475635097e+18
14230.0	1.7791529284272123e+18
14231.0	1.778801175638835e+18
14232.0	1.7784494849261565e+18
14233.0	1.7780978646777853e+18
14234.0	1.777746319926886e+18
14235.0	1.777394614114713e+18
14236.0	1.777043441818009e+18
14237.0	1.7766920010858493e+18
14238.0	1.7763408455663613e+18
14239.0	1.775989200152166e+18
14240.0	1.7754939199586304e+18
14241.0	1.775283177993011e+18
14242.0	1.7748884436549624e+18
14243.0	1.7745233764679677e+18
14244.0	1.7741864866152443e+18
14245.0	1.7738343798276093e+18
14246.0	1.7734828266881024e+18
14247.0	1.773134058566451e+18
14248.0	1.772781901447168e+18
14249.0	1.772432608198656e+18
14250.0	1.7720820868579328e+18
14251.0	1.771731877573427e+18
14252.0	1.7713815139385341e+18
14253.0	1.771031165403136e+18
14254.0	1.7706808135122941e+18
14255.0	1.7703278779301885e+18
14256.0	1.7699622419955712e+18
14257.0	1.7696298316595197e+18
14258.0	1.7692809595191293e+18
14259.0	1.7689311478546427e+18
14260.0	1.7685808395845627e+18
14261.0	1.768232469082931e+18
14262.0	1.7679017935110141e+18
14263.0	1.7675249436852221e+18
14264.0	1.7671965632364536e+18
14265.0	1.766853435614822e+18
14266.0	1.766504137333145e+18
14267.0	1.7659611209269243e+18
14268.0	1.7655973120311293e+18
14269.0	1.7652479080529917e+18
14270.0	1.7648990610784256e+18
14271.0	1.764549923858022e+18
14272.0	1.7642010886275072e+18
14273.0	1.7638520839471104e+18
14274.0	1.7634615086809085e+18
14275.0	1.763150875171225e+18
14276.0	1.7628054356492285e+18
14277.0	1.762457011460505e+18
14278.0	1.762108976503193e+18
14279.0	1.7617604449402875e+18
14280.0	1.761411591254835e+18
14281.0	1.7610639438512125e+18
14282.0	1.7607157612543997e+18
14283.0	1.7603676340224e+18
14284.0	1.760019568866099e+18
14285.0	1.759671582562713e+18
14286.0	1.7593235895484413e+18
14287.0	1.7589758263820285e+18
14288.0	1.7586280179171325e+18
14289.0	1.7581877485371387e+18
14290.0	1.757932541915955e+18
14291.0	1.7575851126161403e+18
14292.0	1.7572377336479741e+18
14293.0	1.7568901181210621e+18
14294.0	1.7565199926034427e+18
14295.0	1.7561502026301437e+18
14296.0	1.7557281868611584e+18
14297.0	1.755455375907225e+18
14298.0	1.7550930048188416e+18
14299.0	1.7547609300271104e+18
14300.0	1.7544141953040381e+18
14301.0	1.7540671166480381e+18
14302.0	1.7537199490727933e+18
14303.0	1.7533701021761533e+18
14304.0	1.753025229724057e+18
14305.0	1.752679525122048e+18
14306.0	1.7523309851705341e+18
14307.0	1.7519855557148672e+18
14308.0	1.7516397957480448e+18
14309.0	1.7512930476031995e+18
14310.0	1.7509373890789368e+18
14311.0	1.7505940064436221e+18
14312.0	1.7502514073042941e+18
14313.0	1.7498990924791803e+18
14314.0	1.749561910702899e+18
14315.0	1.749216117181644e+18
14316.0	1.7488654649786365e+18
14317.0	1.7485233221795837e+18
14318.0	1.7481784916705277e+18
14319.0	1.7478327887462397e+18
14320.0	1.747487058978406e+18
14321.0	1.7471414919495677e+18
14322.0	1.7467923832504317e+18
14323.0	1.7464486197723133e+18
14324.0	1.7461050425212925e+18
14325.0	1.7457596969517053e+18
14326.0	1.7454033237180416e+18
14327.0	1.7450247106068475e+18
14328.0	1.7446788248109053e+18
14329.0	1.7443342174388224e+18
14330.0	1.7439890614517757e+18
14331.0	1.7436439524409344e+18
14332.0	1.7432989508042747e+18
14333.0	1.7429540045324288e+18
14334.0	1.7426091203362816e+18
14335.0	1.7422632446066688e+18
14336.0	1.7419176473788413e+18
14337.0	1.7415748251025403e+18
14338.0	1.7412300700909565e+18
14339.0	1.740885539894067e+18
14340.0	1.740541212701491e+18
14341.0	1.7401966808268797e+18
14342.0	1.7398524559753216e+18
14343.0	1.7395078486032381e+18
14344.0	1.739163778102067e+18
14345.0	1.7388198300745723e+18
14346.0	1.7384755028819963e+18
14347.0	1.738130284819251e+18
14348.0	1.737787717556633e+18
14349.0	1.7374439591116797e+18
14350.0	1.7370986303193085e+18
14351.0	1.7367548014100477e+18
14352.0	1.736412700554035e+18
14353.0	1.736069083037696e+18
14354.0	1.7357252574838784e+18
14355.0	1.7353814822617085e+18
14356.0	1.7350382053228541e+18
14357.0	1.7346952723169277e+18
14358.0	1.734351988667187e+18
14359.0	1.7340087285055485e+18
14360.0	1.733665453244416e+18
14361.0	1.7333224497741821e+18
14362.0	1.7329794530148347e+18
14363.0	1.732279740766617e+18
14364.0	1.731703986978816e+18
14365.0	1.731364377539379e+18
14366.0	1.7310214764101627e+18
14367.0	1.7306793101230077e+18
14368.0	1.7303362915532795e+18
14369.0	1.7299934172676093e+18
14370.0	1.7296505798918141e+18
14371.0	1.7293077928476672e+18
14372.0	1.728965054457446e+18
14373.0	1.7286223747874813e+18
14374.0	1.7282797974585341e+18
14375.0	1.7279372520062979e+18
14376.0	1.72759475856343e+18
14377.0	1.7272522835755003e+18
14378.0	1.7269097096019965e+18
14379.0	1.726567655722189e+18
14380.0	1.726225382060851e+18
14381.0	1.725882967470899e+18
14382.0	1.7255409588895741e+18
14383.0	1.7251984251813885e+18
14384.0	1.724856943404646e+18
14385.0	1.7245151176949757e+18
14386.0	1.7241732433313787e+18
14387.0	1.7238313958113277e+18
14388.0	1.7234894476279805e+18
14389.0	1.7231479155195904e+18
14390.0	1.7228061300752381e+18
14391.0	1.7224647170850813e+18
14392.0	1.7221230306263037e+18
14393.0	1.7217817719865344e+18
14394.0	1.721440369062707e+18
14395.0	1.7210989057409021e+18
14396.0	1.7207577225986043e+18
14397.0	1.720416467314278e+18
14398.0	1.72007521035223e+18
14399.0	1.7197341832380413e+18
14400.0	1.719391421359718e+18
14401.0	1.7190515166412795e+18
14402.0	1.7187110079430653e+18
14403.0	1.718209689629491e+18
14404.0	1.7174680829951997e+18
14405.0	1.7174857594699768e+18
14406.0	1.7173038306951163e+18
14407.0	1.7167446997729277e+18
14408.0	1.7166207463456763e+18
14409.0	1.716279985989222e+18
14410.0	1.7159408194682877e+18
14411.0	1.7156005724946424e+18
14412.0	1.7152598473703421e+18
14413.0	1.7149197463584763e+18
14414.0	1.7145791185420288e+18
14415.0	1.7142388984119293e+18
14416.0	1.713898737002086e+18
14417.0	1.7135581997826043e+18
14418.0	1.7132168237023232e+18
14419.0	1.7128780212469757e+18
14420.0	1.712537614889779e+18
14421.0	1.712198022227558e+18
14422.0	1.7118580134903803e+18
14423.0	1.7115171222716416e+18
14424.0	1.710270863690956e+18
14425.0	1.7108374537633787e+18
14426.0	1.7104987502936056e+18
14427.0	1.71015912072151e+18
14428.0	1.7098193837752315e+18
14429.0	1.7094798263451643e+18
14430.0	1.7091402236166141e+18
14431.0	1.708792475549696e+18
14432.0	1.7084604661891072e+18
14433.0	1.7079567990652923e+18
14434.0	1.7077809318985725e+18
14435.0	1.7074411513315325e+18
14436.0	1.7071037816504315e+18
14437.0	1.7067645580869627e+18
14438.0	1.7064207140782075e+18
14439.0	1.7060849633984507e+18
14440.0	1.705747082012262e+18
14441.0	1.705407254469017e+18
14442.0	1.7050678396452861e+18
14443.0	1.7047250878332925e+18
14444.0	1.704390764894617e+18
14445.0	1.7040523516706813e+18
14446.0	1.7034852566040576e+18
14447.0	1.70337324016599e+18
14448.0	1.7030362110623741e+18
14449.0	1.7026975847677947e+18
14450.0	1.7023589635063803e+18
14451.0	1.7020203992875005e+18
14452.0	1.7016817008508925e+18
14453.0	1.7013215309332477e+18
14454.0	1.700962359259955e+18
14455.0	1.7006233353453563e+18
14456.0	1.7002847342166013e+18
14457.0	1.6999460139696125e+18
14458.0	1.699608323843686e+18
14459.0	1.6992697797574653e+18
14460.0	1.6989315208839163e+18
14461.0	1.6985910893608957e+18
14462.0	1.6982490774241277e+18
14463.0	1.697916386908569e+18
14464.0	1.6975789165641725e+18
14465.0	1.6972387333439485e+18
14466.0	1.6969029658869757e+18
14467.0	1.696562359880908e+18
14468.0	1.6962267182530557e+18
14469.0	1.6958866323406843e+18
14470.0	1.6955484539977725e+18
14471.0	1.6952122654326781e+18
14472.0	1.6948755332857853e+18
14473.0	1.6945378901360637e+18
14474.0	1.6942001815551997e+18
14475.0	1.693862174339891e+18
14476.0	1.6935143256096768e+18
14477.0	1.693187166542233e+18
14478.0	1.692849592179097e+18
14479.0	1.6925119993610235e+18
14480.0	1.6921736733786107e+18
14481.0	1.6918370318286848e+18
14482.0	1.691499204129587e+18
14483.0	1.6911611902033915e+18
14484.0	1.690823676238233e+18
14485.0	1.6904839527137275e+18
14486.0	1.6901213266116605e+18
14487.0	1.6898129160830976e+18
14488.0	1.6894757175295997e+18
14489.0	1.689137774067712e+18
14490.0	1.688801055342592e+18
14491.0	1.6884641185136637e+18
14492.0	1.6876169429254136e+18
14493.0	1.687127219345817e+18
14494.0	1.686789943617126e+18
14495.0	1.6864526947319805e+18
14496.0	1.6861025122910203e+18
14497.0	1.6857781264973821e+18
14498.0	1.6854410470621181e+18
14499.0	1.6851039206506496e+18
14500.0	1.6847667472629757e+18
14501.0	1.68442522018775e+18
14502.0	1.6840686993145853e+18
14503.0	1.6837540224958461e+18
14504.0	1.6834178926510077e+18
14505.0	1.6830768537927677e+18
14506.0	1.6827351824334848e+18
14507.0	1.6823839967150075e+18
14508.0	1.6820707543482365e+18
14509.0	1.681718865664409e+18
14510.0	1.6813540014817275e+18
14511.0	1.6810170461978621e+18
14512.0	1.6806786010972157e+18
14513.0	1.6803431893172221e+18
14514.0	1.680002870201548e+18
14515.0	1.6796693055930365e+18
14516.0	1.6790972142714875e+18
14517.0	1.6789955023994877e+18
14518.0	1.6786588944039939e+18
14519.0	1.6783221287026685e+18
14520.0	1.6779853445464061e+18
14521.0	1.6776485402574843e+18
14522.0	1.6773117292576763e+18
14523.0	1.6769643066687488e+18
14524.0	1.6766274302377981e+18
14525.0	1.6763009875574781e+18
14526.0	1.6759648392577024e+18
14527.0	1.6756253539696637e+18
14528.0	1.6752793289228288e+18
14529.0	1.674953718392422e+18
14530.0	1.6746168134402048e+18
14531.0	1.6742814989680637e+18
14532.0	1.6739303417708541e+18
14533.0	1.6736083685408765e+18
14534.0	1.6732720541466621e+18
14535.0	1.6729354729947128e+18
14536.0	1.672599032771379e+18
14537.0	1.672261366133555e+18
14538.0	1.6719260684386304e+18
14539.0	1.6715896030494715e+18
14540.0	1.671253151082086e+18
14541.0	1.6709162394189821e+18
14542.0	1.6705802656022528e+18
14543.0	1.6702374601031675e+18
14544.0	1.6699073834778621e+18
14545.0	1.669570829169459e+18
14546.0	1.6680424231141368e+18
14547.0	1.6678112817315827e+18
14548.0	1.6685610320265213e+18
14549.0	1.668214676468531e+18
14550.0	1.667889483690803e+18
14551.0	1.6675532749930493e+18
14552.0	1.667216826381107e+18
14553.0	1.6668798945853437e+18
14554.0	1.66654427309015e+18
14555.0	1.6662077959569405e+18
14556.0	1.665871120852582e+18
14557.0	1.6655349389983741e+18
14558.0	1.6651984132112381e+18
14559.0	1.6646887348109307e+18
14560.0	1.664525173732147e+18
14561.0	1.664188520438169e+18
14562.0	1.6638525516546043e+18
14563.0	1.6635162842365947e+18
14564.0	1.6631791645360123e+18
14565.0	1.6628434239225853e+18
14566.0	1.6625068662587387e+18
14567.0	1.6621702565855232e+18
14568.0	1.6618330194444285e+18
14569.0	1.6614970271727613e+18
14570.0	1.6611122702450685e+18
14571.0	1.6608234387275776e+18
14572.0	1.66048325215191e+18
14573.0	1.6601471860604925e+18
14574.0	1.659787088284876e+18
14575.0	1.65943593444311e+18
14576.0	1.6590991720972285e+18
14577.0	1.6587625104146424e+18
14578.0	1.6584254829887485e+18
14579.0	1.657937658590003e+18
14580.0	1.656956199842611e+18
14581.0	1.656618541593395e+18
14582.0	1.6562816148307965e+18
14583.0	1.655944315614003e+18
14584.0	1.6556058268925947e+18
14585.0	1.6552696181948416e+18
14586.0	1.6549319213580285e+18
14587.0	1.654594638918451e+18
14588.0	1.6542581399748603e+18
14589.0	1.653927534867251e+18
14590.0	1.6535979967905787e+18
14591.0	1.6532682624204797e+18
14592.0	1.6529384743632893e+18
14593.0	1.652597477448089e+18
14594.0	1.6522788730830843e+18
14595.0	1.6519484206481405e+18
14596.0	1.651613990335283e+18
14597.0	1.6512837392269307e+18
14598.0	1.6509581857390592e+18
14599.0	1.650628614107955e+18
14600.0	1.6502983109902333e+18
14601.0	1.6499681253130237e+18
14602.0	1.649637424575283e+18
14603.0	1.64930744525783e+18
14604.0	1.6489728505282557e+18
14605.0	1.6486456092524541e+18
14606.0	1.648309893804851e+18
14607.0	1.6479843554164733e+18
14608.0	1.6476549431689216e+18
14609.0	1.6473234941673472e+18
14610.0	1.64699189584855e+18
14611.0	1.64666227556352e+18
14612.0	1.6463319053369341e+18
14613.0	1.6460010066280448e+18
14614.0	1.6456696431902715e+18
14615.0	1.645338841789235e+18
14616.0	1.6450077199433725e+18
14617.0	1.6446764420694016e+18
14618.0	1.6443450752761853e+18
14619.0	1.6440103194853376e+18
14620.0	1.6436711898742784e+18
14621.0	1.643350469902336e+18
14622.0	1.643018744076697e+18
14623.0	1.6426868940996605e+18
14624.0	1.6423493516132347e+18
14625.0	1.6420230414729213e+18
14626.0	1.6416907502551035e+18
14627.0	1.6413581939572733e+18
14628.0	1.6410267315339261e+18
14629.0	1.6406944537378816e+18
14630.0	1.640361956160307e+18
14631.0	1.6400294082510848e+18
14632.0	1.6396262517506048e+18
14633.0	1.6393535985025021e+18
14634.0	1.6390305649524733e+18
14635.0	1.6386920644870144e+18
14636.0	1.6383520507166715e+18
14637.0	1.6380312669913085e+18
14638.0	1.6376975262220285e+18
14639.0	1.6373629986013184e+18
14640.0	1.6370297477267456e+18
14641.0	1.63641562276823e+18
14642.0	1.6363614055170048e+18
14643.0	1.636027666425446e+18
14644.0	1.6356931220275197e+18
14645.0	1.6353563009613821e+18
14646.0	1.6350231239065597e+18
14647.0	1.63468790506455e+18
14648.0	1.6343534126759933e+18
