# Flux units: erg / (cm m2 s)
# Wavelength units: Angstrom
wave	flux
14000.0	1.848046284229836e+18
14001.0	1.847828002583347e+18
14002.0	1.8476507059978237e+18
14003.0	1.847316616262451e+18
14004.0	1.8469746898894843e+18
14005.0	1.8466420379615232e+18
14006.0	1.8462946724151293e+18
14007.0	1.8459537946181627e+18
14008.0	1.8454970600783864e+18
14009.0	1.8452862946246653e+18
14010.0	1.8449343304433661e+18
14011.0	1.843842734306099e+18
14012.0	1.8442726403997693e+18
14013.0	1.8439375255764987e+18
14014.0	1.8435931765735421e+18
14015.0	1.8432595180126203e+18
14016.0	1.84292465484759e+18
14017.0	1.8425871375269883e+18
14018.0	1.842236039050035e+18
14019.0	1.8419119871229947e+18
14020.0	1.8415735554441216e+18
14021.0	1.8412348385525755e+18
14022.0	1.8408749521698816e+18
14023.0	1.8405181913825277e+18
14024.0	1.8401841201020925e+18
14025.0	1.8398813299408893e+18
14026.0	1.839547721711616e+18
14027.0	1.839212642120499e+18
14028.0	1.8388662613966845e+18
14029.0	1.838521927493222e+18
14030.0	1.8320601257082929e+18
14031.0	1.8376766762516472e+18
14032.0	1.8375105700691963e+18
14033.0	1.8370951209025533e+18
14034.0	1.8368401290297341e+18
14035.0	1.836518546708889e+18
14036.0	1.8361593079267325e+18
14037.0	1.8358473624387581e+18
14038.0	1.835513777697587e+18
14039.0	1.8351730995494907e+18
14040.0	1.8348361358770168e+18
14041.0	1.8345040476635133e+18
14042.0	1.8341577927688187e+18
14043.0	1.8337863921827837e+18
14044.0	1.8334773759967227e+18
14045.0	1.833152015446835e+18
14046.0	1.8328228145922045e+18
14047.0	1.8324608025362435e+18
14048.0	1.8321488838918141e+18
14049.0	1.8318222382071803e+18
14050.0	1.8314876669657085e+18
14051.0	1.8311423113297917e+18
14052.0	1.830813118863769e+18
14053.0	1.8304827788361725e+18
14054.0	1.8301481891397627e+18
14055.0	1.8298134467706877e+18
14056.0	1.8294787245342715e+18
14057.0	1.829144148259635e+18
14058.0	1.828809538430566e+18
14059.0	1.8284543043698685e+18
14060.0	1.8281403875590141e+18
14061.0	1.8277978639171581e+18
14062.0	1.8274715017674747e+18
14063.0	1.8271150714912765e+18
14064.0	1.8256210755059715e+18
14065.0	1.8264577250689021e+18
14066.0	1.826135095849779e+18
14067.0	1.8257586637766653e+18
14068.0	1.8254653208657917e+18
14069.0	1.825121517122355e+18
14070.0	1.8247958495494141e+18
14071.0	1.8244632915738621e+18
14072.0	1.824133406208819e+18
14073.0	1.8237998432780285e+18
14074.0	1.8234659196370944e+18
14075.0	1.823107034854195e+18
14076.0	1.8227530523738112e+18
14077.0	1.8210825734979592e+18
14078.0	1.8220264428929021e+18
14079.0	1.8217856311230461e+18
14080.0	1.821461080912691e+18
14081.0	1.82113377756119e+18
14082.0	1.8207999260622843e+18
14083.0	1.8204654252851197e+18
14084.0	1.820130701370982e+18
14085.0	1.818895886529331e+18
14086.0	1.8193489267261437e+18
14087.0	1.8191283432456187e+18
14088.0	1.8187758086389755e+18
14089.0	1.818440953862553e+18
14090.0	1.8181204587053053e+18
14091.0	1.8178096121249787e+18
14092.0	1.8174785406107645e+18
14093.0	1.8171464003878907e+18
14094.0	1.8168135974649853e+18
14095.0	1.8164774609092603e+18
14096.0	1.8158919293599744e+18
14097.0	1.8157468165079032e+18
14098.0	1.8153640946565117e+18
14099.0	1.8151524316217341e+18
14100.0	1.8148093660758016e+18
14101.0	1.814493833619046e+18
14102.0	1.814162537290137e+18
14103.0	1.8138128296443896e+18
14104.0	1.8134971680030717e+18
14105.0	1.8131693193920507e+18
14106.0	1.8128383351193592e+18
14107.0	1.8124964574003197e+18
14108.0	1.8121537106214907e+18
14109.0	1.811837758734336e+18
14110.0	1.81150713684951e+18
14111.0	1.8111708224552955e+18
14112.0	1.810840121717555e+18
14113.0	1.810500148212531e+18
14114.0	1.8101701739282427e+18
14115.0	1.809841055281971e+18
14116.0	1.809361627879833e+18
14117.0	1.7986102073753626e+18
14118.0	1.8088152862294013e+18
14119.0	1.808355516691251e+18
14120.0	1.8080563839631352e+18
14121.0	1.8078254539735035e+18
14122.0	1.8073748229849085e+18
14123.0	1.8071078471467005e+18
14124.0	1.8067617566687227e+18
14125.0	1.8059887749627896e+18
14126.0	1.8062071455285245e+18
14127.0	1.8058935223189504e+18
14128.0	1.8055690996154365e+18
14129.0	1.8052281865863163e+18
14130.0	1.8048898354380797e+18
14131.0	1.8045825523384315e+18
14132.0	1.8042465265123328e+18
14133.0	1.8032712686239729e+18
14134.0	1.803584532801126e+18
14135.0	1.8032250775928832e+18
14136.0	1.8028062209736704e+18
14137.0	1.8025792336297981e+18
14138.0	1.8021656802885632e+18
14139.0	1.8019501484277755e+18
14140.0	1.8016137568583677e+18
14141.0	1.8011848808857597e+18
14142.0	1.8002078832001024e+18
14143.0	1.8006237903847421e+18
14144.0	1.8003108063870976e+18
14145.0	1.7999833805619195e+18
14146.0	1.7996339983941627e+18
14147.0	1.799317474403942e+18
14148.0	1.7989790175592448e+18
14149.0	1.7986580056637437e+18
14150.0	1.7983458521382912e+18
14151.0	1.7979927101964285e+18
14152.0	1.797693183203737e+18
14153.0	1.7973654771990523e+18
14154.0	1.79700780540887e+18
14155.0	1.7963542439264256e+18
14156.0	1.7963379146620923e+18
14157.0	1.7960552705818621e+18
14158.0	1.7957226958290944e+18
14159.0	1.795401490995609e+18
14160.0	1.7950659668082685e+18
14161.0	1.7946742288809981e+18
14162.0	1.7942901782740984e+18
14163.0	1.7940718530068477e+18
14164.0	1.7934493176299515e+18
14165.0	1.7933765229674493e+18
14166.0	1.7931092115849208e+18
14167.0	1.7927681525940221e+18
14168.0	1.792443426222899e+18
14169.0	1.7921248839335933e+18
14170.0	1.7917965689159677e+18
14171.0	1.7914771357564925e+18
14172.0	1.7911557010751485e+18
14173.0	1.790790447661056e+18
14174.0	1.7904932493459456e+18
14175.0	1.7901711888744443e+18
14176.0	1.789850086381977e+18
14177.0	1.7895255747592187e+18
14178.0	1.7891996622389248e+18
14179.0	1.7888670002446333e+18
14180.0	1.788548981404467e+18
14181.0	1.7882232668553213e+18
14182.0	1.7878964869529595e+18
14183.0	1.7875713243742203e+18
14184.0	1.787237789964697e+18
14185.0	1.786906835890995e+18
14186.0	1.784691886024295e+18
14187.0	1.786206387122995e+18
14188.0	1.7859368074608635e+18
14189.0	1.7856020835467261e+18
14190.0	1.7852795684126717e+18
14191.0	1.7849460491026424e+18
14192.0	1.7846301257367547e+18
14193.0	1.7839939941040125e+18
14194.0	1.7839783560609784e+18
14195.0	1.783671878267699e+18
14196.0	1.783347925326233e+18
14197.0	1.7830235881865213e+18
14198.0	1.7826925770702843e+18
14199.0	1.782370224675225e+18
14200.0	1.7808182751526922e+18
14201.0	1.781655325691084e+18
14202.0	1.78139543151575e+18
14203.0	1.7810697018671104e+18
14204.0	1.7807513810370555e+18
14205.0	1.7804273895079933e+18
14206.0	1.7799542887940093e+18
14207.0	1.779782055572275e+18
14208.0	1.7794597786746875e+18
14209.0	1.778972385450393e+18
14210.0	1.7786993714921464e+18
14211.0	1.7784808214102013e+18
14212.0	1.778165309086105e+18
14213.0	1.7778355545833464e+18
14214.0	1.7775185826414587e+18
14215.0	1.7771739819802621e+18
14216.0	1.7768736563920893e+18
14217.0	1.776551090926387e+18
14218.0	1.7762137933873152e+18
14219.0	1.7759049080635384e+18
14220.0	1.7755693872316416e+18
14221.0	1.7751940439998461e+18
14222.0	1.7747628125061123e+18
14223.0	1.7745104076799997e+18
14224.0	1.7741813964079096e+18
14225.0	1.7700923778269212e+18
14226.0	1.7734983355465723e+18
14227.0	1.7732042192060416e+18
14228.0	1.7632289781448735e+18
14229.0	1.7708601988612017e+18
14230.0	1.7722478843396093e+18
14231.0	1.7718664912437248e+18
14232.0	1.7716104105295872e+18
14233.0	1.7712851372212221e+18
14234.0	1.7709671569686525e+18
14235.0	1.7706421772615675e+18
14236.0	1.7703233329823741e+18
14237.0	1.7699955296698363e+18
14238.0	1.7696740413014013e+18
14239.0	1.7692974565556221e+18
14240.0	1.7669548454969347e+18
14241.0	1.7686035827785725e+18
14242.0	1.7683063743971328e+18
14243.0	1.767811835756544e+18
14244.0	1.767678879675187e+18
14245.0	1.7673436641886203e+18
14246.0	1.7670196340719616e+18
14247.0	1.7667091565903872e+18
14248.0	1.7663725267845115e+18
14249.0	1.7660663157489661e+18
14250.0	1.765747729838899e+18
14251.0	1.7654291892273147e+18
14252.0	1.7651072864616443e+18
14253.0	1.764783937499955e+18
14254.0	1.7644574025449472e+18
14255.0	1.7640820928675837e+18
14256.0	1.7598682870317084e+18
14257.0	1.7632162173943798e+18
14258.0	1.7631687043186685e+18
14259.0	1.7627869723230203e+18
14260.0	1.7623379938902013e+18
14261.0	1.7621150196563965e+18
14262.0	1.7618223293792253e+18
14263.0	1.7558028622495785e+18
14264.0	1.7599512738529265e+18
14265.0	1.760860432865689e+18
14266.0	1.7605642093068288e+18
14267.0	1.760249089569587e+18
14268.0	1.7599255141154813e+18
14269.0	1.7595986838814715e+18
14270.0	1.7592884748353533e+18
14271.0	1.758964667855667e+18
14272.0	1.7586359233413117e+18
14273.0	1.7582624323141632e+18
14274.0	1.749307519454417e+18
14275.0	1.7567459565371395e+18
14276.0	1.7573300016250877e+18
14277.0	1.7570296089280507e+18
14278.0	1.756728466289459e+18
14279.0	1.7564097042186237e+18
14280.0	1.7560836390256637e+18
14281.0	1.7557735725858813e+18
14282.0	1.7554027323588605e+18
14283.0	1.755065780430438e+18
14284.0	1.7547457835565053e+18
14285.0	1.754423743217664e+18
14286.0	1.7540959986253816e+18
14287.0	1.753785943929651e+18
14288.0	1.7534643364429821e+18
14289.0	1.7518561111048166e+18
14290.0	1.7528254046928893e+18
14291.0	1.7525085904568315e+18
14292.0	1.7521880013471744e+18
14293.0	1.7518681487572987e+18
14294.0	1.7513818678624253e+18
14295.0	1.7512127350702077e+18
14296.0	1.7498701735919624e+18
14297.0	1.750580413543219e+18
14298.0	1.749136821347942e+18
14299.0	1.749919305669017e+18
14300.0	1.7496273804328957e+18
14301.0	1.7493140726349821e+18
14302.0	1.748995864212275e+18
14303.0	1.7486349460307963e+18
14304.0	1.7483337295724541e+18
14305.0	1.7480291794812925e+18
14306.0	1.7476406913007616e+18
14307.0	1.747289644833177e+18
14308.0	1.7469607426129915e+18
14309.0	1.7465909308293117e+18
14310.0	1.746026171151155e+18
14311.0	1.7450619459600381e+18
14312.0	1.7454176598491133e+18
14313.0	1.7451794653249533e+18
14314.0	1.7450164797046781e+18
14315.0	1.7447580870901757e+18
14316.0	1.7443918119436285e+18
14317.0	1.744017857865318e+18
14318.0	1.7438311442284544e+18
14319.0	1.7435216129818621e+18
14320.0	1.743206399292211e+18
14321.0	1.7428879425667064e+18
14322.0	1.7425261939130365e+18
14323.0	1.7422360604835837e+18
14324.0	1.7419420699721728e+18
14325.0	1.7416151239753725e+18
14326.0	1.741310219884953e+18
14327.0	1.7409854851252221e+18
14328.0	1.7406685819699197e+18
14329.0	1.7403601546641403e+18
14330.0	1.7400434377359357e+18
14331.0	1.739719322055475e+18
14332.0	1.7394099233488893e+18
14333.0	1.7390932164870141e+18
14334.0	1.7387762596446205e+18
14335.0	1.7382840345821184e+18
14336.0	1.7375400288059387e+18
14337.0	1.7376119124656123e+18
14338.0	1.7372960025214976e+18
14339.0	1.7369652548075515e+18
14340.0	1.7366621710450685e+18
14341.0	1.7363244456869885e+18
14342.0	1.7360276416364541e+18
14343.0	1.7357145385205757e+18
14344.0	1.735386354365235e+18
14345.0	1.735076965724979e+18
14346.0	1.7347451358806013e+18
14347.0	1.734306312696627e+18
14348.0	1.734116767065702e+18
14349.0	1.7338143812354048e+18
14350.0	1.7331821402390518e+18
14351.0	1.7328437723135995e+18
14352.0	1.7328591637315581e+18
14353.0	1.7325539559735296e+18
14354.0	1.7321993913237504e+18
14355.0	1.7318053079416827e+18
14356.0	1.7315153573838843e+18
14357.0	1.7312914906021885e+18
14358.0	1.730979595445862e+18
14359.0	1.7306462371971067e+18
14360.0	1.73032042701783e+18
14361.0	1.7300204185190395e+18
14362.0	1.7297172978466808e+18
14363.0	1.7293984485343232e+18
14364.0	1.7280913339580416e+18
14365.0	1.7285592270241782e+18
14366.0	1.7282732476334075e+18
14367.0	1.7280976489021435e+18
14368.0	1.7277603530407933e+18
14369.0	1.727445936268902e+18
14370.0	1.727131568150937e+18
14371.0	1.7268177352261627e+18
14372.0	1.72648100307927e+18
14373.0	1.7261589728067581e+18
14374.0	1.725851146125312e+18
14375.0	1.7255331876831227e+18
14376.0	1.7252228981063672e+18
14377.0	1.724907082114662e+18
14378.0	1.7245895397474304e+18
14379.0	1.7242780002680824e+18
14380.0	1.7239614158798848e+18
14381.0	1.7236336125673472e+18
14382.0	1.723331614290739e+18
14383.0	1.7230147228794877e+18
14384.0	1.7226816833978365e+18
14385.0	1.7223896256217085e+18
14386.0	1.7220531518439421e+18
14387.0	1.721760089112576e+18
14388.0	1.7214434745253885e+18
14389.0	1.721131047531315e+18
14390.0	1.7208143205367803e+18
14391.0	1.7205027810574333e+18
14392.0	1.7201870875394043e+18
14393.0	1.7198743350673403e+18
14394.0	1.7195124421296125e+18
14395.0	1.7192241105731581e+18
14396.0	1.7189298163941368e+18
14397.0	1.7186183087915005e+18
14398.0	1.718303652105421e+18
14399.0	1.7179878512132093e+18
14400.0	1.7176485185978368e+18
14401.0	1.7173523940245504e+18
14402.0	1.717041970230067e+18
14403.0	1.7158597603491822e+18
14404.0	1.7115970187296737e+18
14405.0	1.713881968174689e+18
14406.0	1.7157163889721341e+18
14407.0	1.7141505546256384e+18
14408.0	1.7150429599105021e+18
14409.0	1.7147597168836605e+18
14410.0	1.7143974531694587e+18
14411.0	1.7141553680089088e+18
14412.0	1.7138412750372861e+18
14413.0	1.7135327336464381e+18
14414.0	1.7132158523015165e+18
14415.0	1.712903396786176e+18
14416.0	1.712576283017216e+18
14417.0	1.712218889728819e+18
14418.0	1.7118477961658363e+18
14419.0	1.7116446022696957e+18
14420.0	1.7113281386774525e+18
14421.0	1.7110188926435328e+18
14422.0	1.7106930690424824e+18
14423.0	1.7102993195270141e+18
14424.0	1.7046757460410337e+18
14425.0	1.7097246176706557e+18
14426.0	1.7094501675827197e+18
14427.0	1.7091413711781885e+18
14428.0	1.7088029042671613e+18
14429.0	1.708512844657459e+18
14430.0	1.7081934383415293e+18
14431.0	1.7061668798332933e+18
14432.0	1.7075678327341053e+18
14433.0	1.7062961533157368e+18
14434.0	1.7069241161220093e+18
14435.0	1.7064339244580856e+18
14436.0	1.7063221412233216e+18
14437.0	1.7060167673708541e+18
14438.0	1.7055050622828544e+18
14439.0	1.7053703211057147e+18
14440.0	1.7050801524441085e+18
14441.0	1.7047571574816763e+18
14442.0	1.7044362932256765e+18
14443.0	1.704071454208819e+18
14444.0	1.703824112746496e+18
14445.0	1.703453306073907e+18
14446.0	1.701283441619764e+18
14447.0	1.7028076063948797e+18
14448.0	1.7025174561882107e+18
14449.0	1.7022028733218808e+18
14450.0	1.7018856178450427e+18
14451.0	1.70157468066775e+18
14452.0	1.7012644800102395e+18
14453.0	1.7009377990934523e+18
14454.0	1.7006297811517435e+18
14455.0	1.7003116817809405e+18
14456.0	1.6999877137399803e+18
14457.0	1.6996834924822525e+18
14458.0	1.699361838019379e+18
14459.0	1.6990299813314557e+18
14460.0	1.6986705127014397e+18
14461.0	1.6981243807662077e+18
14462.0	1.697122093105152e+18
14463.0	1.6975609984974843e+18
14464.0	1.6973702751059965e+18
14465.0	1.6970606868168704e+18
14466.0	1.696792865406976e+18
14467.0	1.69645867836375e+18
14468.0	1.696178124724633e+18
14469.0	1.6957163469537275e+18
14470.0	1.6955139852075003e+18
14471.0	1.6952445900947453e+18
14472.0	1.6949388052004861e+18
14473.0	1.6946325555773435e+18
14474.0	1.6943287436836861e+18
14475.0	1.6940150516875261e+18
14476.0	1.6936422317490176e+18
14477.0	1.6933863758495744e+18
14478.0	1.6930816714080253e+18
14479.0	1.6927617835859968e+18
14480.0	1.6924364767231995e+18
14481.0	1.6921523361153021e+18
14482.0	1.6918362802094075e+18
14483.0	1.6915161088524285e+18
14484.0	1.6912048529080315e+18
14485.0	1.6908546520121344e+18
14486.0	1.690200530170675e+18
14487.0	1.6902791112949757e+18
14488.0	1.6898905174179837e+18
14489.0	1.6894998750429181e+18
14490.0	1.689314859260313e+18
14491.0	1.6890401457700861e+18
14492.0	1.6887299333685243e+18
14493.0	1.688390880932659e+18
14494.0	1.6880433224482813e+18
14495.0	1.687733101658112e+18
14496.0	1.68724706403287e+18
14497.0	1.6871123731873787e+18
14498.0	1.6868034224324603e+18
14499.0	1.6864925993402363e+18
14500.0	1.6861809508089853e+18
14501.0	1.6858352109748221e+18
14502.0	1.6852200542175232e+18
14503.0	1.685206397563699e+18
14504.0	1.6849290919935997e+18
14505.0	1.6845992770928635e+18
14506.0	1.6842600082309112e+18
14507.0	1.6836778807787515e+18
14508.0	1.683692688349593e+18
14509.0	1.6833830396624893e+18
14510.0	1.683067728664985e+18
14511.0	1.6827607995645944e+18
14512.0	1.6824297783820288e+18
14513.0	1.6821383665287163e+18
14514.0	1.6817845618868221e+18
14515.0	1.681510896972595e+18
14516.0	1.6778825639657495e+18
14517.0	1.6808787532840957e+18
14518.0	1.6805832343683072e+18
14519.0	1.6802668949274621e+18
14520.0	1.6799618146762747e+18
14521.0	1.6796513707491325e+18
14522.0	1.679331293344563e+18
14523.0	1.6788269349994493e+18
14524.0	1.6786468382965752e+18
14525.0	1.6784006964051963e+18
14526.0	1.6780896048775163e+18
14527.0	1.6777595366408187e+18
14528.0	1.6772863503630339e+18
14529.0	1.6771516125413379e+18
14530.0	1.6768314780942333e+18
14531.0	1.676541760739737e+18
14532.0	1.6761525914042365e+18
14533.0	1.675922230162227e+18
14534.0	1.6756137676242944e+18
14535.0	1.6752887963058179e+18
14536.0	1.6749870614315003e+18
14537.0	1.674662501154816e+18
14538.0	1.67437071852503e+18
14539.0	1.6740602578206715e+18
14540.0	1.6737494447947776e+18
14541.0	1.673409130712268e+18
14542.0	1.6731246528823296e+18
14543.0	1.6727641239322624e+18
14544.0	1.6725032365457405e+18
14545.0	1.6721702004195323e+18
14546.0	1.6652840625766356e+18
14547.0	1.6654715597094858e+18
14548.0	1.671235808473907e+18
14549.0	1.670789217438924e+18
14550.0	1.6706130147278843e+18
14551.0	1.6702719188271104e+18
14552.0	1.6699599313960957e+18
14553.0	1.669639043651993e+18
14554.0	1.6693399763550205e+18
14555.0	1.6690286633680893e+18
14556.0	1.6687160686018557e+18
14557.0	1.668405294163558e+18
14558.0	1.6680867871064061e+18
14559.0	1.6653068376473551e+18
14560.0	1.6674413390856187e+18
14561.0	1.6671485850550267e+18
14562.0	1.6667830615277565e+18
14563.0	1.666515723301683e+18
14564.0	1.666075405267763e+18
14565.0	1.6659152549969912e+18
14566.0	1.6656058462240765e+18
14567.0	1.665283540805222e+18
14568.0	1.6649084609757181e+18
14569.0	1.664660723571097e+18
14570.0	1.6636277537374203e+18
14571.0	1.6640401779720192e+18
14572.0	1.663533732541235e+18
14573.0	1.6631339918819325e+18
14574.0	1.6626109302964221e+18
14575.0	1.662537306839449e+18
14576.0	1.662223411838976e+18
14577.0	1.6619697772429307e+18
14578.0	1.661656882164531e+18
14579.0	1.661356360282931e+18
14580.0	1.661042282410803e+18
14581.0	1.6607141536202747e+18
14582.0	1.660394965408153e+18
14583.0	1.6601121954988032e+18
14584.0	1.6597195197251581e+18
14585.0	1.6594881166180352e+18
14586.0	1.6591760302014456e+18
14587.0	1.6588678881083387e+18
14588.0	1.6585576924839933e+18
14589.0	1.6582508036489208e+18
14590.0	1.657944193315635e+18
14591.0	1.6576200625356797e+18
14592.0	1.6573119976177661e+18
14593.0	1.656864277476147e+18
14594.0	1.656712108127027e+18
14595.0	1.65639225385943e+18
14596.0	1.6551658360143857e+18
14597.0	1.6546522149683185e+18
14598.0	1.655370932446822e+18
14599.0	1.6551668829126656e+18
14600.0	1.654836247606067e+18
14601.0	1.6545356116393981e+18
14602.0	1.6541776177266685e+18
14603.0	1.6539141265162237e+18
14604.0	1.6534913842937853e+18
14605.0	1.6531131822243837e+18
14606.0	1.652875709120512e+18
14607.0	1.6526798451900408e+18
14608.0	1.652367778906112e+18
14609.0	1.6520235842535421e+18
14610.0	1.6514931004276733e+18
14611.0	1.651369093313331e+18
14612.0	1.6511455922749435e+18
14613.0	1.650852086625075e+18
14614.0	1.650534022486425e+18
14615.0	1.6502139400486912e+18
14616.0	1.6498802714214395e+18
14617.0	1.6495479835590653e+18
14618.0	1.6491982490697725e+18
14619.0	1.648242734609201e+18
14620.0	1.6462371425878019e+18
14621.0	1.6483294275174397e+18
14622.0	1.648024776762982e+18
14623.0	1.6477214849630203e+18
14624.0	1.6473356073172992e+18
14625.0	1.6470996944945147e+18
14626.0	1.6467824658612221e+18
14627.0	1.6464713592340477e+18
14628.0	1.646177065055027e+18
14629.0	1.6458655842959357e+18
14630.0	1.6455273421996032e+18
14631.0	1.6452386801319933e+18
14632.0	1.6444951189520384e+18
14633.0	1.6445418653089784e+18
14634.0	1.6442851470606333e+18
14635.0	1.6435534977040364e+18
14636.0	1.6424522060136443e+18
14637.0	1.6433879502028797e+18
14638.0	1.6430184102100987e+18
14639.0	1.6426976633946107e+18
14640.0	1.6424455655915515e+18
14641.0	1.6405200159899633e+18
14642.0	1.6418184802336765e+18
14643.0	1.6415081000599547e+18
14644.0	1.6411729835589624e+18
14645.0	1.6408533792718843e+18
14646.0	1.640512914194432e+18
14647.0	1.6400907709186043e+18
