# Flux units: erg / (cm m2 s)
# Wavelength units: Angstrom
wave	flux
14000.0	1.0044659183124477e+18
14001.0	1.0041615661924353e+18
14002.0	1.004230561654374e+18
14003.0	1.0041156008148991e+18
14004.0	1.0039985008803839e+18
14005.0	1.0038814261116927e+18
14006.0	1.003761932907315e+18
14007.0	1.0036449252474877e+18
14008.0	1.0034845921050621e+18
14009.0	1.0034133292023805e+18
14010.0	1.0032944601104381e+18
14011.0	1.0029860051222527e+18
14012.0	1.0030627340419072e+18
14013.0	1.0029458924765181e+18
14014.0	1.0028290819489791e+18
14015.0	1.0027122974261245e+18
14016.0	1.0025955431022591e+18
14017.0	1.0024788214939647e+18
14018.0	1.0023374944206847e+18
14019.0	1.0022454286090239e+18
14020.0	1.0021288412184573e+18
14021.0	1.0020122328563711e+18
14022.0	1.001895656370995e+18
14023.0	1.0017791058903036e+18
14024.0	1.0016625847697405e+18
14025.0	1.0015460930093055e+18
14026.0	1.0014296314478591e+18
14027.0	1.0013131958910975e+18
14028.0	1.0011967964053503e+18
14029.0	1.0010803759480831e+18
14030.0	1.0008933250891775e+18
14031.0	1.0008446661296124e+18
14032.0	1.0007311061876735e+18
14033.0	1.0006084907433983e+18
14034.0	1.000498886030131e+18
14035.0	1.0003826811600893e+18
14036.0	1.0002577697538047e+18
14037.0	1.000147881505587e+18
14038.0	1.0000342443884541e+18
14039.0	9.999181544423423e+17
14040.0	9.998015737626621e+17
14041.0	9.996858462044157e+17
14042.0	9.995688192507901e+17
14043.0	9.994425186910205e+17
14044.0	9.993198269104128e+17
14045.0	9.992061855989759e+17
14046.0	9.991063393533951e+17
14047.0	9.989904792551421e+17
14048.0	9.988746476781567e+17
14049.0	9.987588471390205e+17
14050.0	9.986430793154557e+17
14051.0	9.985254525763583e+17
14052.0	9.984116015497216e+17
14053.0	9.98295924323123e+17
14054.0	9.981802630348799e+17
14055.0	9.980646336233472e+17
14056.0	9.979490302164992e+17
14057.0	9.978334578475005e+17
14058.0	9.977177940426751e+17
14059.0	9.975797712420863e+17
14060.0	9.974869068349437e+17
14061.0	9.973694738726911e+17
14062.0	9.972560145940477e+17
14063.0	9.971376395911165e+17
14064.0	9.970011175124991e+17
14065.0	9.969071860744191e+17
14066.0	9.96794573206323e+17
14067.0	9.966792843722751e+17
14068.0	9.965640215429119e+17
14069.0	9.964487905902591e+17
14070.0	9.96333585642291e+17
14071.0	9.962184066990077e+17
14072.0	9.961032604712959e+17
14073.0	9.959881436037119e+17
14074.0	9.958730468687872e+17
14075.0	9.95755237258035e+17
14076.0	9.956429448347645e+17
14077.0	9.955125288239103e+17
14078.0	9.954129585635327e+17
14079.0	9.95298011984691e+17
14080.0	9.951758679801855e+17
14081.0	9.950669570047996e+17
14082.0	9.949533316317183e+17
14083.0	9.948384932659199e+17
14084.0	9.94723685937971e+17
14085.0	9.945557569110013e+17
14086.0	9.944865374732285e+17
14087.0	9.943634354896893e+17
14088.0	9.942628007149565e+17
14089.0	9.941500578234365e+17
14090.0	9.940354191065087e+17
14091.0	9.939208013611004e+17
14092.0	9.938062180089855e+17
14093.0	9.936916589838336e+17
14094.0	9.935771293188093e+17
14095.0	9.934626298527741e+17
14096.0	9.933477294112765e+17
14097.0	9.932315429961727e+17
14098.0	9.931192925159421e+17
14099.0	9.930049012629503e+17
14100.0	9.928868156669951e+17
14101.0	9.92776208515072e+17
14102.0	9.926618961149951e+17
14103.0	9.925418920443901e+17
14104.0	9.924333719781375e+17
14105.0	9.923191493361663e+17
14106.0	9.922049543766016e+17
14107.0	9.920712718417917e+17
14108.0	9.919766491824127e+17
14109.0	9.918625355923455e+17
14110.0	9.91748452201267e+17
14111.0	9.916343973314557e+17
14112.0	9.915203718217724e+17
14113.0	9.914063698001919e+17
14114.0	9.91290295792435e+17
14115.0	9.911784529985532e+17
14116.0	9.910645340241919e+17
14117.0	9.908260182163455e+17
14118.0	9.908367799615485e+17
14119.0	9.90722949067571e+17
14120.0	9.906091399839741e+17
14121.0	9.90495361938227e+17
14122.0	9.903787334434816e+17
14123.0	9.902678863773695e+17
14124.0	9.901541897011199e+17
14125.0	9.899396594401277e+17
14126.0	9.899268793958399e+17
14127.0	9.898132674445311e+17
14128.0	9.896996789813245e+17
14129.0	9.895840915128319e+17
14130.0	9.894673178951677e+17
14131.0	9.893556143521791e+17
14132.0	9.892455742701565e+17
14133.0	9.890136443584508e+17
14134.0	9.890001445715967e+17
14135.0	9.889028971167741e+17
14136.0	9.887919745531903e+17
14137.0	9.886786385870845e+17
14138.0	9.885648680910847e+17
14139.0	9.884518047547391e+17
14140.0	9.883385795182591e+17
14141.0	9.882254700445695e+17
14142.0	9.88105572509286e+17
14143.0	9.879991764385791e+17
14144.0	9.878859251974141e+17
14145.0	9.877719114317821e+17
14146.0	9.876598060744703e+17
14147.0	9.875467402215423e+17
14148.0	9.874336978567165e+17
14149.0	9.873206873686016e+17
14150.0	9.872077003685887e+17
14151.0	9.87094746923008e+17
14152.0	9.869818136100864e+17
14153.0	9.86868907979571e+17
14154.0	9.867519665897471e+17
14155.0	9.866250570170367e+17
14156.0	9.865284554850303e+17
14157.0	9.864175689924605e+17
14158.0	9.863047984185341e+17
14159.0	9.861919733186557e+17
14160.0	9.860782338605055e+17
14161.0	9.85954012836659e+17
14162.0	9.858317950124031e+17
14163.0	9.857263695036413e+17
14164.0	9.856262103629821e+17
14165.0	9.855127846387711e+17
14166.0	9.854036077445119e+17
14167.0	9.852887819616255e+17
14168.0	9.851786059841532e+17
14169.0	9.850661348835327e+17
14170.0	9.849528735760383e+17
14171.0	9.848402649022463e+17
14172.0	9.84728881804083e+17
14173.0	9.846133085962239e+17
14174.0	9.845039379251199e+17
14175.0	9.843918703165437e+17
14176.0	9.842795862818816e+17
14177.0	9.841673299296255e+17
14178.0	9.840551004209151e+17
14179.0	9.839428969168893e+17
14180.0	9.838307210952703e+17
14181.0	9.837185721171965e+17
14182.0	9.836064483049468e+17
14183.0	9.834943538528253e+17
14184.0	9.833822820499455e+17
14185.0	9.83270241284915e+17
14186.0	9.831254648160255e+17
14187.0	9.830412431917055e+17
14188.0	9.829309455794173e+17
14189.0	9.828211781271551e+17
14190.0	9.827104250134527e+17
14191.0	9.825985419542527e+17
14192.0	9.824849476190205e+17
14193.0	9.823719253868541e+17
14194.0	9.822630555156477e+17
14195.0	9.821512781529085e+17
14196.0	9.820395276337151e+17
14197.0	9.819278039580672e+17
14198.0	9.81814415143731e+17
14199.0	9.817041510858751e+17
14200.0	9.815784066908156e+17
14201.0	9.814806005547005e+17
14202.0	9.813693399302141e+17
14203.0	9.812570676396031e+17
14204.0	9.811464789426173e+17
14205.0	9.810349658210303e+17
14206.0	9.808973205078016e+17
14207.0	9.808120217862144e+17
14208.0	9.8070058500096e+17
14209.0	9.805603140534271e+17
14210.0	9.804583740112893e+17
14211.0	9.803664440950781e+17
14212.0	9.802551172005885e+17
14213.0	9.801438171496447e+17
14214.0	9.800325380702205e+17
14215.0	9.799167736020991e+17
14216.0	9.798100671528959e+17
14217.0	9.796988719595517e+17
14218.0	9.795876893491196e+17
14219.0	9.794767189704701e+17
14220.0	9.793656974213119e+17
14221.0	9.792546037301245e+17
14222.0	9.791435419156477e+17
14223.0	9.790325002338301e+17
14224.0	9.789214862344191e+17
14225.0	9.787580652453885e+17
14226.0	9.786994926288893e+17
14227.0	9.785796395532285e+17
14228.0	9.782665859301373e+17
14229.0	9.78329966896742e+17
14230.0	9.782559097487359e+17
14231.0	9.781450484219903e+17
14232.0	9.780342432989184e+17
14233.0	9.779234625028095e+17
14234.0	9.778127077113855e+17
14235.0	9.777019814412284e+17
14236.0	9.775912803368957e+17
14237.0	9.77480605237248e+17
14238.0	9.773699511091199e+17
14239.0	9.772579808083967e+17
14240.0	9.765995933597695e+17
14241.0	9.770381598523391e+17
14242.0	9.76927611420672e+17
14243.0	9.767838675894271e+17
14244.0	9.767065934102527e+17
14245.0	9.765952497385471e+17
14246.0	9.764841854074877e+17
14247.0	9.76375262688051e+17
14248.0	9.762580117585919e+17
14249.0	9.761545038856191e+17
14250.0	9.760441634914301e+17
14251.0	9.759338499407871e+17
14252.0	9.758232536940544e+17
14253.0	9.757112733270013e+17
14254.0	9.756022532997119e+17
14255.0	9.754825210200064e+17
14256.0	9.753381723701245e+17
14257.0	9.752681476259839e+17
14258.0	9.751623597293565e+17
14259.0	9.750497661550591e+17
14260.0	9.749375811059711e+17
14261.0	9.748329181216767e+17
14262.0	9.747383063674877e+17
14263.0	9.745634483503103e+17
14264.0	9.745076339081216e+17
14265.0	9.744083572490237e+17
14266.0	9.74298423702323e+17
14267.0	9.741885253877759e+17
14268.0	9.740786396561405e+17
14269.0	9.739687816069117e+17
14270.0	9.738589512400895e+17
14271.0	9.73749146039091e+17
14272.0	9.736393660039165e+17
14273.0	9.735296102957055e+17
14274.0	9.733249576206335e+17
14275.0	9.733019753512959e+17
14276.0	9.732004731944957e+17
14277.0	9.730900547862527e+17
14278.0	9.729812184694781e+17
14279.0	9.728713520316413e+17
14280.0	9.727603598426111e+17
14281.0	9.726524873768959e+17
14282.0	9.725429564833791e+17
14283.0	9.724334549499901e+17
14284.0	9.723239769047037e+17
14285.0	9.722145240252413e+17
14286.0	9.721051005059071e+17
14287.0	9.719952986603519e+17
14288.0	9.718863205761021e+17
14289.0	9.714192839868407e+17
14290.0	9.716676413095935e+17
14291.0	9.715583494914045e+17
14292.0	9.714490870333439e+17
14293.0	9.71339832963891e+17
14294.0	9.712004805689344e+17
14295.0	9.711193123979264e+17
14296.0	9.707269839126528e+17
14297.0	9.709029836193791e+17
14298.0	9.707436059394047e+17
14299.0	9.706840979931136e+17
14300.0	9.705757868031999e+17
14301.0	9.704667348991999e+17
14302.0	9.703568365846527e+17
14303.0	9.702423765450752e+17
14304.0	9.701353823666176e+17
14305.0	9.700307512590336e+17
14306.0	9.699218344116223e+17
14307.0	9.698129251139583e+17
14308.0	9.69704046015283e+17
14309.0	9.695951929212928e+17
14310.0	9.694845127884799e+17
14311.0	9.693602548547581e+17
14312.0	9.69256085120614e+17
14313.0	9.690097704239103e+17
14314.0	9.69051294872371e+17
14315.0	9.689425885790208e+17
14316.0	9.688223051677695e+17
14317.0	9.687252363902972e+17
14318.0	9.686166164996092e+17
14319.0	9.685080100306944e+17
14320.0	9.683994262110208e+17
14321.0	9.682908675571711e+17
14322.0	9.681738867408893e+17
14323.0	9.680702815600637e+17
14324.0	9.679653400739836e+17
14325.0	9.678568837611519e+17
14326.0	9.677484442255357e+17
14327.0	9.676400340500476e+17
14328.0	9.675298647834621e+17
14329.0	9.674232841633791e+17
14330.0	9.673149427744767e+17
14331.0	9.672066290679805e+17
14332.0	9.670983405273087e+17
14333.0	9.669900763136e+17
14334.0	9.66881833071411e+17
14335.0	9.667692587909119e+17
14336.0	9.666607001370623e+17
14337.0	9.665572585340925e+17
14338.0	9.664491142774783e+17
14339.0	9.663409951866877e+17
14340.0	9.662328970674175e+17
14341.0	9.661247846875132e+17
14342.0	9.660118002040832e+17
14343.0	9.659087058894845e+17
14344.0	9.657889543159805e+17
14345.0	9.656862894981119e+17
14346.0	9.655848343175167e+17
14347.0	9.654753210400768e+17
14348.0	9.653690046611455e+17
14349.0	9.652611271622655e+17
14350.0	9.651503128117247e+17
14351.0	9.650427071037437e+17
14352.0	9.649341291560957e+17
14353.0	9.648273119772671e+17
14354.0	9.647220978614271e+17
14355.0	9.646131222937599e+17
14356.0	9.645005178142719e+17
14357.0	9.643933592190975e+17
14358.0	9.642912782483456e+17
14359.0	9.641836163366911e+17
14360.0	9.640760005623804e+17
14361.0	9.639684124704765e+17
14362.0	9.63860843672371e+17
14363.0	9.63753301717811e+17
14364.0	9.636353696333823e+17
14365.0	9.635365392482303e+17
14366.0	9.634282205085695e+17
14367.0	9.633233696194557e+17
14368.0	9.632156498264064e+17
14369.0	9.631079778484221e+17
14370.0	9.630004333772799e+17
14371.0	9.628938150084605e+17
14372.0	9.627864869634047e+17
14373.0	9.626775701159935e+17
14374.0	9.625681365303295e+17
14375.0	9.624562014617596e+17
14376.0	9.623573819817983e+17
14377.0	9.622501973819391e+17
14378.0	9.621430102654975e+17
14379.0	9.620358483148796e+17
14380.0	9.619287014637565e+17
14381.0	9.618215856504831e+17
14382.0	9.61714492486451e+17
14383.0	9.616074219716605e+17
14384.0	9.614975026855935e+17
14385.0	9.613933514063871e+17
14386.0	9.612839429865468e+17
14387.0	9.611793924096e+17
14388.0	9.610724376575999e+17
14389.0	9.60965498005094e+17
14390.0	9.608585927458813e+17
14391.0	9.607517118136319e+17
14392.0	9.606440532574208e+17
14393.0	9.605375187746812e+17
14394.0	9.604241232494591e+17
14395.0	9.60322436543283e+17
14396.0	9.602150304841725e+17
14397.0	9.601109068873725e+17
14398.0	9.600041912107009e+17
14399.0	9.598949161697277e+17
14400.0	9.597845162164221e+17
14401.0	9.596839477116927e+17
14402.0	9.595774987927553e+17
14403.0	9.594233287606268e+17
14404.0	9.584350760796151e+17
14405.0	9.586458641825777e+17
14406.0	9.591512258052093e+17
14407.0	9.589713262346239e+17
14408.0	9.589380830199805e+17
14409.0	9.588250272333821e+17
14410.0	9.58725320238694e+17
14411.0	9.586189048741885e+17
14412.0	9.585111540432893e+17
14413.0	9.584061370597376e+17
14414.0	9.582997871263741e+17
14415.0	9.581934623588352e+17
14416.0	9.580871560462335e+17
14417.0	9.579808790937599e+17
14418.0	9.57874623112806e+17
14419.0	9.577683839090685e+17
14420.0	9.576607295471613e+17
14421.0	9.575551396216831e+17
14422.0	9.574494255448063e+17
14423.0	9.57342341608243e+17
14424.0	9.569467113668604e+17
14425.0	9.571305451945981e+17
14426.0	9.570253738606591e+17
14427.0	9.569175945084927e+17
14428.0	9.568092027879423e+17
14429.0	9.567044148133887e+17
14430.0	9.566012567453693e+17
14431.0	9.564741357797375e+17
14432.0	9.563894007726077e+17
14433.0	9.562263488823293e+17
14434.0	9.561744015884285e+17
14435.0	9.560685667155965e+17
14436.0	9.55965300434534e+17
14437.0	9.558597675515903e+17
14438.0	9.557519328346111e+17
14439.0	9.556479300337664e+17
14440.0	9.555426395815935e+17
14441.0	9.554301047275519e+17
14442.0	9.553202718441471e+17
14443.0	9.5520489996288e+17
14444.0	9.551183219785727e+17
14445.0	9.550141866377216e+17
14446.0	9.545878096314368e+17
14447.0	9.548015010316287e+17
14448.0	9.546973824679932e+17
14449.0	9.545918227415037e+17
14450.0	9.544862906974205e+17
14451.0	9.543807796248575e+17
14452.0	9.54275290362675e+17
14453.0	9.541698245885952e+17
14454.0	9.540639989432319e+17
14455.0	9.539570534187005e+17
14456.0	9.538530757836799e+17
14457.0	9.537476964122623e+17
14458.0	9.53642168562483e+17
14459.0	9.535366465847295e+17
14460.0	9.534321740218367e+17
14461.0	9.533236053016575e+17
14462.0	9.53206406381568e+17
14463.0	9.531163714519039e+17
14464.0	9.530111086821373e+17
14465.0	9.52894022169395e+17
14466.0	9.528003365175293e+17
14467.0	9.526933775712253e+17
14468.0	9.525904728391676e+17
14469.0	9.524693614723071e+17
14470.0	9.523713758199804e+17
14471.0	9.52271448204902e+17
14472.0	9.521701507301375e+17
14473.0	9.520651236802559e+17
14474.0	9.519601201184767e+17
14475.0	9.518550813245439e+17
14476.0	9.517467575517183e+17
14477.0	9.516452361011199e+17
14478.0	9.515403281694719e+17
14479.0	9.514350737883136e+17
14480.0	9.513269177876477e+17
14481.0	9.512257008435199e+17
14482.0	9.511207274807293e+17
14483.0	9.510135084875776e+17
14484.0	9.509092800331773e+17
14485.0	9.507981653704703e+17
14486.0	9.506262316220413e+17
14487.0	9.50597053526835e+17
14488.0	9.504923536326653e+17
14489.0	9.503857025482748e+17
14490.0	9.502830201143295e+17
14491.0	9.501783822958591e+17
14492.0	9.500737285390332e+17
14493.0	9.499691846729727e+17
14494.0	9.498603080908799e+17
14495.0	9.49760063386419e+17
14496.0	9.496218661027837e+17
14497.0	9.495502852718591e+17
14498.0	9.494455308517373e+17
14499.0	9.493416035483647e+17
14500.0	9.492375814537213e+17
14501.0	9.491332162650111e+17
14502.0	9.489531925430271e+17
14503.0	9.489217654620159e+17
14504.0	9.488186661142527e+17
14505.0	9.487147186782208e+17
14506.0	9.486089978904573e+17
14507.0	9.484448613531647e+17
14508.0	9.48401637372723e+17
14509.0	9.482985388638207e+17
14510.0	9.481929128673277e+17
14511.0	9.48090021557043e+17
14512.0	9.479824099770367e+17
14513.0	9.478817567473664e+17
14514.0	9.47770469279334e+17
14515.0	9.476734869045247e+17
14516.0	9.466042321469446e+17
14517.0	9.474653026254845e+17
14518.0	9.473612402655231e+17
14519.0	9.472431295037439e+17
14520.0	9.471522003484671e+17
14521.0	9.470488258543613e+17
14522.0	9.469452173180927e+17
14523.0	9.468387893706752e+17
14524.0	9.467346011815936e+17
14525.0	9.466320261218301e+17
14526.0	9.465295282372608e+17
14527.0	9.464195292594175e+17
14528.0	9.462743660756992e+17
14529.0	9.462153379577855e+17
14530.0	9.461104073768957e+17
14531.0	9.460121792937983e+17
14532.0	9.459065574916095e+17
14533.0	9.45807444410368e+17
14534.0	9.457037553434623e+17
14535.0	9.456000503382013e+17
14536.0	9.454963671433213e+17
14537.0	9.453898704093181e+17
14538.0	9.452890586349565e+17
14539.0	9.451854391934976e+17
14540.0	9.450818382069759e+17
14541.0	9.449782590308348e+17
14542.0	9.448746974707712e+17
14543.0	9.447690110763007e+17
14544.0	9.446667422007295e+17
14545.0	9.445641394585599e+17
14546.0	9.438531319496699e+17
14547.0	9.437547151228922e+17
14548.0	9.442511663661055e+17
14549.0	9.441205691613184e+17
14550.0	9.440469540929536e+17
14551.0	9.439435787599873e+17
14552.0	9.438393511444477e+17
14553.0	9.437310030446591e+17
14554.0	9.436335727181823e+17
14555.0	9.435302795935744e+17
14556.0	9.434261962620927e+17
14557.0	9.433236623065089e+17
14558.0	9.432205445038077e+17
14559.0	9.423983401238514e+17
14560.0	9.430141428039677e+17
14561.0	9.429085059022847e+17
14562.0	9.428029210099711e+17
14563.0	9.427046300123136e+17
14564.0	9.42582150463488e+17
14565.0	9.424984740986876e+17
14566.0	9.423953982390268e+17
14567.0	9.422923500617727e+17
14568.0	9.421893161451519e+17
14569.0	9.420863057166335e+17
14570.0	9.417927782563836e+17
14571.0	9.418803377078271e+17
14572.0	9.417676459868159e+17
14573.0	9.416635198734336e+17
14574.0	9.415686497501184e+17
14575.0	9.41468616438579e+17
14576.0	9.413657737822208e+17
14577.0	9.412629202206719e+17
14578.0	9.411594979115007e+17
14579.0	9.410572734955517e+17
14580.0	9.409544752988157e+17
14581.0	9.408516980736e+17
14582.0	9.407489376255999e+17
14583.0	9.406462191206396e+17
14584.0	9.405414009470975e+17
14585.0	9.404408014045181e+17
14586.0	9.403381248425981e+17
14587.0	9.402348610781181e+17
14588.0	9.4160478619566e+17
14589.0	9.43302299038515e+17
14590.0	9.432011978571775e+17
14591.0	9.431001117753341e+17
14592.0	9.429990475038719e+17
14593.0	9.42867647509299e+17
14594.0	9.427969785200637e+17
14595.0	9.426959696134144e+17
14596.0	9.425809903190012e+17
14597.0	9.424779052318717e+17
14598.0	9.423917013794813e+17
14599.0	9.422921411854335e+17
14600.0	9.421912346198016e+17
14601.0	9.420903439925248e+17
14602.0	9.419894634315775e+17
14603.0	9.41888601325568e+17
14604.0	9.417732386717693e+17
14605.0	9.416657604706301e+17
14606.0	9.415569627414527e+17
14607.0	9.41480868000563e+17
14608.0	9.41370327118643e+17
14609.0	9.412636122808317e+17
14610.0	9.411577874743293e+17
14611.0	9.410548089225213e+17
14612.0	9.409817332416511e+17
14613.0	9.408811420876799e+17
14614.0	9.407641252003837e+17
14615.0	9.406702566768637e+17
14616.0	9.40579214275379e+17
14617.0	9.404478436409341e+17
14618.0	9.403564363350013e+17
14619.0	9.40269355873075e+17
14620.0	9.401491362152445e+17
14621.0	9.400764690595839e+17
14622.0	9.399759768911871e+17
14623.0	9.398748723544063e+17
14624.0	9.389882107494395e+17
14625.0	9.364764408938495e+17
14626.0	9.36311288496128e+17
14627.0	9.362150191529983e+17
14628.0	9.361361360388093e+17
14629.0	9.360488173404157e+17
14630.0	9.359049409691647e+17
14631.0	9.356460005785599e+17
14632.0	9.354192497934335e+17
14633.0	9.355953971396604e+17
14634.0	9.35876350915379e+17
14635.0	9.355566300266493e+17
14636.0	9.346656935870464e+17
14637.0	9.351609024774144e+17
14638.0	9.35894657374617e+17
14639.0	9.343576018255873e+17
14640.0	9.347058985074689e+17
14641.0	9.357175537270778e+17
14642.0	9.334927145304065e+17
14643.0	9.355510306308092e+17
14644.0	9.3423449145344e+17
14645.0	9.339392996933633e+17
14646.0	9.353309798268923e+17
14647.0	9.327758643560449e+17
14648.0	9.358800913956858e+17
14649.0	9.321098508238852e+17
14650.0	9.359942016303099e+17
14651.0	9.31720845905101e+17
14652.0	9.35701807471001e+17
14653.0	9.318908435628033e+17
14654.0	9.347848562802684e+17
14655.0	9.331052002672637e+17
14656.0	9.326776631164927e+17
14657.0	9.351669993177082e+17
14658.0	9.300609148649476e+17
14659.0	9.358852638113786e+17
14660.0	9.309613975404547e+17
14661.0	9.332121483083772e+17
14662.0	9.35187106811084e+17
14663.0	9.287083810095109e+17
14664.0	9.351215355789304e+17
