# Flux units: erg / (cm m2 s)
# Wavelength units: Angstrom
wave	flux
14000.0	1.6056841536536556e+18
14001.0	1.6055055803219968e+18
14002.0	1.605370928064102e+18
14003.0	1.6050821233901565e+18
14004.0	1.604780727415603e+18
14005.0	1.6044869868847101e+18
14006.0	1.6041801433481213e+18
14007.0	1.6038817806942203e+18
14008.0	1.6034819695706112e+18
14009.0	1.6032930111422461e+18
14010.0	1.6029852851240957e+18
14011.0	1.6019564877840381e+18
14012.0	1.6024036895096832e+18
14013.0	1.6021066371563515e+18
14014.0	1.6018034913181696e+18
14015.0	1.601509723943731e+18
14016.0	1.601213659768422e+18
14017.0	1.6009180150235133e+18
14018.0	1.6006140387131387e+18
14019.0	1.6003241116434424e+18
14020.0	1.6000265727508477e+18
14021.0	1.599728929839513e+18
14022.0	1.5994101644132347e+18
14023.0	1.5990717058908157e+18
14024.0	1.5987876307140605e+18
14025.0	1.5985388195676157e+18
14026.0	1.5982451914440704e+18
14027.0	1.5979508049903616e+18
14028.0	1.597654386815795e+18
14029.0	1.5973571432022013e+18
14030.0	1.5913543945682982e+18
14031.0	1.5965032466612209e+18
14032.0	1.5964590269530112e+18
14033.0	1.596070236782592e+18
14034.0	1.595869403440742e+18
14035.0	1.5955815701676024e+18
14036.0	1.595272639545344e+18
14037.0	1.594987987232358e+18
14038.0	1.5946948758470656e+18
14039.0	1.5943951324282877e+18
14040.0	1.5940950098444288e+18
14041.0	1.593803671810867e+18
14042.0	1.593497881883443e+18
14043.0	1.5931707630813181e+18
14044.0	1.5929037302005752e+18
14045.0	1.5926181199085563e+18
14046.0	1.5921462053437435e+18
14047.0	1.5917106520391677e+18
14048.0	1.5914313986342912e+18
14049.0	1.5911484794077181e+18
14050.0	1.5908536198365181e+18
14051.0	1.5905493599911933e+18
14052.0	1.590263602059673e+18
14053.0	1.5899690813882363e+18
14054.0	1.5896744281767933e+18
14055.0	1.5893797799985147e+18
14056.0	1.589085138531123e+18
14057.0	1.5887906732244987e+18
14058.0	1.5884960971882493e+18
14059.0	1.588189604295475e+18
14060.0	1.5879068243197947e+18
14061.0	1.5876051884310525e+18
14062.0	1.587318984225587e+18
14063.0	1.5870066646056957e+18
14064.0	1.585520582433178e+18
14065.0	1.586426664504524e+18
14066.0	1.5861420121915387e+18
14067.0	1.585786657334886e+18
14068.0	1.5855529020620797e+18
14069.0	1.5852489056190467e+18
14070.0	1.5849639815151616e+18
14071.0	1.5846706906136576e+18
14072.0	1.5843805018193915e+18
14073.0	1.5840870230130688e+18
14074.0	1.5837936582918141e+18
14075.0	1.583477521855283e+18
14076.0	1.5831365131960315e+18
14077.0	1.5815715177103365e+18
14078.0	1.582523170055782e+18
14079.0	1.5823167549341693e+18
14080.0	1.5820344833081341e+18
14081.0	1.581741556472217e+18
14082.0	1.581444346413056e+18
14083.0	1.5811524194992123e+18
14084.0	1.5808625880596475e+18
14085.0	1.5796758416195576e+18
14086.0	1.5801712862298107e+18
14087.0	1.5799804235874304e+18
14088.0	1.579661799089766e+18
14089.0	1.5793512259780603e+18
14090.0	1.5787434696507387e+18
14091.0	1.5784143627485181e+18
14092.0	1.5781223402045437e+18
14093.0	1.5778302421630976e+18
14094.0	1.577538169287475e+18
14095.0	1.577245972260454e+18
14096.0	1.576702034785075e+18
14097.0	1.5766123437883387e+18
14098.0	1.5762549387558912e+18
14099.0	1.5760785649172475e+18
14100.0	1.575769011860275e+18
14101.0	1.5754960717217792e+18
14102.0	1.5752043595563005e+18
14103.0	1.5748943535144957e+18
14104.0	1.5746189857128443e+18
14105.0	1.5743300015226875e+18
14106.0	1.5740390476873725e+18
14107.0	1.5737412571365376e+18
14108.0	1.5734350058356733e+18
14109.0	1.5731590961299453e+18
14110.0	1.5728649311354875e+18
14111.0	1.5725709490126843e+18
14112.0	1.5722817819508733e+18
14113.0	1.5719660347457533e+18
14114.0	1.571695171626598e+18
14115.0	1.571412051073433e+18
14116.0	1.5709675504795648e+18
14117.0	1.5609528762499075e+18
14118.0	1.5705418655334397e+18
14119.0	1.5701036681396221e+18
14120.0	1.5698411634294781e+18
14121.0	1.569653367662182e+18
14122.0	1.569139644275097e+18
14123.0	1.5689691156185088e+18
14124.0	1.568642397791846e+18
14125.0	1.568005705800089e+18
14126.0	1.5681993433939968e+18
14127.0	1.5679368504279037e+18
14128.0	1.5676444285861888e+18
14129.0	1.5673434721746941e+18
14130.0	1.5670472066727933e+18
14131.0	1.5667738705919997e+18
14132.0	1.5664815494135803e+18
14133.0	1.5656027739389944e+18
14134.0	1.5659041783021563e+18
14135.0	1.5655678186094587e+18
14136.0	1.565077017932595e+18
14137.0	1.5650193261199357e+18
14138.0	1.5646405636915197e+18
14139.0	1.5644622034305021e+18
14140.0	1.5641647870115837e+18
14141.0	1.5638328883806203e+18
14142.0	1.5628586287366147e+18
14143.0	1.5632994081439741e+18
14144.0	1.563017762308096e+18
14145.0	1.5627275382816763e+18
14146.0	1.5624197870977021e+18
14147.0	1.5621399179689984e+18
14148.0	1.5618334468866043e+18
14149.0	1.561549876704051e+18
14150.0	1.5612846993833981e+18
14151.0	1.5609566427348992e+18
14152.0	1.560710073024512e+18
14153.0	1.5604216508710912e+18
14154.0	1.5601077743255544e+18
14155.0	1.5585870102921219e+18
14156.0	1.5592795922235382e+18
14157.0	1.5592680159444992e+18
14158.0	1.5589742250819584e+18
14159.0	1.5586928527147003e+18
14160.0	1.5583939934552064e+18
14161.0	1.5580573200285693e+18
14162.0	1.5577143417241595e+18
14163.0	1.5575355603550205e+18
14164.0	1.5569554142920701e+18
14165.0	1.5568735247007741e+18
14166.0	1.5566767128575997e+18
14167.0	1.5563773888692221e+18
14168.0	1.5560773082284024e+18
14169.0	1.555811350767206e+18
14170.0	1.5555108859281405e+18
14171.0	1.555237472672153e+18
14172.0	1.5549561053380605e+18
14173.0	1.554615383569203e+18
14174.0	1.5543684934139901e+18
14175.0	1.5540930048163837e+18
14176.0	1.5538040424366077e+18
14177.0	1.5535195058864125e+18
14178.0	1.553233393955635e+18
14179.0	1.5529372005957632e+18
14180.0	1.552661685154611e+18
14181.0	1.5523750866845693e+18
14182.0	1.5520876225101821e+18
14183.0	1.5518020810047488e+18
14184.0	1.5515100265840635e+18
14185.0	1.551228436112998e+18
14186.0	1.5492255888441344e+18
14187.0	1.5506274493923325e+18
14188.0	1.5503664328212475e+18
14189.0	1.550068699312947e+18
14190.0	1.5497846962782203e+18
14191.0	1.5494909708468221e+18
14192.0	1.5492173579419643e+18
14193.0	1.5486459930738685e+18
14194.0	1.5486387268616187e+18
14195.0	1.548369720980275e+18
14196.0	1.5480838925844477e+18
14197.0	1.5477983359795197e+18
14198.0	1.5475074609971195e+18
14199.0	1.547224105562931e+18
14200.0	1.5458482228559875e+18
14201.0	1.5465530722877432e+18
14202.0	1.5463674407813115e+18
14203.0	1.546062493070131e+18
14204.0	1.545784615396966e+18
14205.0	1.5454996678049792e+18
14206.0	1.545079541150515e+18
14207.0	1.5449319385595904e+18
14208.0	1.5446476234686456e+18
14209.0	1.5442214654050301e+18
14210.0	1.5439707248787453e+18
14211.0	1.5437882122567677e+18
14212.0	1.5435076099637248e+18
14213.0	1.5432096432521213e+18
14214.0	1.5429381224660987e+18
14215.0	1.5426338559098875e+18
14216.0	1.5423697791746043e+18
14217.0	1.5420860462530557e+18
14218.0	1.541790190115225e+18
14219.0	1.5415175553220605e+18
14220.0	1.5412215850991613e+18
14221.0	1.5409199861202941e+18
14222.0	1.5405459380895744e+18
14223.0	1.5403609357287416e+18
14224.0	1.5400831738183677e+18
14225.0	1.5362097374298135e+18
14226.0	1.5394782478073853e+18
14227.0	1.5392288175816701e+18
14228.0	1.5298687735431188e+18
14229.0	1.5361187059335107e+18
14230.0	1.5383802125746173e+18
14231.0	1.5379916321193984e+18
14232.0	1.537813555393331e+18
14233.0	1.5375252003487741e+18
14234.0	1.5372470961831933e+18
14235.0	1.5369608617787392e+18
14236.0	1.5366803802816512e+18
14237.0	1.5363924077576187e+18
14238.0	1.5361101495533565e+18
14239.0	1.5358069147959296e+18
14240.0	1.5336124213886973e+18
14241.0	1.5352276679917565e+18
14242.0	1.534955831794073e+18
14243.0	1.5345152168034301e+18
14244.0	1.534402646717235e+18
14245.0	1.5341003783274496e+18
14246.0	1.5338132228538363e+18
14247.0	1.5335499631689723e+18
14248.0	1.5332514595864573e+18
14249.0	1.5329871815245821e+18
14250.0	1.5327045022121981e+18
14251.0	1.5324247085809664e+18
14252.0	1.5321421886521344e+18
14253.0	1.5318587862417405e+18
14254.0	1.5315747345530875e+18
14255.0	1.531254543063449e+18
14256.0	1.5276505672187924e+18
14257.0	1.5304709380243443e+18
14258.0	1.530448305559961e+18
14259.0	1.530145814033203e+18
14260.0	1.5297715344769021e+18
14261.0	1.5295835608711165e+18
14262.0	1.5293364140244984e+18
14263.0	1.5242316574883866e+18
14264.0	1.5276084664729585e+18
14265.0	1.528468587361075e+18
14266.0	1.5281976504221693e+18
14267.0	1.527918298031718e+18
14268.0	1.5276326709624832e+18
14269.0	1.5273491410452477e+18
14270.0	1.5270739695370237e+18
14271.0	1.526791159362355e+18
14272.0	1.526510359098163e+18
14273.0	1.5262245944557565e+18
14274.0	1.5183770248282132e+18
14275.0	1.524973509070029e+18
14276.0	1.525367704859443e+18
14277.0	1.5250871327653885e+18
14278.0	1.5248244149846013e+18
14279.0	1.5245421500694525e+18
14280.0	1.5242558535892992e+18
14281.0	1.5239825477074941e+18
14282.0	1.5237021819731963e+18
14283.0	1.5234215226376187e+18
14284.0	1.5231408331030523e+18
14285.0	1.5228591654567936e+18
14286.0	1.5225642186440704e+18
14287.0	1.5222991621193728e+18
14288.0	1.5220188651716605e+18
14289.0	1.5204873167437809e+18
14290.0	1.521443701941862e+18
14291.0	1.5211643579400187e+18
14292.0	1.5208852622409725e+18
14293.0	1.520602514142003e+18
14294.0	1.5201709051609088e+18
14295.0	1.5200302617591803e+18
14296.0	1.518772272549069e+18
14297.0	1.5194780849930237e+18
14298.0	1.5181513763061757e+18
14299.0	1.518895623674265e+18
14300.0	1.518639756030771e+18
14301.0	1.5183644503048192e+18
14302.0	1.5180862169546744e+18
14303.0	1.5177705553133565e+18
14304.0	1.5175083895029757e+18
14305.0	1.5172461851049981e+18
14306.0	1.5168984219385853e+18
14307.0	1.5166378231201787e+18
14308.0	1.51639595941888e+18
14309.0	1.5161005109673981e+18
14310.0	1.515608057734758e+18
14311.0	1.5139935593955325e+18
14312.0	1.515078498333491e+18
14313.0	1.5148234309631997e+18
14314.0	1.5146825845571581e+18
14315.0	1.514447854528102e+18
14316.0	1.5141165330333693e+18
14317.0	1.5137570342043648e+18
14318.0	1.5136095272435707e+18
14319.0	1.5133323491803136e+18
14320.0	1.512876430013235e+18
14321.0	1.5125433922093056e+18
14322.0	1.5122268430532603e+18
14323.0	1.511966719030067e+18
14324.0	1.5117090730016763e+18
14325.0	1.5114241539309565e+18
14326.0	1.5111554869493752e+18
14327.0	1.510870668541952e+18
14328.0	1.5105917708140541e+18
14329.0	1.5103214160445435e+18
14330.0	1.510043219604275e+18
14331.0	1.509755062530867e+18
14332.0	1.5094876605513728e+18
14333.0	1.509209903674163e+18
14334.0	1.5089321618964477e+18
14335.0	1.508635775598592e+18
14336.0	1.5080096683524096e+18
14337.0	1.508098537265561e+18
14338.0	1.5078192939270144e+18
14339.0	1.5075271589756925e+18
14340.0	1.5072644160290813e+18
14341.0	1.5069641407725565e+18
14342.0	1.5067103786696704e+18
14343.0	1.506431083321753e+18
14344.0	1.5061486070136832e+18
14345.0	1.5058796363644923e+18
14346.0	1.5055941888114688e+18
14347.0	1.505149275498086e+18
14348.0	1.505043030422323e+18
14349.0	1.5047611983593467e+18
14350.0	1.5041985777762296e+18
14351.0	1.5038983981498363e+18
14352.0	1.5039213208600573e+18
14353.0	1.5036518619938813e+18
14354.0	1.5033420103024635e+18
14355.0	1.5030006459662336e+18
14356.0	1.502744409223987e+18
14357.0	1.502547146073702e+18
14358.0	1.5022715937226747e+18
14359.0	1.5019818746904573e+18
14360.0	1.501695673840435e+18
14361.0	1.5014319443935232e+18
14362.0	1.5011671378493435e+18
14363.0	1.5008904278704125e+18
14364.0	1.4997957917016064e+18
14365.0	1.50012619212718e+18
14366.0	1.4998903044702205e+18
14367.0	1.4997880339169277e+18
14368.0	1.4995115554635773e+18
14369.0	1.4992362598039547e+18
14370.0	1.4989610899734523e+18
14371.0	1.4983877588156413e+18
14372.0	1.4980033693089792e+18
14373.0	1.4977266526191613e+18
14374.0	1.4974590073700347e+18
14375.0	1.4971810021900285e+18
14376.0	1.4969094914703357e+18
14377.0	1.4966332076326912e+18
14378.0	1.4963553131823104e+18
14379.0	1.4960828813934584e+18
14380.0	1.495804597711667e+18
14381.0	1.4955208211693565e+18
14382.0	1.4952548855185405e+18
14383.0	1.4949749358591997e+18
14384.0	1.4946869901787136e+18
14385.0	1.4944247304159232e+18
14386.0	1.4941284179378173e+18
14387.0	1.4938679399153667e+18
14388.0	1.4935908121837565e+18
14389.0	1.493317554955878e+18
14390.0	1.4930408365883384e+18
14391.0	1.4927639890362363e+18
14392.0	1.4924906881875963e+18
14393.0	1.4922187311939581e+18
14394.0	1.4919040979959803e+18
14395.0	1.4916403014402048e+18
14396.0	1.491393750184755e+18
14397.0	1.4911205801983997e+18
14398.0	1.4908450714681344e+18
14399.0	1.4905706784227325e+18
14400.0	1.4902677708210173e+18
14401.0	1.4900142318551037e+18
14402.0	1.4897466033831936e+18
14403.0	1.4875574753296364e+18
14404.0	1.4828676277338097e+18
14405.0	1.486683132395517e+18
14406.0	1.4886502811041787e+18
14407.0	1.485793778886247e+18
14408.0	1.4880081046405115e+18
14409.0	1.487804548356505e+18
14410.0	1.487487271069286e+18
14411.0	1.4872755342147581e+18
14412.0	1.4870030638383104e+18
14413.0	1.4867340109807616e+18
14414.0	1.4864573848879101e+18
14415.0	1.4861849681985536e+18
14416.0	1.4858836342996987e+18
14417.0	1.4855690799546365e+18
14418.0	1.4852429593968635e+18
14419.0	1.4850894411595773e+18
14420.0	1.484811754746675e+18
14421.0	1.4845438460952568e+18
14422.0	1.4842655791906816e+18
14423.0	1.4839701810708477e+18
14424.0	1.473060536319996e+18
14425.0	1.4834400713768957e+18
14426.0	1.4831707584724987e+18
14427.0	1.4828916006977536e+18
14428.0	1.4825985950089216e+18
14429.0	1.482339774575411e+18
14430.0	1.482072379306803e+18
14431.0	1.48020494598144e+18
14432.0	1.4815204541988864e+18
14433.0	1.4792981542338547e+18
14434.0	1.4809613299875837e+18
14435.0	1.480509918858444e+18
14436.0	1.4804361578283003e+18
14437.0	1.4801644306825213e+18
14438.0	1.4796985659817981e+18
14439.0	1.479587344783769e+18
14440.0	1.4793460263419901e+18
14441.0	1.4790602751213563e+18
14442.0	1.478781959562854e+18
14443.0	1.4784611540271096e+18
14444.0	1.4782500211523581e+18
14445.0	1.4779845099651067e+18
14446.0	1.4749268371832845e+18
14447.0	1.4774156532908024e+18
14448.0	1.477168239686451e+18
14449.0	1.4768936990015483e+18
14450.0	1.476618723786752e+18
14451.0	1.4763497934028797e+18
14452.0	1.4760774975094781e+18
14453.0	1.4757777071144957e+18
14454.0	1.4755272350236672e+18
14455.0	1.4752518688997376e+18
14456.0	1.4749695150653435e+18
14457.0	1.4747076411785213e+18
14458.0	1.4744374625697787e+18
14459.0	1.474164175142912e+18
14460.0	1.4738804355104765e+18
14461.0	1.473465825204633e+18
14462.0	1.4719389743972355e+18
14463.0	1.4730248646033403e+18
14464.0	1.472802749362995e+18
14465.0	1.4725097537404925e+18
14466.0	1.472269608026112e+18
14467.0	1.471962831598387e+18
14468.0	1.4717254541246464e+18
14469.0	1.4713103589572605e+18
14470.0	1.4711518494982141e+18
14471.0	1.4709051472478203e+18
14472.0	1.4706385975508987e+18
14473.0	1.470372526004633e+18
14474.0	1.4701061994446845e+18
14475.0	1.4698274409676797e+18
14476.0	1.4694251082285053e+18
14477.0	1.469274541103513e+18
14478.0	1.4690089124757504e+18
14479.0	1.4687303251263488e+18
14480.0	1.4684475787051005e+18
14481.0	1.4682003160956923e+18
14482.0	1.4679246446264315e+18
14483.0	1.467647332345446e+18
14484.0	1.4673742345011195e+18
14485.0	1.467078561234944e+18
14486.0	1.4664921270714365e+18
14487.0	1.4665607005863936e+18
14488.0	1.466195448850022e+18
14489.0	1.4658828792496125e+18
14490.0	1.4657318977273853e+18
14491.0	1.4654937770229757e+18
14492.0	1.4652219844460541e+18
14493.0	1.464934063931392e+18
14494.0	1.4646526563319803e+18
14495.0	1.4644150590767101e+18
14496.0	1.4639865756909563e+18
14497.0	1.4638738411880445e+18
14498.0	1.463605365466726e+18
14499.0	1.4633357505724416e+18
14500.0	1.4630654058692605e+18
14501.0	1.4627389799661563e+18
14502.0	1.4621627631271939e+18
14503.0	1.4622021409308672e+18
14504.0	1.4619782338838525e+18
14505.0	1.461663936230195e+18
14506.0	1.461344959410995e+18
14507.0	1.4608831212421115e+18
14508.0	1.4609069432111101e+18
14509.0	1.460637329994547e+18
14510.0	1.460363693601587e+18
14511.0	1.4600974073069565e+18
14512.0	1.4598101763358715e+18
14513.0	1.4595586523135997e+18
14514.0	1.4592467303137277e+18
14515.0	1.4590180904140797e+18
14516.0	1.4555628445892618e+18
14517.0	1.458477607367475e+18
14518.0	1.4582114049589245e+18
14519.0	1.457938486630809e+18
14520.0	1.4576715527356413e+18
14521.0	1.4574015167332347e+18
14522.0	1.4571220871675901e+18
14523.0	1.4566089442721787e+18
14524.0	1.4564743306018813e+18
14525.0	1.4563200053805053e+18
14526.0	1.4560499911884797e+18
14527.0	1.4557452431261693e+18
14528.0	1.4553435596652541e+18
14529.0	1.4552360177106941e+18
14530.0	1.454961237111603e+18
14531.0	1.4547090436784125e+18
14532.0	1.4542610836226045e+18
14533.0	1.4541591838457853e+18
14534.0	1.4538938974732285e+18
14535.0	1.4536127750864893e+18
14536.0	1.4533519346761725e+18
14537.0	1.4530727114702845e+18
14538.0	1.4528183822974973e+18
14539.0	1.4525497186713597e+18
14540.0	1.4522809241829373e+18
14541.0	1.4519897522438141e+18
14542.0	1.451743283196723e+18
14543.0	1.4513906110169085e+18
14544.0	1.4512054039740413e+18
14545.0	1.450921333830451e+18
14546.0	1.436158902088494e+18
14547.0	1.4370474318364608e+18
14548.0	1.4501146987069437e+18
14549.0	1.4497186070921213e+18
14550.0	1.4495851829264381e+18
14551.0	1.4493259732615163e+18
14552.0	1.4490547477544957e+18
14553.0	1.4487782105808893e+18
14554.0	1.4485210057932797e+18
14555.0	1.4482520720539648e+18
14556.0	1.4479813834178557e+18
14557.0	1.4477156960698363e+18
14558.0	1.4474462976016381e+18
14559.0	1.444778049168996e+18
14560.0	1.4468514110767101e+18
14561.0	1.4466334968512507e+18
14562.0	1.4463150082490365e+18
14563.0	1.4460956864151547e+18
14564.0	1.4456926859427837e+18
14565.0	1.4455701921333245e+18
14566.0	1.445302162685952e+18
14567.0	1.4450275112714237e+18
14568.0	1.444615251453542e+18
14569.0	1.4444923449245693e+18
14570.0	1.4434749611245563e+18
14571.0	1.44395663835136e+18
14572.0	1.4435736866521085e+18
14573.0	1.4433496386764797e+18
14574.0	1.4428231931265021e+18
14575.0	1.4428507648032763e+18
14576.0	1.4425770881449981e+18
14577.0	1.442345743758131e+18
14578.0	1.4419345526489083e+18
14579.0	1.4413048383012864e+18
14580.0	1.441035191530291e+18
14581.0	1.4407514753859581e+18
14582.0	1.4404794781270013e+18
14583.0	1.4402312021737467e+18
14584.0	1.4398943995625472e+18
14585.0	1.439695144956723e+18
14586.0	1.439425618981683e+18
14587.0	1.4391589099012093e+18
14588.0	1.438892888686592e+18
14589.0	1.4386319660679163e+18
14590.0	1.4383714360360957e+18
14591.0	1.438092803388211e+18
14592.0	1.4378375363690493e+18
14593.0	1.4374457699205115e+18
14594.0	1.437324474004275e+18
14595.0	1.4370566727270397e+18
14596.0	1.4359229959766006e+18
14597.0	1.4354898686574582e+18
14598.0	1.436169416369766e+18
14599.0	1.4360040953610237e+18
14600.0	1.435716470125363e+18
14601.0	1.4354735461040125e+18
14602.0	1.4351294202380285e+18
14603.0	1.4349506623569915e+18
14604.0	1.4345622161195003e+18
14605.0	1.4342142314938365e+18
14606.0	1.4340611393978365e+18
14607.0	1.4338866647400445e+18
14608.0	1.433638476028313e+18
14609.0	1.4333582210236413e+18
14610.0	1.432715386893107e+18
14611.0	1.432814870750822e+18
14612.0	1.4325984144654336e+18
14613.0	1.4323410888818685e+18
14614.0	1.4320707760553981e+18
14615.0	1.431804305211392e+18
14616.0	1.4315574452551675e+18
14617.0	1.4312847148318715e+18
14618.0	1.4309684089454592e+18
14619.0	1.4300841355771889e+18
14620.0	1.4285454501216256e+18
14621.0	1.4302483325124608e+18
14622.0	1.4299835461009408e+18
14623.0	1.4297251367092221e+18
14624.0	1.4293937883709435e+18
14625.0	1.4291980200706045e+18
14626.0	1.428931386487603e+18
14627.0	1.4286639761195008e+18
14628.0	1.4284147287654397e+18
14629.0	1.428152175401369e+18
14630.0	1.4278650367049725e+18
14631.0	1.4276229699993597e+18
14632.0	1.4265154707390467e+18
14633.0	1.4269208200216568e+18
14634.0	1.426809404207923e+18
14635.0	1.4243200755564503e+18
14636.0	1.4219730839666675e+18
14637.0	1.426052944704307e+18
14638.0	1.4257415092436987e+18
14639.0	1.4254684902522875e+18
14640.0	1.4252599377133565e+18
14641.0	1.4216364902318062e+18
14642.0	1.4247296317259776e+18
14643.0	1.4244643990405115e+18
14644.0	1.424181798581043e+18
14645.0	1.4239077377245181e+18
14646.0	1.4235991158030336e+18
