# Flux units: erg / (cm m2 s)
# Wavelength units: Angstrom
wave	flux
14000.0	1.8489897274834941e+18
14001.0	1.8485469331324928e+18
14002.0	1.8481924238475261e+18
14003.0	1.8477914668400637e+18
14004.0	1.847390503121715e+18
14005.0	1.8469894320291835e+18
14006.0	1.8465845944516603e+18
14007.0	1.846182818716057e+18
14008.0	1.8457349777784832e+18
14009.0	1.845385993230745e+18
14010.0	1.8449786273267707e+18
14011.0	1.8442691205398528e+18
14012.0	1.84418458182615e+18
14013.0	1.8437844150255613e+18
14014.0	1.8433812618805245e+18
14015.0	1.8429829154078715e+18
14016.0	1.8425842350686205e+18
14017.0	1.8421843786465277e+18
14018.0	1.8417843276087296e+18
14019.0	1.8413849661145083e+18
14020.0	1.8409850039959547e+18
14021.0	1.8405852297822205e+18
14022.0	1.840183665439539e+18
14023.0	1.839769967814246e+18
14024.0	1.839375716660019e+18
14025.0	1.8389885807230976e+18
14026.0	1.8385891537977341e+18
14027.0	1.8381913811058683e+18
14028.0	1.8377893906219005e+18
14029.0	1.8373920054837243e+18
14030.0	1.8362493495672837e+18
14031.0	1.8365828772659197e+18
14032.0	1.8361979995422715e+18
14033.0	1.8357710110064637e+18
14034.0	1.8354013971939325e+18
14035.0	1.8350043023015933e+18
14036.0	1.834606432301875e+18
14037.0	1.8342078828249085e+18
14038.0	1.8338109288611835e+18
14039.0	1.8334111412256768e+18
14040.0	1.833009892294656e+18
14041.0	1.8326161058693115e+18
14042.0	1.8322153367666688e+18
14043.0	1.8318027011391488e+18
14044.0	1.8314207829164027e+18
14045.0	1.8310179988701181e+18
14046.0	1.8306178622685184e+18
14047.0	1.8302169186828285e+18
14048.0	1.829824731126169e+18
14049.0	1.8294301125509117e+18
14050.0	1.8290336015056896e+18
14051.0	1.8286325773893627e+18
14052.0	1.828238752376422e+18
14053.0	1.827844450890547e+18
14054.0	1.827448490138009e+18
14055.0	1.8270520059363323e+18
14056.0	1.8266565216567296e+18
14057.0	1.8262607135768576e+18
14058.0	1.825864982672179e+18
14059.0	1.8254693675302907e+18
14060.0	1.8250738429853693e+18
14061.0	1.8246750099734525e+18
14062.0	1.8242830975631352e+18
14063.0	1.8238677574483965e+18
14064.0	1.823357711627059e+18
14065.0	1.8230809630605307e+18
14066.0	1.822690312296857e+18
14067.0	1.8222814431543293e+18
14068.0	1.8219007781896187e+18
14069.0	1.8215040020643837e+18
14070.0	1.8211112222719997e+18
14071.0	1.8207156390068221e+18
14072.0	1.8203226964754427e+18
14073.0	1.819928457065267e+18
14074.0	1.8195343736831997e+18
14075.0	1.8191307222548475e+18
14076.0	1.8187296192856061e+18
14077.0	1.8181770113449981e+18
14078.0	1.817946153497395e+18
14079.0	1.817559849710387e+18
14080.0	1.817171582989107e+18
14081.0	1.8167781304303613e+18
14082.0	1.8163752356544507e+18
14083.0	1.8159785836806136e+18
14084.0	1.8155861209776125e+18
14085.0	1.8149753699172347e+18
14086.0	1.8147867369668605e+18
14087.0	1.8144072111751165e+18
14088.0	1.8140068078157824e+18
14089.0	1.8136087029350397e+18
14090.0	1.8132252110094333e+18
14091.0	1.812836669141811e+18
14092.0	1.8124443020689403e+18
14093.0	1.8120520205598723e+18
14094.0	1.8116598145482747e+18
14095.0	1.8112677159108603e+18
14096.0	1.8108397677182976e+18
14097.0	1.8104695801249787e+18
14098.0	1.8100759228841981e+18
14099.0	1.8097003397382144e+18
14100.0	1.8092656924033021e+18
14101.0	1.8088604521725947e+18
14102.0	1.808468902150144e+18
14103.0	1.8080703543508987e+18
14104.0	1.8076851142393853e+18
14105.0	1.8072856772476928e+18
14106.0	1.8068922632765435e+18
14107.0	1.8064992116932605e+18
14108.0	1.8061045964734461e+18
14109.0	1.8057171904233464e+18
14110.0	1.8053222950240246e+18
14111.0	1.8049249920942075e+18
14112.0	1.8045442096889853e+18
14113.0	1.8041506212347904e+18
14114.0	1.8037604033232893e+18
14115.0	1.8033752437424128e+18
14116.0	1.8029399907500024e+18
14117.0	1.8013672475459581e+18
14118.0	1.802207405224755e+18
14119.0	1.8017962594140155e+18
14120.0	1.801410131787776e+18
14121.0	1.801029300728627e+18
14122.0	1.8006188981485565e+18
14123.0	1.8002325910061056e+18
14124.0	1.7998371872571387e+18
14125.0	1.7992425523904507e+18
14126.0	1.7990857592406013e+18
14127.0	1.79870364640215e+18
14128.0	1.7983141113233405e+18
14129.0	1.7979200195526653e+18
14130.0	1.797516498986598e+18
14131.0	1.7971368641429504e+18
14132.0	1.7967455909445627e+18
14133.0	1.7960805991448566e+18
14134.0	1.7959715254304768e+18
14135.0	1.7955727108734976e+18
14136.0	1.7951319851532285e+18
14137.0	1.79480566997975e+18
14138.0	1.7944029463314424e+18
14139.0	1.7940313309970427e+18
14140.0	1.7936330231119872e+18
14141.0	1.7932534436331517e+18
14142.0	1.7927610323435517e+18
14143.0	1.79247145591767e+18
14144.0	1.7920940272779261e+18
14145.0	1.7917061397217275e+18
14146.0	1.791317139836108e+18
14147.0	1.7909311179063296e+18
14148.0	1.7905404285550587e+18
14149.0	1.7901521618337787e+18
14150.0	1.7897721646022656e+18
14151.0	1.7893746637012987e+18
14152.0	1.7889990637780987e+18
14153.0	1.788612515043737e+18
14154.0	1.7882132374355963e+18
14155.0	1.7876182083043325e+18
14156.0	1.7874361151127544e+18
14157.0	1.7870628790992896e+18
14158.0	1.7866668545933307e+18
14159.0	1.7862837334441984e+18
14160.0	1.7858964750335995e+18
14161.0	1.7854803900104704e+18
14162.0	1.785072205378355e+18
14163.0	1.7847405282066432e+18
14164.0	1.784311424063897e+18
14165.0	1.7838581926068224e+18
14166.0	1.7835840478642176e+18
14167.0	1.7831928468078587e+18
14168.0	1.7828085713862653e+18
14169.0	1.7824302384545787e+18
14170.0	1.782040394674995e+18
14171.0	1.781658392566169e+18
14172.0	1.7812759961927675e+18
14173.0	1.7808362066411515e+18
14174.0	1.7805039221342203e+18
14175.0	1.7801226330570747e+18
14176.0	1.779736731923251e+18
14177.0	1.7793536309067776e+18
14178.0	1.7789687531831293e+18
14179.0	1.7785746161139707e+18
14180.0	1.7782022776815613e+18
14181.0	1.777818490476953e+18
14182.0	1.77743438282752e+18
14183.0	1.7770511895363574e+18
14184.0	1.7766650484883453e+18
14185.0	1.7762841922633725e+18
14186.0	1.7756700287172603e+18
14187.0	1.7755051707596795e+18
14188.0	1.7751325135601667e+18
14189.0	1.7747401632645117e+18
14190.0	1.774355119446425e+18
14191.0	1.7739713406304253e+18
14192.0	1.7735870115217405e+18
14193.0	1.7731705842434043e+18
14194.0	1.772823510620569e+18
14195.0	1.7724436325072896e+18
14196.0	1.7720610683617277e+18
14197.0	1.7716787827179517e+18
14198.0	1.771293916738355e+18
14199.0	1.7709124967989248e+18
14200.0	1.770392112857088e+18
14201.0	1.7701470161862653e+18
14202.0	1.7697685289041912e+18
14203.0	1.7693742391623677e+18
14204.0	1.769003850242457e+18
14205.0	1.7686224286253053e+18
14206.0	1.7681776629514235e+18
14207.0	1.767860934279168e+18
14208.0	1.76747987337216e+18
14209.0	1.7670278549078008e+18
14210.0	1.7666718776164347e+18
14211.0	1.766334041528729e+18
14212.0	1.7659552606453757e+18
14213.0	1.7655717469093885e+18
14214.0	1.7651938199863293e+18
14215.0	1.7648068870537216e+18
14216.0	1.7644332651642877e+18
14217.0	1.7640527495167997e+18
14218.0	1.7636662628581368e+18
14219.0	1.7632920436998141e+18
14220.0	1.7629107747553277e+18
14221.0	1.7625281116241917e+18
14222.0	1.7621233445109757e+18
14223.0	1.7617711873916928e+18
14224.0	1.7613923628875768e+18
14225.0	1.7605951733366784e+18
14226.0	1.7606213105614848e+18
14227.0	1.7602422394322941e+18
14228.0	1.7588256535216128e+18
14229.0	1.7593283911876593e+18
14230.0	1.7591043180462075e+18
14231.0	1.758700349528473e+18
14232.0	1.758346128811622e+18
14233.0	1.757963687139737e+18
14234.0	1.7575883858509821e+18
14235.0	1.7572083399655421e+18
14236.0	1.7568307435536381e+18
14237.0	1.756451687523942e+18
14238.0	1.7560736851034107e+18
14239.0	1.7556901210357752e+18
14240.0	1.7545234451791872e+18
14241.0	1.7549354550165504e+18
14242.0	1.7545595933687803e+18
14243.0	1.7541029376819197e+18
14244.0	1.753804967614873e+18
14245.0	1.7534165146664957e+18
14246.0	1.753033670341427e+18
14247.0	1.7526691886792704e+18
14248.0	1.7522861413498875e+18
14249.0	1.7519156534444027e+18
14250.0	1.7515381375631357e+18
14251.0	1.7511621416976381e+18
14252.0	1.7507849210953728e+18
14253.0	1.7504074672898048e+18
14254.0	1.7500295470776312e+18
14255.0	1.7496371951042557e+18
14256.0	1.748864064081101e+18
14257.0	1.7488909797687293e+18
14258.0	1.748523709733273e+18
14259.0	1.7481371593211904e+18
14260.0	1.7477570362605565e+18
14261.0	1.7473839210430461e+18
14262.0	1.7470296365727736e+18
14263.0	1.7460465118478333e+18
14264.0	1.746183185760256e+18
14265.0	1.7458964463615995e+18
14266.0	1.7455134208425981e+18
14267.0	1.7451385440174075e+18
14268.0	1.74476288369623e+18
14269.0	1.7443825358209021e+18
14270.0	1.744011672105779e+18
14271.0	1.7436344246599675e+18
14272.0	1.7432606064771064e+18
14273.0	1.7428848303931384e+18
14274.0	1.7416173704445957e+18
14275.0	1.7420549487591421e+18
14276.0	1.741745581929267e+18
14277.0	1.7413732837621757e+18
14278.0	1.7410102399074304e+18
14279.0	1.7406351701442557e+18
14280.0	1.7402569076768763e+18
14281.0	1.739886270454169e+18
14282.0	1.7395119489548288e+18
14283.0	1.7391375502802941e+18
14284.0	1.7387632338141181e+18
14285.0	1.738388872049459e+18
14286.0	1.7380129617477632e+18
14287.0	1.7376408414191613e+18
14288.0	1.7372668504309757e+18
14289.0	1.7363861589983217e+18
14290.0	1.736516915586662e+18
14291.0	1.7361450787930107e+18
14292.0	1.7357720290066427e+18
14293.0	1.7353973786738688e+18
14294.0	1.7349534334058493e+18
14295.0	1.7346448735600637e+18
14296.0	1.7338680683266048e+18
14297.0	1.7339054764851195e+18
14298.0	1.7333518015135741e+18
14299.0	1.7331493474926587e+18
14300.0	1.7327818023108603e+18
14301.0	1.7324109687947261e+18
14302.0	1.7320397074595837e+18
14303.0	1.7316501220491261e+18
14304.0	1.731286984241971e+18
14305.0	1.7309217878704125e+18
14306.0	1.7305191313309693e+18
14307.0	1.7301672158035965e+18
14308.0	1.7298050024210432e+18
14309.0	1.729429082053017e+18
14310.0	1.7289271731814395e+18
14311.0	1.7284617883090941e+18
14312.0	1.7282097156718587e+18
14313.0	1.7278263009214461e+18
14314.0	1.7274991519203325e+18
14315.0	1.7271246760706043e+18
14316.0	1.7267268379475965e+18
14317.0	1.726357727451545e+18
14318.0	1.726011405447987e+18
14319.0	1.725640570254131e+18
14320.0	1.7252692367769597e+18
14321.0	1.7248970644389888e+18
14322.0	1.7245056436011005e+18
14323.0	1.7241483459428347e+18
14324.0	1.7237852953772027e+18
14325.0	1.7234105057935357e+18
14326.0	1.7230449587781627e+18
14327.0	1.722671026510233e+18
14328.0	1.7223007147655168e+18
14329.0	1.721933776918937e+18
14330.0	1.721563545704857e+18
14331.0	1.7211905965817853e+18
14332.0	1.7208233315794941e+18
14333.0	1.7204533805449213e+18
14334.0	1.7200834647425021e+18
14335.0	1.7197039909601277e+18
14336.0	1.7192963935305725e+18
14337.0	1.7189727509676027e+18
14338.0	1.7186032277520381e+18
14339.0	1.7182294162800637e+18
14340.0	1.7178659211182077e+18
14341.0	1.717493277340467e+18
14342.0	1.717126384792371e+18
14343.0	1.7167530934140925e+18
14344.0	1.7163847915798525e+18
14345.0	1.7160206286847997e+18
14346.0	1.7156496945053688e+18
14347.0	1.7152582854115323e+18
14348.0	1.7149138961432576e+18
14349.0	1.7145459147538427e+18
14350.0	1.7141444510744576e+18
14351.0	1.7137708191186941e+18
14352.0	1.7134359794417661e+18
14353.0	1.713071684006707e+18
14354.0	1.7126998254026747e+18
14355.0	1.712323928522752e+18
14356.0	1.7119598008598525e+18
14357.0	1.7116005486559227e+18
14358.0	1.7112327232946176e+18
14359.0	1.710857200546611e+18
14360.0	1.7104941332037627e+18
14361.0	1.7101288697233405e+18
14362.0	1.7097624251269115e+18
14363.0	1.709394873234227e+18
14364.0	1.7089162192617467e+18
14365.0	1.708644364609126e+18
14366.0	1.708274359887462e+18
14367.0	1.7079265598111736e+18
14368.0	1.7075593401073661e+18
14369.0	1.707192749549158e+18
14370.0	1.7068196376870912e+18
14371.0	1.7064486078775293e+18
14372.0	1.706078653487513e+18
14373.0	1.7057145879003133e+18
14374.0	1.70534876741632e+18
14375.0	1.7049816785747963e+18
14376.0	1.7046162271895547e+18
14377.0	1.7042496768966653e+18
14378.0	1.703882472292352e+18
14379.0	1.7035178127917056e+18
14380.0	1.7031515057684477e+18
14381.0	1.7027796689747963e+18
14382.0	1.70241931954094e+18
14383.0	1.7020466103320576e+18
14384.0	1.7016784964026365e+18
14385.0	1.7013232354983933e+18
14386.0	1.70095006491607e+18
14387.0	1.7005922119319547e+18
14388.0	1.7002258428329981e+18
14389.0	1.699861683293388e+18
14390.0	1.699495476933427e+18
14391.0	1.6991313207492603e+18
14392.0	1.6987637772451837e+18
14393.0	1.6984017953882107e+18
14394.0	1.6980174981562365e+18
14395.0	1.697658875097907e+18
14396.0	1.697307172641177e+18
14397.0	1.696943091954483e+18
14398.0	1.6965771724849147e+18
14399.0	1.6962138786496512e+18
14400.0	1.695836072522547e+18
14401.0	1.6954823165345787e+18
14402.0	1.6951208749039613e+18
14403.0	1.6928219835924444e+18
14404.0	1.6888319757516787e+18
14405.0	1.6932398553890788e+18
14406.0	1.6936651125161981e+18
14407.0	1.6904230967181325e+18
14408.0	1.6929150098997248e+18
14409.0	1.6925641916022781e+18
14410.0	1.692202236588851e+18
14411.0	1.691846314662297e+18
14412.0	1.6914823161839616e+18
14413.0	1.6911209836052477e+18
14414.0	1.6907564147015677e+18
14415.0	1.6903939177840637e+18
14416.0	1.6900265722511357e+18
14417.0	1.689648563119718e+18
14418.0	1.6892789308522496e+18
14419.0	1.6889419772461053e+18
14420.0	1.6885773747879939e+18
14421.0	1.6882170656194557e+18
14422.0	1.6878526074454013e+18
14423.0	1.68748660073431e+18
14424.0	1.675587249556677e+18
14425.0	1.6867642526662653e+18
14426.0	1.6864053964046333e+18
14427.0	1.6860430555152381e+18
14428.0	1.6856686551629821e+18
14429.0	1.68531743253463e+18
14430.0	1.6849575562182656e+18
14431.0	1.6844101844467712e+18
14432.0	1.6842253230145533e+18
14433.0	1.6817136194289646e+18
14434.0	1.6834970794328061e+18
14435.0	1.683108564408729e+18
14436.0	1.682777075141836e+18
14437.0	1.682415730819072e+18
14438.0	1.6819824189505533e+18
14439.0	1.681678865426022e+18
14440.0	1.681331506590515e+18
14441.0	1.6809668319903744e+18
14442.0	1.680602648962662e+18
14443.0	1.680220871668531e+18
14444.0	1.6798854246563837e+18
14445.0	1.679527049900851e+18
14446.0	1.6766787349643272e+18
14447.0	1.6787993314459643e+18
14448.0	1.6784453724536832e+18
14449.0	1.6780849156456443e+18
14450.0	1.677721420483788e+18
14451.0	1.6773634450259965e+18
14452.0	1.6770023573946365e+18
14453.0	1.676605292701286e+18
14454.0	1.6762828312543224e+18
14455.0	1.6759185039425533e+18
14456.0	1.675553364613529e+18
14457.0	1.6751904683982843e+18
14458.0	1.6748389270028288e+18
14459.0	1.6744786731991037e+18
14460.0	1.6741199729655805e+18
14461.0	1.6737355230609403e+18
14462.0	1.673222011066777e+18
14463.0	1.6730044508405757e+18
14464.0	1.6726429689446395e+18
14465.0	1.6722728568487933e+18
14466.0	1.6719243722620925e+18
14467.0	1.6715330118221821e+18
14468.0	1.6712036230627325e+18
14469.0	1.670825244832563e+18
14470.0	1.670473872886988e+18
14471.0	1.6701234907971581e+18
14472.0	1.6697678020739072e+18
14473.0	1.6694124589613053e+18
14474.0	1.6690550119858176e+18
14475.0	1.6686933136637947e+18
14476.0	1.668197412713267e+18
14477.0	1.667979174687539e+18
14478.0	1.6676196439818235e+18
14479.0	1.6672608112082941e+18
14480.0	1.6668956785901563e+18
14481.0	1.6665471285723133e+18
14482.0	1.666187242189619e+18
14483.0	1.6658251261149181e+18
14484.0	1.6654690615820285e+18
14485.0	1.6650935958765563e+18
14486.0	1.6645967352692733e+18
14487.0	1.6643980728991736e+18
14488.0	1.664011527520256e+18
14489.0	1.6636659219038203e+18
14490.0	1.6633211568259072e+18
14491.0	1.6629688252235776e+18
14492.0	1.6626114000584704e+18
14493.0	1.6622495742296061e+18
14494.0	1.6618853610029053e+18
14495.0	1.661540423119667e+18
14496.0	1.6611104146849787e+18
14497.0	1.660825755661107e+18
14498.0	1.6604687096610813e+18
14499.0	1.6601123397828603e+18
14500.0	1.6597552820387837e+18
14501.0	1.6593360932306941e+18
14502.0	1.658859848466432e+18
14503.0	1.658667616803225e+18
14504.0	1.6583255226580992e+18
14505.0	1.657915088201318e+18
14506.0	1.657486376645427e+18
14507.0	1.6571269113708541e+18
14508.0	1.6569027526655997e+18
14509.0	1.6565464633180157e+18
14510.0	1.6561885180592125e+18
14511.0	1.6558340221960187e+18
14512.0	1.655462247478067e+18
14513.0	1.6551116221186048e+18
14514.0	1.65473123565568e+18
14515.0	1.6543984159555581e+18
14516.0	1.6527728698195978e+18
14517.0	1.653687635777945e+18
14518.0	1.653331990675456e+18
14519.0	1.652976330473472e+18
14520.0	1.6526202072203261e+18
14521.0	1.652263624271462e+18
14522.0	1.6519070446780416e+18
14523.0	1.651359307163238e+18
14524.0	1.6509701294391288e+18
14525.0	1.6507483010891776e+18
14526.0	1.650394689385267e+18
14527.0	1.6500294829473792e+18
14528.0	1.6496064018251776e+18
14529.0	1.6493245815062525e+18
14530.0	1.6489649870471165e+18
14531.0	1.648618933479014e+18
14532.0	1.6480625607311357e+18
14533.0	1.6479097253265403e+18
14534.0	1.6475557009031165e+18
14535.0	1.6471947525226493e+18
14536.0	1.6468439728127995e+18
14537.0	1.6464846065238013e+18
14538.0	1.6461366856515581e+18
14539.0	1.6457822904516605e+18
14540.0	1.6454277459345405e+18
14541.0	1.6450610815565821e+18
14542.0	1.644717705632153e+18
14543.0	1.644273023844352e+18
14544.0	1.6440098748891133e+18
14545.0	1.6436508424667133e+18
14546.0	1.629110703803588e+18
14547.0	1.6302858857086863e+18
14548.0	1.64258590532567e+18
14549.0	1.642174155535155e+18
14550.0	1.6418803931938813e+18
14551.0	1.641531210674995e+18
14552.0	1.6411762064621565e+18
14553.0	1.6408185682264061e+18
14554.0	1.6404695350247421e+18
14555.0	1.6401152740425728e+18
14556.0	1.6397582515306493e+18
14557.0	1.6394081395539963e+18
14558.0	1.6390541453295613e+18
14559.0	1.637747898135345e+18
14560.0	1.6383258077954043e+18
14561.0	1.6379896678842365e+18
14562.0	1.6376235470880765e+18
14563.0	1.637286110298112e+18
14564.0	1.6369146862239744e+18
14565.0	1.6365798197035005e+18
14566.0	1.6362264361697277e+18
14567.0	1.6358723177938941e+18
14568.0	1.635483111548518e+18
14569.0	1.6351661245071352e+18
14570.0	1.6345312377438203e+18
14571.0	1.6344579884187643e+18
14572.0	1.6340714346512381e+18
14573.0	1.6337241731235835e+18
14574.0	1.6333516115542008e+18
14575.0	1.6330426607992832e+18
14576.0	1.6326874804256765e+18
14577.0	1.632337605007769e+18
14578.0	1.6319864327110653e+18
14579.0	1.6316353996652541e+18
14580.0	1.6312826150780928e+18
14581.0	1.6309246429757437e+18
14582.0	1.630574009227673e+18
14583.0	1.630223836853043e+18
14584.0	1.6298595632283648e+18
14585.0	1.6295183616311293e+18
14586.0	1.6291637265170432e+18
14587.0	1.6288101013913597e+18
14588.0	1.6284602041630715e+18
14589.0	1.6281193716645885e+18
14590.0	1.6277791599230976e+18
14591.0	1.6274364030779387e+18
14592.0	1.6270951779926016e+18
14593.0	1.626694486065152e+18
14594.0	1.6264177559535608e+18
14595.0	1.626074103205068e+18
14596.0	1.6256326292209656e+18
14597.0	1.6252810710482941e+18
14598.0	1.6250466664972285e+18
14599.0	1.624716178830131e+18
14600.0	1.624372576413286e+18
14601.0	1.6240346346291195e+18
14602.0	1.6236819372834813e+18
14603.0	1.6233441313947643e+18
14604.0	1.622972799595315e+18
14605.0	1.622636659684147e+18
14606.0	1.6222813786472448e+18
14607.0	1.6219802007764987e+18
14608.0	1.6216415241502715e+18
14609.0	1.6212904508391421e+18
14610.0	1.6209125541150712e+18
14611.0	1.6206159329361915e+18
14612.0	1.6202817375043581e+18
14613.0	1.619942245505433e+18
14614.0	1.619599991976755e+18
14615.0	1.619258117613158e+18
14616.0	1.6189213888217088e+18
14617.0	1.6185808398581752e+18
14618.0	1.6182242367766525e+18
14619.0	1.6178411223384056e+18
14620.0	1.6172969382379515e+18
14621.0	1.6172192194625533e+18
14622.0	1.6168771118956541e+18
14623.0	1.6165382138101757e+18
14624.0	1.6161658485342203e+18
14625.0	1.615855085839974e+18
14626.0	1.615511681394278e+18
14627.0	1.6151668022312957e+18
14628.0	1.6148345932218363e+18
14629.0	1.6144937053585405e+18
14630.0	1.6141502522589181e+18
14631.0	1.613810944809369e+18
14632.0	1.612509866675405e+18
14633.0	1.6130184344240123e+18
14634.0	1.6127831591354368e+18
14635.0	1.6121915139686385e+18
14636.0	1.6113626305789947e+18
14637.0	1.6117654230138875e+18
14638.0	1.6114188443189248e+18
14639.0	1.611072862892851e+18
14640.0	1.6107393167392765e+18
14641.0	1.6067230609440737e+18
14642.0	1.6100558616133632e+18
14643.0	1.609716052525056e+18
14644.0	1.6093673716449277e+18
14645.0	1.6090191856926715e+18
14646.0	1.6086695753547776e+18
14647.0	1.6083224144904187e+18
