# Flux units: erg / (cm m2 s)
# Wavelength units: Angstrom
wave	flux
14000.0	2.2365024638992374e+18
14001.0	2.2363280580280317e+18
14002.0	2.2359342128824317e+18
14003.0	2.2354778675740664e+18
14004.0	2.235014663739801e+18
14005.0	2.2345578553802752e+18
14006.0	2.2340915829932027e+18
14007.0	2.2336281207898112e+18
14008.0	2.2330993549508608e+18
14009.0	2.232709487683174e+18
14010.0	2.2322396987916285e+18
14011.0	2.231346724759142e+18
14012.0	2.231327880590131e+18
14013.0	2.2308702400806904e+18
14014.0	2.2304051521650685e+18
14015.0	2.2299477599584248e+18
14016.0	2.229489139659571e+18
14017.0	2.2290289574019064e+18
14018.0	2.228568619116134e+18
14019.0	2.2281085073227773e+18
14020.0	2.22764765062103e+18
14021.0	2.227186339256729e+18
14022.0	2.226714003583795e+18
14023.0	2.226231180473139e+18
14024.0	2.2257795864723448e+18
14025.0	2.2253442999255037e+18
14026.0	2.2248871073677304e+18
14027.0	2.2244287269830648e+18
14028.0	2.2239667243974653e+18
14029.0	2.2234928049553403e+18
14030.0	2.2189580107120668e+18
14031.0	2.2223832555192312e+18
14032.0	2.2221149677027323e+18
14033.0	2.2216185214926845e+18
14034.0	2.2212059898839032e+18
14035.0	2.2207574057156603e+18
14036.0	2.220285788107571e+18
14037.0	2.2198448157622267e+18
14038.0	2.2193874990530557e+18
14039.0	2.2189263772712957e+18
14040.0	2.2184676848304123e+18
14041.0	2.218013027309977e+18
14042.0	2.2175490986999805e+18
14043.0	2.2170713725075453e+18
14044.0	2.216635005507993e+18
14045.0	2.2161835222368253e+18
14046.0	2.2157234691637243e+18
14047.0	2.215249603408691e+18
14048.0	2.214810835589529e+18
14049.0	2.2143577551273981e+18
14050.0	2.2139016899985403e+18
14051.0	2.21343873278935e+18
14052.0	2.2129850886127608e+18
14053.0	2.212532726215475e+18
14054.0	2.2120768171147261e+18
14055.0	2.2116207905734656e+18
14056.0	2.2111648344965115e+18
14057.0	2.2107090344476664e+18
14058.0	2.2102532931190784e+18
14059.0	2.2097900725075965e+18
14060.0	2.2093418339500027e+18
14061.0	2.2088817406115832e+18
14062.0	2.2084307405242365e+18
14063.0	2.2079594433609723e+18
14064.0	2.2068772927963136e+18
14065.0	2.2070583139237885e+18
14066.0	2.2066105954598904e+18
14067.0	2.206111622601113e+18
14068.0	2.2057012988739581e+18
14069.0	2.2052394875486208e+18
14070.0	2.204788791128883e+18
14071.0	2.204336007623475e+18
14072.0	2.20388402439127e+18
14073.0	2.2034297359695867e+18
14074.0	2.2029750465724416e+18
14075.0	2.2025035514380285e+18
14076.0	2.2020176413196283e+18
14077.0	2.200679485538304e+18
14078.0	2.2010839875715067e+18
14079.0	2.200694236066611e+18
14080.0	2.2002528459685885e+18
14081.0	2.199800513770291e+18
14082.0	2.199345223748812e+18
14083.0	2.1988923379023872e+18
14084.0	2.1984325096439803e+18
14085.0	2.1973367007477757e+18
14086.0	2.1974479806660605e+18
14087.0	2.1970794540171264e+18
14088.0	2.196608866530099e+18
14089.0	2.1961413660508157e+18
14090.0	2.1957145335431165e+18
14091.0	2.1952731669331963e+18
14092.0	2.1948222691868664e+18
14093.0	2.194369898400972e+18
14094.0	2.193916328044134e+18
14095.0	2.1934572128174077e+18
14096.0	2.1928520267595773e+18
14097.0	2.19248252199895e+18
14098.0	2.1920298861330427e+18
14099.0	2.1916542744657915e+18
14100.0	2.1911967748849656e+18
14101.0	2.1907594062856187e+18
14102.0	2.1903088843489277e+18
14103.0	2.1898483548028928e+18
14104.0	2.1894079528828928e+18
14105.0	2.1889571323117563e+18
14106.0	2.1885067462705147e+18
14107.0	2.188055496202649e+18
14108.0	2.1875892758249467e+18
14109.0	2.1871500130779133e+18
14110.0	2.1866988703842301e+18
14111.0	2.186246452622131e+18
14112.0	2.1857937496473595e+18
14113.0	2.1853262089027584e+18
14114.0	2.1848855133814781e+18
14115.0	2.1844290858647552e+18
14116.0	2.1838187877892093e+18
14117.0	2.1764525464223754e+18
14118.0	2.1830362179043323e+18
14119.0	2.1825193991208955e+18
14120.0	2.1820992456228861e+18
14121.0	2.1817147302871032e+18
14122.0	2.1812455034322936e+18
14123.0	2.1807673343213568e+18
14124.0	2.1803153192124416e+18
14125.0	2.1795901995483128e+18
14126.0	2.1794884809654272e+18
14127.0	2.1790600747548664e+18
14128.0	2.178618765187481e+18
14129.0	2.1781630288920573e+18
14130.0	2.1777074268143616e+18
14131.0	2.1772740948131837e+18
14132.0	2.1768205714325496e+18
14133.0	2.175960559596338e+18
14134.0	2.1759275521015805e+18
14135.0	2.175439247874457e+18
14136.0	2.174924900374937e+18
14137.0	2.1745583836364795e+18
14138.0	2.174071176639283e+18
14139.0	2.1736900838555643e+18
14140.0	2.1732315474427901e+18
14141.0	2.1726738677497853e+18
14142.0	2.1718842480787456e+18
14143.0	2.1718833504976893e+18
14144.0	2.1714611753451515e+18
14145.0	2.1710200251613181e+18
14146.0	2.1705602438791165e+18
14147.0	2.1701217025523704e+18
14148.0	2.1696666490896376e+18
14149.0	2.1692210143559675e+18
14150.0	2.168795205258444e+18
14151.0	2.1683209670492155e+18
14152.0	2.1679048031731712e+18
14153.0	2.167459401642803e+18
14154.0	2.1669924715888637e+18
14155.0	2.166434749952819e+18
14156.0	2.1661021299015677e+18
14157.0	2.165678006914252e+18
14158.0	2.165229852242739e+18
14159.0	2.1647891282001915e+18
14160.0	2.1643366970163195e+18
14161.0	2.1638528303628283e+18
14162.0	2.1633682624217083e+18
14163.0	2.162990810293862e+18
14164.0	2.1623619817832445e+18
14165.0	2.1620531149144061e+18
14166.0	2.161670757128601e+18
14167.0	2.1612196245012475e+18
14168.0	2.160779279623782e+18
14169.0	2.160339191437721e+18
14170.0	2.1598959222915067e+18
14171.0	2.1594582064037883e+18
14172.0	2.159018062852915e+18
14173.0	2.1585429371289592e+18
14174.0	2.1581236191363067e+18
14175.0	2.1576879987228667e+18
14176.0	2.1572448637943803e+18
14177.0	2.1568032337821693e+18
14178.0	2.156360090465075e+18
14179.0	2.155912197518131e+18
14180.0	2.1554758238076925e+18
14181.0	2.1550332156837883e+18
14182.0	2.154589842518835e+18
14183.0	2.1541470582341627e+18
14184.0	2.1536977291575293e+18
14185.0	2.1532407127605243e+18
14186.0	2.1515001873301507e+18
14187.0	2.1523058728632315e+18
14188.0	2.151931131933491e+18
14189.0	2.1514828061343744e+18
14190.0	2.151043486344806e+18
14191.0	2.1505963534057464e+18
14192.0	2.1501570973695995e+18
14193.0	2.1495043562930173e+18
14194.0	2.149278229620326e+18
14195.0	2.1488495214198781e+18
14196.0	2.148299980354355e+18
14197.0	2.1477827085860861e+18
14198.0	2.147337533548134e+18
14199.0	2.1468956250341373e+18
14200.0	2.1456616591196163e+18
14201.0	2.1459492877107195e+18
14202.0	2.1455751524384763e+18
14203.0	2.145131165227417e+18
14204.0	2.1446954894491643e+18
14205.0	2.144254892913459e+18
14206.0	2.1437188021420027e+18
14207.0	2.1433755788902395e+18
14208.0	2.1429368345591803e+18
14209.0	2.1423925061746683e+18
14210.0	2.1419821136609275e+18
14211.0	2.1416134175621115e+18
14212.0	2.1411777317175293e+18
14213.0	2.1407322211352573e+18
14214.0	2.1401885940383744e+18
14215.0	2.1396536038522877e+18
14216.0	2.139227363580313e+18
14217.0	2.1387880807006205e+18
14218.0	2.1383381811986427e+18
14219.0	2.1379088069427195e+18
14220.0	2.1374620800122877e+18
14221.0	2.1370195859734528e+18
14222.0	2.13651771401175e+18
14223.0	2.1361479928250365e+18
14224.0	2.1357011920748544e+18
14225.0	2.1329397160083471e+18
14226.0	2.13478114632663e+18
14227.0	2.134381325136691e+18
14228.0	2.128708208531867e+18
14229.0	2.1324871891943378e+18
14230.0	2.1330735377940477e+18
14231.0	2.132574695797555e+18
14232.0	2.1322043723087867e+18
14233.0	2.1317639049576443e+18
14234.0	2.1311834736820221e+18
14235.0	2.1306894853341181e+18
14236.0	2.130253046192537e+18
14237.0	2.129810456523571e+18
14238.0	2.1293721869877245e+18
14239.0	2.1289210291945467e+18
14240.0	2.1273716012875773e+18
14241.0	2.1280284242608125e+18
14242.0	2.1276107655348221e+18
14243.0	2.1270666133110781e+18
14244.0	2.1267495306395645e+18
14245.0	2.1263021493977083e+18
14246.0	2.125862621570662e+18
14247.0	2.1254341633507325e+18
14248.0	2.1249900553437181e+18
14249.0	2.1245622078144504e+18
14250.0	2.1241248694140925e+18
14251.0	2.1236894285168637e+18
14252.0	2.1232516237099005e+18
14253.0	2.1228123039203325e+18
14254.0	2.1223693686407165e+18
14255.0	2.1218874514997243e+18
14256.0	2.1189824799047693e+18
14257.0	2.1205649085956086e+18
14258.0	2.1204075970297853e+18
14259.0	2.1199635578093565e+18
14260.0	2.1194666066051067e+18
14261.0	2.11908368007168e+18
14262.0	2.1186578474860536e+18
14263.0	2.1146012106096658e+18
14264.0	2.1167954506809334e+18
14265.0	2.1173547846074365e+18
14266.0	2.1169507489808381e+18
14267.0	2.1165208982519805e+18
14268.0	2.11608449098711e+18
14269.0	2.1156436092387325e+18
14270.0	2.1152140705660925e+18
14271.0	2.1147734270541821e+18
14272.0	2.1143247220899837e+18
14273.0	2.1138111849299963e+18
14274.0	2.107701407724341e+18
14275.0	2.1123053626851328e+18
14276.0	2.1125554606440445e+18
14277.0	2.1121488883023867e+18
14278.0	2.1117315550543867e+18
14279.0	2.111298944473497e+18
14280.0	2.1108613980356605e+18
14281.0	2.11043308577751e+18
14282.0	2.1098219840733181e+18
14283.0	2.109314704814899e+18
14284.0	2.1088794350452733e+18
14285.0	2.1084432391733245e+18
14286.0	2.1080062564499453e+18
14287.0	2.1075737263996925e+18
14288.0	2.1071361698955261e+18
14289.0	2.1059803354759153e+18
14290.0	2.1062665178710016e+18
14291.0	2.1058349759987712e+18
14292.0	2.1054014024056827e+18
14293.0	2.104964387805593e+18
14294.0	2.104423512172134e+18
14295.0	2.1040808090140667e+18
14296.0	2.1030759762493443e+18
14297.0	2.1032100429823992e+18
14298.0	2.1020165168693243e+18
14299.0	2.1023247680143355e+18
14300.0	2.1019172259495933e+18
14301.0	2.1014865531371515e+18
14302.0	2.101053571779788e+18
14303.0	2.1005887522996221e+18
14304.0	2.100167635789414e+18
14305.0	2.0997390886502397e+18
14306.0	2.0992553780248568e+18
14307.0	2.0988215007641597e+18
14308.0	2.0984002886238203e+18
14309.0	2.097934407145881e+18
14310.0	2.0971660643401728e+18
14311.0	2.0966172715384827e+18
14312.0	2.0962984423587837e+18
14313.0	2.0959417956564987e+18
14314.0	2.0955718295224315e+18
14315.0	2.095177944111513e+18
14316.0	2.0947189094154237e+18
14317.0	2.0942489577848824e+18
14318.0	2.093905291614617e+18
14319.0	2.093483371475763e+18
14320.0	2.0930545877778422e+18
14321.0	2.0926228210909181e+18
14322.0	2.092164031342182e+18
14323.0	2.0917480906031096e+18
14324.0	2.0913331615301627e+18
14325.0	2.090894506118348e+18
14326.0	2.0904725591359483e+18
14327.0	2.0900357341183997e+18
14328.0	2.0896055109353467e+18
14329.0	2.0891794518573053e+18
14330.0	2.088748378069401e+18
14331.0	2.0883091455213568e+18
14332.0	2.0878861851951096e+18
14333.0	2.0874550828859387e+18
14334.0	2.0870236886532093e+18
14335.0	2.0865800034320376e+18
14336.0	2.0859038229069821e+18
14337.0	2.0857267997900792e+18
14338.0	2.0852974137901053e+18
14339.0	2.0848547117137915e+18
14340.0	2.0844340280557565e+18
14341.0	2.083993622780313e+18
14342.0	2.0833699280977917e+18
14343.0	2.0829322642194427e+18
14344.0	2.0824971739660283e+18
14345.0	2.0820692576501755e+18
14346.0	2.0816280319688701e+18
14347.0	2.0811439690219517e+18
14348.0	2.080763518805606e+18
14349.0	2.0803433569189883e+18
14350.0	2.0797036701941755e+18
14351.0	2.0792640064716797e+18
14352.0	2.0790492228747261e+18
14353.0	2.078626507495833e+18
14354.0	2.0781710580908027e+18
14355.0	2.0776902717341693e+18
14356.0	2.0772753577607158e+18
14357.0	2.0769077773467643e+18
14358.0	2.0764793526812667e+18
14359.0	2.0760359325401088e+18
14360.0	2.075602523363737e+18
14361.0	2.07518039015424e+18
14362.0	2.0747592652554237e+18
14363.0	2.0743247353610237e+18
14364.0	2.0732450879569917e+18
14365.0	2.0732893546414072e+18
14366.0	2.072928694829056e+18
14367.0	2.072613608646246e+18
14368.0	2.0721852611559421e+18
14369.0	2.0717569438646267e+18
14370.0	2.071328629928755e+18
14371.0	2.0709007488450555e+18
14372.0	2.0704669353377787e+18
14373.0	2.070039468651315e+18
14374.0	2.069613755183923e+18
14375.0	2.0691842467102715e+18
14376.0	2.068756357237964e+18
14377.0	2.068327165853696e+18
14378.0	2.0678357226094587e+18
14379.0	2.0672588866912253e+18
14380.0	2.0668288648347645e+18
14381.0	2.066390352029286e+18
14382.0	2.0659701582659584e+18
14383.0	2.0655390156914683e+18
14384.0	2.0650970568458237e+18
14385.0	2.064684755084902e+18
14386.0	2.064242797916979e+18
14387.0	2.0638269796515837e+18
14388.0	2.0633970685247488e+18
14389.0	2.062969506208153e+18
14390.0	2.0625397846638587e+18
14391.0	2.0621098332717056e+18
14392.0	2.061683428583014e+18
14393.0	2.061256050815795e+18
14394.0	2.0607941203722235e+18
14395.0	2.0603796325400573e+18
14396.0	2.059969969835212e+18
14397.0	2.05954347958272e+18
14398.0	2.0591147277615101e+18
14399.0	2.058686053115494e+18
14400.0	2.0582420810039293e+18
14401.0	2.05782321767383e+18
14402.0	2.057394167218176e+18
14403.0	2.0561021840130038e+18
14404.0	2.053186535397784e+18
14405.0	2.0548865488846817e+18
14406.0	2.0556770694922237e+18
14407.0	2.0540713775136768e+18
14408.0	2.0547718732578808e+18
14409.0	2.0543946509778944e+18
14410.0	2.053935696812441e+18
14411.0	2.0535534950547453e+18
14412.0	2.0531275987156987e+18
14413.0	2.0527032676909053e+18
14414.0	2.0522738162597883e+18
14415.0	2.0518469535531003e+18
14416.0	2.0514045886988283e+18
14417.0	2.0509328452616187e+18
14418.0	2.050497379198566e+18
14419.0	2.050042313991782e+18
14420.0	2.0494955763990528e+18
14421.0	2.0490683529822205e+18
14422.0	2.0486247885570045e+18
14423.0	2.0481089814396925e+18
14424.0	2.0427998465359846e+18
14425.0	2.047293904021094e+18
14426.0	2.0469261977780224e+18
14427.0	2.0465088175538173e+18
14428.0	2.046065227962777e+18
14429.0	2.0456543405211645e+18
14430.0	2.0452161833926648e+18
14431.0	2.0437040747249664e+18
14432.0	2.044361182910873e+18
14433.0	2.04304675850158e+18
14434.0	2.0434943075155965e+18
14435.0	2.0429726350835712e+18
14436.0	2.0426606308753405e+18
14437.0	2.04224402072535e+18
14438.0	2.0416908004163576e+18
14439.0	2.0413738301521915e+18
14440.0	2.0409675329568768e+18
14441.0	2.040537262797619e+18
14442.0	2.0401073583816701e+18
14443.0	2.0396497749147643e+18
14444.0	2.0392579413573627e+18
14445.0	2.0388310669066237e+18
14446.0	2.0370220803686403e+18
14447.0	2.037956418627174e+18
14448.0	2.0375557870977024e+18
14449.0	2.037130573591347e+18
14450.0	2.0366989193117693e+18
14451.0	2.0362757861801981e+18
14452.0	2.0358467843784701e+18
14453.0	2.0354080870236155e+18
14454.0	2.034991720143257e+18
14455.0	2.0345569805336573e+18
14456.0	2.0341209356566525e+18
14457.0	2.0336960526614525e+18
14458.0	2.033260393660416e+18
14459.0	2.0328186176864253e+18
14460.0	2.0323588632477693e+18
14461.0	2.0318226063818747e+18
14462.0	2.031235979280384e+18
14463.0	2.0310249739124733e+18
14464.0	2.030675019641651e+18
14465.0	2.0302614864330752e+18
14466.0	2.0298644989149176e+18
14467.0	2.029425360319283e+18
14468.0	2.0290133957804027e+18
14469.0	2.0282103325261821e+18
14470.0	2.027836854920806e+18
14471.0	2.0274450180079616e+18
14472.0	2.0270257184702456e+18
14473.0	2.02660425802711e+18
14474.0	2.0261845944238077e+18
14475.0	2.025757080761139e+18
14476.0	2.0252778160979963e+18
14477.0	2.0249053619027968e+18
14478.0	2.0244845373161464e+18
14479.0	2.0240572149137405e+18
14480.0	2.0236203177541627e+18
14481.0	2.0232134132236283e+18
14482.0	2.0227852435718144e+18
14483.0	2.0223551999049725e+18
14484.0	2.0219281241276416e+18
14485.0	2.021480241247027e+18
14486.0	2.0208432506208256e+18
14487.0	2.0206568356184061e+18
14488.0	2.020146355267174e+18
14489.0	2.0197084648964093e+18
14490.0	2.019367451203993e+18
14491.0	2.0189651067207677e+18
14492.0	2.01854126391296e+18
14493.0	2.0180966056132605e+18
14494.0	2.0176715749785597e+18
14495.0	2.0172643768467456e+18
14496.0	2.01673166332887e+18
14497.0	2.0164170083205115e+18
14498.0	2.0159619817013245e+18
14499.0	2.0155170029567997e+18
14500.0	2.0150918146162683e+18
14501.0	2.0146348619726843e+18
14502.0	2.0140221161013243e+18
14503.0	2.0137813932507133e+18
14504.0	2.0133883081129981e+18
14505.0	2.0129396719353853e+18
14506.0	2.0124890057146365e+18
14507.0	2.0119177784197117e+18
14508.0	2.0116953024692221e+18
14509.0	2.011272508237414e+18
14510.0	2.010845960942387e+18
14511.0	2.010423404947046e+18
14512.0	2.0099865228869627e+18
14513.0	2.009573982889574e+18
14514.0	2.009122504651571e+18
14515.0	2.0087200880263163e+18
14516.0	2.0064772443602952e+18
14517.0	2.0078605845397501e+18
14518.0	2.0074521549602816e+18
14519.0	2.0070292348993533e+18
14520.0	2.0066049810497536e+18
14521.0	2.006179477297561e+18
14522.0	2.0057428989050877e+18
14523.0	2.0051770319306747e+18
14524.0	2.0048314347028477e+18
14525.0	2.0042977363623936e+18
14526.0	2.003851497648947e+18
14527.0	2.0034138723581947e+18
14528.0	2.0029005583351805e+18
14529.0	2.002574280071577e+18
14530.0	2.002143932737126e+18
14531.0	2.0017317349949437e+18
14532.0	2.0012308646330365e+18
14533.0	2.000882876651929e+18
14534.0	2.0004613625217024e+18
14535.0	2.0000268158500861e+18
14536.0	1.9996082679316477e+18
14537.0	1.9991772411199483e+18
14538.0	1.9987628472401917e+18
14539.0	1.9983383048224763e+18
14540.0	1.997913423504998e+18
14541.0	1.997467288810291e+18
14542.0	1.9970602148298747e+18
14543.0	1.9965895266795517e+18
14544.0	1.996208870103449e+18
14545.0	1.9957657653739517e+18
14546.0	1.9899895074783199e+18
14547.0	1.9899928494997463e+18
14548.0	1.9944881568874496e+18
14549.0	1.993985560150016e+18
14550.0	1.9936542202003448e+18
14551.0	1.993239772633497e+18
14552.0	1.9928145473830907e+18
14553.0	1.9923854835056635e+18
14554.0	1.9919659742527488e+18
14555.0	1.991540475533721e+18
14556.0	1.9911137839546365e+18
14557.0	1.9906885519933437e+18
14558.0	1.9902551226843133e+18
14559.0	1.988474553394788e+18
14560.0	1.9893861954355197e+18
14561.0	1.98897833124823e+18
14562.0	1.988519710949376e+18
14563.0	1.988112583281868e+18
14564.0	1.987629016940544e+18
14565.0	1.9872849330175997e+18
14566.0	1.986862494462771e+18
14567.0	1.986426365699686e+18
14568.0	1.9859577847676925e+18
14569.0	1.9855729825415165e+18
14570.0	1.9847475502252032e+18
14571.0	1.984726716278374e+18
14572.0	1.9842501544247296e+18
14573.0	1.9838151161806843e+18
14574.0	1.9832862765219837e+18
14575.0	1.9829466922483707e+18
14576.0	1.982524668090777e+18
14577.0	1.9821499472936955e+18
14578.0	1.9817287435419645e+18
14579.0	1.9813079189553147e+18
14580.0	1.9808807475478525e+18
14581.0	1.9804457898344443e+18
14582.0	1.980011828687667e+18
14583.0	1.9796075447582715e+18
14584.0	1.9791326975361021e+18
14585.0	1.978753911619584e+18
14586.0	1.9783300604231675e+18
14587.0	1.9779063618994168e+18
14588.0	1.977481561112576e+18
14589.0	1.9770483599736832e+18
14590.0	1.9764510323638272e+18
14591.0	1.976021837624115e+18
14592.0	1.9755990232596475e+18
14593.0	1.975090856486502e+18
14594.0	1.9747661905133568e+18
14595.0	1.974339225465651e+18
14596.0	1.973356765118463e+18
14597.0	1.972812981993471e+18
14598.0	1.9730102736650237e+18
14599.0	1.9726552476418045e+18
14600.0	1.9722239725273083e+18
14601.0	1.9718047551979517e+18
14602.0	1.971368500605747e+18
14603.0	1.9709549103546365e+18
14604.0	1.9704799456919547e+18
14605.0	1.9700324184883203e+18
14606.0	1.9696256397869053e+18
14607.0	1.969267711305318e+18
14608.0	1.968849024135987e+18
14609.0	1.9684104257667064e+18
14610.0	1.9679341340262392e+18
14611.0	1.967557371441971e+18
14612.0	1.9671668465074173e+18
14613.0	1.9667561251602424e+18
14614.0	1.96633702694912e+18
14615.0	1.965917088199475e+18
14616.0	1.9655008706363387e+18
14617.0	1.9650782089445373e+18
14618.0	1.9646053867323395e+18
14619.0	1.963679886711192e+18
14620.0	1.9622594739175424e+18
14621.0	1.9633813378301947e+18
14622.0	1.9629685444968445e+18
14623.0	1.9625514813620221e+18
14624.0	1.9620817344135165e+18
14625.0	1.961704668161638e+18
14626.0	1.9612846757249021e+18
14627.0	1.9608591904276475e+18
14628.0	1.9604409293996027e+18
14629.0	1.9600157108600827e+18
14630.0	1.959582387247513e+18
14631.0	1.9591693439336445e+18
14632.0	1.9583630762311677e+18
14633.0	1.9582361498812408e+18
14634.0	1.9578788186685435e+18
14635.0	1.957311173309234e+18
14636.0	1.956598656689766e+18
14637.0	1.9566285620772856e+18
14638.0	1.956166631633715e+18
14639.0	1.9557352860549123e+18
14640.0	1.955340833574092e+18
14641.0	1.9534270464786422e+18
14642.0	1.954486687052595e+18
14643.0	1.9540699141636093e+18
14644.0	1.9536283512602621e+18
14645.0	1.9532029414604797e+18
14646.0	1.9527378082463741e+18
14647.0	1.9522601156083707e+18
14648.0	1.9518934831071227e+18
