# Flux units: erg / (cm m2 s)
# Wavelength units: Angstrom
wave	flux
14000.0	1.9564980017823744e+18
14001.0	1.95605703950336e+18
14002.0	1.9557527276486648e+18
14003.0	1.9553641622929403e+18
14004.0	1.9549743185133565e+18
14005.0	1.9545843807813624e+18
14006.0	1.9541877371961341e+18
14007.0	1.9537965411729405e+18
14008.0	1.953324779280793e+18
14009.0	1.9530239386320893e+18
14010.0	1.9526233171689464e+18
14011.0	1.951686947189555e+18
14012.0	1.95185636016128e+18
14013.0	1.9514678216491003e+18
14014.0	1.9510734580875261e+18
14015.0	1.9506467681861627e+18
14016.0	1.9500292475191293e+18
14017.0	1.9496405345239037e+18
14018.0	1.9492517191876605e+18
14019.0	1.948863267917004e+18
14020.0	1.9484740734156797e+18
14021.0	1.9480849812553728e+18
14022.0	1.9476929010728955e+18
14023.0	1.947290502902579e+18
14024.0	1.946902898881331e+18
14025.0	1.9465323774214136e+18
14026.0	1.9461437332127741e+18
14027.0	1.94575766430679e+18
14028.0	1.9453697935278075e+18
14029.0	1.944981196295372e+18
14030.0	1.9433478437208074e+18
14031.0	1.944164706235187e+18
14032.0	1.943816701476864e+18
14033.0	1.9433846596435965e+18
14034.0	1.943042058826547e+18
14035.0	1.9426577615945725e+18
14036.0	1.9422710585098237e+18
14037.0	1.941884241340006e+18
14038.0	1.9414974510137336e+18
14039.0	1.9411068606480381e+18
14040.0	1.9407172332945405e+18
14041.0	1.9403344460120061e+18
14042.0	1.9399402955210747e+18
14043.0	1.939528599417651e+18
14044.0	1.9391677030465533e+18
14045.0	1.9387884574343165e+18
14046.0	1.938401636909056e+18
14047.0	1.9380097379205117e+18
14048.0	1.9376311650746363e+18
14049.0	1.937247970105753e+18
14050.0	1.9368623139192827e+18
14051.0	1.9364686768111608e+18
14052.0	1.9360874464542715e+18
14053.0	1.935705331938099e+18
14054.0	1.9353202377883643e+18
14055.0	1.93493493392343e+18
14056.0	1.9345497022005243e+18
14057.0	1.9341645996621824e+18
14058.0	1.9337795558440955e+18
14059.0	1.933394621077913e+18
14060.0	1.93300974838743e+18
14061.0	1.9326188996526077e+18
14062.0	1.9322402546647035e+18
14063.0	1.9318411666391037e+18
14064.0	1.9312559857336317e+18
14065.0	1.9310790314033147e+18
14066.0	1.9307024651124733e+18
14067.0	1.9303053114998781e+18
14068.0	1.9299341239844856e+18
14069.0	1.929546843763507e+18
14070.0	1.9291652359192573e+18
14071.0	1.9287796434862075e+18
14072.0	1.9283984450060288e+18
14073.0	1.9280147567869952e+18
14074.0	1.9276311541317632e+18
14075.0	1.9272308615020541e+18
14076.0	1.9268487134314493e+18
14077.0	1.9261980829286397e+18
14078.0	1.926076194776678e+18
14079.0	1.9257050408157181e+18
14080.0	1.9253314742910973e+18
14081.0	1.9249485527908347e+18
14082.0	1.9245620661321725e+18
14083.0	1.9241814783426552e+18
14084.0	1.923799523210035e+18
14085.0	1.9230686489608195e+18
14086.0	1.9230110460674045e+18
14087.0	1.9226523911323643e+18
14088.0	1.9222567525023741e+18
14089.0	1.921876174779187e+18
14090.0	1.9215012023238653e+18
14091.0	1.921123711608422e+18
14092.0	1.9207418739163133e+18
14093.0	1.920359959049011e+18
14094.0	1.919978062636646e+18
14095.0	1.9195958810116096e+18
14096.0	1.9191561283698683e+18
14097.0	1.9188101486215165e+18
14098.0	1.9184256030867456e+18
14099.0	1.9180705737080827e+18
14100.0	1.9176787904823293e+18
14101.0	1.9173086330879997e+18
14102.0	1.9169273507217405e+18
14103.0	1.9165332992163837e+18
14104.0	1.9161656835702784e+18
14105.0	1.9157844616019965e+18
14106.0	1.915403994608435e+18
14107.0	1.915022269323673e+18
14108.0	1.9146321638195192e+18
14109.0	1.9142575571075072e+18
14110.0	1.9138765565984763e+18
14111.0	1.9134907242512384e+18
14112.0	1.9131139918659581e+18
14113.0	1.9127342093828093e+18
14114.0	1.9123486052057088e+18
14115.0	1.9119786709483517e+18
14116.0	1.9115552626704381e+18
14117.0	1.9090771755925504e+18
14118.0	1.9108378974355453e+18
14119.0	1.9104220003172347e+18
14120.0	1.9100516046864381e+18
14121.0	1.9096858529890304e+18
14122.0	1.909284330589388e+18
14123.0	1.9089126682787837e+18
14124.0	1.9085289733488637e+18
14125.0	1.907760328553267e+18
14126.0	1.9078000670670843e+18
14127.0	1.9074284198559741e+18
14128.0	1.9070486843490296e+18
14129.0	1.9066602330783736e+18
14130.0	1.9062734779842555e+18
14131.0	1.9059142677233661e+18
14132.0	1.905530165107097e+18
14133.0	1.9046605852246006e+18
14134.0	1.9047780760682493e+18
14135.0	1.904381739506073e+18
14136.0	1.9039712144523261e+18
14137.0	1.903639294010982e+18
14138.0	1.9032414676320253e+18
14139.0	1.902888370988646e+18
14140.0	1.9025036123832317e+18
14141.0	1.902117251553689e+18
14142.0	1.9015876267212797e+18
14143.0	1.9013719354769403e+18
14144.0	1.9010012697329661e+18
14145.0	1.9006231028957181e+18
14146.0	1.900242667778867e+18
14147.0	1.8998673513906173e+18
14148.0	1.8994866579046397e+18
14149.0	1.8991102543527933e+18
14150.0	1.8987395147890683e+18
14151.0	1.898351566834892e+18
14152.0	1.8979861875916792e+18
14153.0	1.8976094518509565e+18
14154.0	1.897209733002035e+18
14155.0	1.8967512066555904e+18
14156.0	1.896463925352857e+18
14157.0	1.8961040272261115e+18
14158.0	1.8957240719376381e+18
14159.0	1.895351827457638e+18
14160.0	1.8949693723639805e+18
14161.0	1.8945454842576893e+18
14162.0	1.8941263944351741e+18
14163.0	1.8938456075927547e+18
14164.0	1.893397303604019e+18
14165.0	1.8930185545973755e+18
14166.0	1.892719260807987e+18
14167.0	1.8923329368883197e+18
14168.0	1.891965158503219e+18
14169.0	1.8915958567469056e+18
14170.0	1.8912153679429627e+18
14171.0	1.8908432107044861e+18
14172.0	1.890470853817139e+18
14173.0	1.8900497574395904e+18
14174.0	1.889715921040179e+18
14175.0	1.8893466427719675e+18
14176.0	1.888971346516377e+18
14177.0	1.8885973202960381e+18
14178.0	1.8882220575948797e+18
14179.0	1.887839711553126e+18
14180.0	1.8874746661765115e+18
14181.0	1.8871005158047741e+18
14182.0	1.8867256792449021e+18
14183.0	1.886352334179532e+18
14184.0	1.8859735583293437e+18
14185.0	1.8856034797879296e+18
14186.0	1.8848274966380541e+18
14187.0	1.8848322932441083e+18
14188.0	1.8844823725277181e+18
14189.0	1.8841059270328323e+18
14190.0	1.883700071078297e+18
14191.0	1.8831649902952445e+18
14192.0	1.882530423976755e+18
14193.0	1.882098746209075e+18
14194.0	1.8817874617434107e+18
14195.0	1.8814185592848384e+18
14196.0	1.8810452075085821e+18
14197.0	1.8806721342341115e+18
14198.0	1.880294648551833e+18
14199.0	1.879923831812915e+18
14200.0	1.8793131260510208e+18
14201.0	1.8791677682515963e+18
14202.0	1.8788080680959997e+18
14203.0	1.8784255341494264e+18
14204.0	1.8780602790576125e+18
14205.0	1.8776879708241917e+18
14206.0	1.8772027317944317e+18
14207.0	1.8769455974711293e+18
14208.0	1.8765396777631744e+18
14209.0	1.875999843994828e+18
14210.0	1.8756636420079613e+18
14211.0	1.8753731008921597e+18
14212.0	1.8750048678445053e+18
14213.0	1.874631051339366e+18
14214.0	1.8742609576984573e+18
14215.0	1.8738790226984955e+18
14216.0	1.8735184383836155e+18
14217.0	1.8731467475517435e+18
14218.0	1.8727642555482107e+18
14219.0	1.8724035655368704e+18
14220.0	1.8720300375998461e+18
14221.0	1.8716569760694272e+18
14222.0	1.871261741770342e+18
14223.0	1.8709178004537341e+18
14224.0	1.8705467739996155e+18
14225.0	1.8694512486383619e+18
14226.0	1.8698008455544827e+18
14227.0	1.8694338540208125e+18
14228.0	1.8672559281143813e+18
14229.0	1.868260086435019e+18
14230.0	1.868242681751142e+18
14231.0	1.8678512340697088e+18
14232.0	1.8675015096467456e+18
14233.0	1.8671267636838397e+18
14234.0	1.8667605439021053e+18
14235.0	1.866387787717017e+18
14236.0	1.8660196016455677e+18
14237.0	1.8656481591164923e+18
14238.0	1.8652786744885243e+18
14239.0	1.8649021803397115e+18
14240.0	1.8631093032845312e+18
14241.0	1.864160659269222e+18
14242.0	1.8637954947743744e+18
14243.0	1.863286349889536e+18
14244.0	1.8630593625456635e+18
14245.0	1.8626752699957245e+18
14246.0	1.8623018443997181e+18
14247.0	1.861946444244582e+18
14248.0	1.861566955362713e+18
14249.0	1.8612102180634624e+18
14250.0	1.8608407938334717e+18
14251.0	1.8604134127108093e+18
14252.0	1.8600258640543741e+18
14253.0	1.859655780479795e+18
14254.0	1.8592848815325184e+18
14255.0	1.8588868739596283e+18
14256.0	1.8577848474271744e+18
14257.0	1.8581387611209723e+18
14258.0	1.8578105434111992e+18
14259.0	1.8574241641267197e+18
14260.0	1.8569226092544e+18
14261.0	1.8563658741186552e+18
14262.0	1.8560356699865083e+18
14263.0	1.8545562030702597e+18
14264.0	1.8550760031649787e+18
14265.0	1.8549264594501627e+18
14266.0	1.854564937288908e+18
14267.0	1.8541972713111552e+18
14268.0	1.8538294526607352e+18
14269.0	1.8534561981923325e+18
14270.0	1.8530937113411581e+18
14271.0	1.852724662920806e+18
14272.0	1.852357396240793e+18
14273.0	1.8519851920261115e+18
14274.0	1.8499283019890693e+18
14275.0	1.851094157439795e+18
14276.0	1.85082605249495e+18
14277.0	1.8504299088707581e+18
14278.0	1.8500769732886525e+18
14279.0	1.849708778828595e+18
14280.0	1.849336047809331e+18
14281.0	1.8489754534281213e+18
14282.0	1.848608594434457e+18
14283.0	1.848241502237491e+18
14284.0	1.8478744201068541e+18
14285.0	1.847507004109619e+18
14286.0	1.847138106684211e+18
14287.0	1.8467735730126843e+18
14288.0	1.8464062677450747e+18
14289.0	1.8451246679588849e+18
14290.0	1.845671660565299e+18
14291.0	1.8453063601750013e+18
14292.0	1.8449409238892541e+18
14293.0	1.8445723938848765e+18
14294.0	1.8440807577026555e+18
14295.0	1.8438291296616445e+18
14296.0	1.8427349817098243e+18
14297.0	1.8431071943131133e+18
14298.0	1.8424315489812475e+18
14299.0	1.842362359742464e+18
14300.0	1.842005016785715e+18
14301.0	1.8416419376988155e+18
14302.0	1.841278088537702e+18
14303.0	1.840881637890457e+18
14304.0	1.8404664840028155e+18
14305.0	1.8401044820131837e+18
14306.0	1.8397120998408187e+18
14307.0	1.839357043618611e+18
14308.0	1.8390018414346237e+18
14309.0	1.83862553519063e+18
14310.0	1.8381450055254013e+18
14311.0	1.837682915698278e+18
14312.0	1.8374646189522936e+18
14313.0	1.8370815917555712e+18
14314.0	1.8368022108438523e+18
14315.0	1.836450125866598e+18
14316.0	1.8360393474768893e+18
14317.0	1.835692181579366e+18
14318.0	1.8353599172050941e+18
14319.0	1.8349966787346427e+18
14320.0	1.8346319705800704e+18
14321.0	1.8342656820117504e+18
14322.0	1.8338670570373117e+18
14323.0	1.833522065466982e+18
14324.0	1.8331758911029243e+18
14325.0	1.8328027171651581e+18
14326.0	1.832447761606246e+18
14327.0	1.8320775807238141e+18
14328.0	1.8317136745201661e+18
14329.0	1.8313558534127613e+18
14330.0	1.830991989152153e+18
14331.0	1.8306278849773563e+18
14332.0	1.8302643596165117e+18
14333.0	1.8299007101042685e+18
14334.0	1.829537062269747e+18
14335.0	1.8291612207546363e+18
14336.0	1.8286662744276987e+18
14337.0	1.8283693898465275e+18
14338.0	1.8280055457185787e+18
14339.0	1.8276342793502715e+18
14340.0	1.8272807079116797e+18
14341.0	1.8269125285511165e+18
14342.0	1.8265525498937341e+18
14343.0	1.8261870196555776e+18
14344.0	1.8258224775954427e+18
14345.0	1.825464441739673e+18
14346.0	1.82509634626519e+18
14347.0	1.8247023299919872e+18
14348.0	1.8243730704171005e+18
14349.0	1.82401254817792e+18
14350.0	1.8235901784096763e+18
14351.0	1.8232184288575485e+18
14352.0	1.8229165429882875e+18
14353.0	1.8225606932037627e+18
14354.0	1.822191320983142e+18
14355.0	1.821814511422668e+18
14356.0	1.8214577221140477e+18
14357.0	1.821112752354099e+18
14358.0	1.8207503594553341e+18
14359.0	1.8203741907845115e+18
14360.0	1.8199760590602237e+18
14361.0	1.8191689524969472e+18
14362.0	1.8188091164459005e+18
14363.0	1.8184465322868733e+18
14364.0	1.8178935183376381e+18
14365.0	1.8176834189393915e+18
14366.0	1.8173271094591485e+18
14367.0	1.8169996031033344e+18
14368.0	1.816637391398502e+18
14369.0	1.8162761947152384e+18
14370.0	1.8159147144970237e+18
14371.0	1.815553403728691e+18
14372.0	1.8151710442651643e+18
14373.0	1.8147543988830203e+18
14374.0	1.8143938380562427e+18
14375.0	1.81403110122455e+18
14376.0	1.813671083979571e+18
14377.0	1.8133090064924672e+18
14378.0	1.8129456472260603e+18
14379.0	1.8125867641208827e+18
14380.0	1.812224359478067e+18
14381.0	1.8118533649006587e+18
14382.0	1.8115015517143037e+18
14383.0	1.8111362781675515e+18
14384.0	1.8107632367697915e+18
14385.0	1.8104198256132096e+18
14386.0	1.8100449806647293e+18
14387.0	1.8096976822271997e+18
14388.0	1.8093350427033592e+18
14389.0	1.8089759012290555e+18
14390.0	1.808613516718899e+18
14391.0	1.8082546369691643e+18
14392.0	1.8078925460602877e+18
14393.0	1.807533743485747e+18
14394.0	1.807138009225625e+18
14395.0	1.8067986933874685e+18
14396.0	1.8064520173846525e+18
14397.0	1.806092065570816e+18
14398.0	1.8057309645176827e+18
14399.0	1.805285922019737e+18
14400.0	1.804803300235673e+18
14401.0	1.8044554733158397e+18
14402.0	1.8040993366409213e+18
14403.0	1.8023946238558185e+18
14404.0	1.7985655313268713e+18
14405.0	1.8014926622687196e+18
14406.0	1.802659489120256e+18
14407.0	1.8004081494720515e+18
14408.0	1.8019169463173117e+18
14409.0	1.8015656079261693e+18
14410.0	1.8012099158474747e+18
14411.0	1.8008643706290176e+18
14412.0	1.8005028920885243e+18
14413.0	1.800122332820275e+18
14414.0	1.7997144183013376e+18
14415.0	1.799356033479475e+18
14416.0	1.7989928889614333e+18
14417.0	1.7986209850589181e+18
14418.0	1.798247176942387e+18
14419.0	1.7979175902117885e+18
14420.0	1.7975549842423805e+18
14421.0	1.7971998055464955e+18
14422.0	1.7968356392959997e+18
14423.0	1.7964579925524477e+18
14424.0	1.788397600584495e+18
14425.0	1.7957476334829565e+18
14426.0	1.7954044085534717e+18
14427.0	1.795047282022809e+18
14428.0	1.7946683518222333e+18
14429.0	1.7943254691479547e+18
14430.0	1.7939711142133755e+18
14431.0	1.793282974888755e+18
14432.0	1.7932469860827133e+18
14433.0	1.7914636418416627e+18
14434.0	1.7925197977878525e+18
14435.0	1.7921285346557947e+18
14436.0	1.791820404306739e+18
14437.0	1.7914628566679547e+18
14438.0	1.7910375945076733e+18
14439.0	1.790732901810176e+18
14440.0	1.790387453899571e+18
14441.0	1.790022146798387e+18
14442.0	1.7896592522608635e+18
14443.0	1.7892628871774208e+18
14444.0	1.7889505725906941e+18
14445.0	1.7885961824239613e+18
14446.0	1.786179892543489e+18
14447.0	1.7878660816044032e+18
14448.0	1.78752347743191e+18
14449.0	1.7871659331485693e+18
14450.0	1.7868028439953403e+18
14451.0	1.786448673610137e+18
14452.0	1.786090102561177e+18
14453.0	1.7857097899180027e+18
14454.0	1.7853760273383421e+18
14455.0	1.7850098545328128e+18
14456.0	1.7846517616345085e+18
14457.0	1.7842936184045565e+18
14458.0	1.7839398708051965e+18
14459.0	1.7835785365487613e+18
14460.0	1.7832145028382717e+18
14461.0	1.7828014662352893e+18
14462.0	1.7822949738283005e+18
14463.0	1.7820559270215677e+18
14464.0	1.7817219949920253e+18
14465.0	1.7813485526188027e+18
14466.0	1.7810126844985341e+18
14467.0	1.7806254227324928e+18
14468.0	1.780297048994611e+18
14469.0	1.7799021133299707e+18
14470.0	1.7795596551192576e+18
14471.0	1.7792217301123064e+18
14472.0	1.7788691871170555e+18
14473.0	1.7785165535248384e+18
14474.0	1.7781618563350525e+18
14475.0	1.777801646152089e+18
14476.0	1.7773567781371904e+18
14477.0	1.7770905170083835e+18
14478.0	1.7767324962521085e+18
14479.0	1.7763761817387008e+18
14480.0	1.7760045429161981e+18
14481.0	1.7756655475228664e+18
14482.0	1.775305214866227e+18
14483.0	1.7749419411636224e+18
14484.0	1.7745849807273981e+18
14485.0	1.774201691806105e+18
14486.0	1.7735903971639293e+18
14487.0	1.7735228755804152e+18
14488.0	1.7731408365617147e+18
14489.0	1.7727806146347003e+18
14490.0	1.7724467195150333e+18
14491.0	1.772098065478451e+18
14492.0	1.7715990590652416e+18
14493.0	1.7707530545266688e+18
14494.0	1.7703833568280576e+18
14495.0	1.7700474434093053e+18
14496.0	1.7695598908014587e+18
14497.0	1.7693334990487547e+18
14498.0	1.7689780200407037e+18
14499.0	1.7686217256599547e+18
14500.0	1.76826474341335e+18
14501.0	1.7678623922192384e+18
14502.0	1.7673063097171968e+18
14503.0	1.7671707548450808e+18
14504.0	1.7668327929282557e+18
14505.0	1.7664411590197243e+18
14506.0	1.766041626397901e+18
14507.0	1.7655298659450877e+18
14508.0	1.7654129186832381e+18
14509.0	1.7650568625389565e+18
14510.0	1.764697504638566e+18
14511.0	1.7643438694465533e+18
14512.0	1.7639722608230397e+18
14513.0	1.763631232031129e+18
14514.0	1.763240960432537e+18
14515.0	1.7629171232538621e+18
14516.0	1.760244821445838e+18
14517.0	1.7622025547808763e+18
14518.0	1.7618498742124536e+18
14519.0	1.761435574285107e+18
14520.0	1.7610689468170235e+18
14521.0	1.7607117850542075e+18
14522.0	1.760353182128537e+18
14523.0	1.7598794606575613e+18
14524.0	1.7595463205126141e+18
14525.0	1.759281487124889e+18
14526.0	1.7589283971923963e+18
14527.0	1.758550763870617e+18
14528.0	1.758089685709619e+18
14529.0	1.757850680845926e+18
14530.0	1.757487883616256e+18
14531.0	1.7571465847111677e+18
14532.0	1.756664251495219e+18
14533.0	1.756435074724659e+18
14534.0	1.7560805973164032e+18
14535.0	1.755713528607539e+18
14536.0	1.7553639065255933e+18
14537.0	1.7549992755462144e+18
14538.0	1.7546550590832637e+18
14539.0	1.7542987898683387e+18
14540.0	1.7539423797247997e+18
14541.0	1.7535636894384128e+18
14542.0	1.753227178750771e+18
14543.0	1.7528039499890685e+18
14544.0	1.7525151268601853e+18
14545.0	1.7521498164035581e+18
14546.0	1.7423809149665231e+18
14547.0	1.7428581143543747e+18
14548.0	1.7510740227260413e+18
14549.0	1.7506155953651707e+18
14550.0	1.7503689853894653e+18
14551.0	1.7500216684969981e+18
14552.0	1.7496639111430141e+18
14553.0	1.7493014310027256e+18
14554.0	1.7489525001420797e+18
14555.0	1.7485956084924413e+18
14556.0	1.7482370374434816e+18
14557.0	1.7478825768124408e+18
14558.0	1.7475241987014653e+18
14559.0	1.7454557659398113e+18
14560.0	1.7468003088072704e+18
14561.0	1.7464490425581563e+18
14562.0	1.7460704059588603e+18
14563.0	1.7457397706522624e+18
14564.0	1.7453564766978048e+18
14565.0	1.74502965149696e+18
14566.0	1.7446730131832827e+18
14567.0	1.7443138264104952e+18
14568.0	1.74392825914327e+18
14569.0	1.7436004138876925e+18
14570.0	1.7427532148113403e+18
14571.0	1.7428843589533693e+18
14572.0	1.7424829036625917e+18
14573.0	1.7421229468155904e+18
14574.0	1.7417487360458747e+18
14575.0	1.7414495462752253e+18
14576.0	1.7410901950857213e+18
14577.0	1.7407399656685563e+18
14578.0	1.7403864781160443e+18
14579.0	1.7400328781561853e+18
14580.0	1.7396758556442621e+18
14581.0	1.7393118974312448e+18
14582.0	1.73895557620695e+18
14583.0	1.7385987063676925e+18
14584.0	1.7381598328520704e+18
14585.0	1.7378233573965824e+18
14586.0	1.7374626120204285e+18
14587.0	1.737106352871833e+18
14588.0	1.7367502128414715e+18
14589.0	1.7363997468655613e+18
14590.0	1.7360494335623165e+18
14591.0	1.735695248077619e+18
14592.0	1.735341559198515e+18
14593.0	1.7348820094418941e+18
14594.0	1.73417943835607e+18
14595.0	1.7335245514735613e+18
14596.0	1.7330023069384696e+18
14597.0	1.7326199072096246e+18
14598.0	1.7324563041878016e+18
14599.0	1.7321245682958333e+18
14600.0	1.7317681497636861e+18
14601.0	1.7314187122311165e+18
14602.0	1.731056208602726e+18
14603.0	1.7307145691201533e+18
14604.0	1.7303107281092603e+18
14605.0	1.729973957374771e+18
14606.0	1.7295913999400952e+18
14607.0	1.7292986794639357e+18
14608.0	1.7289536274956285e+18
14609.0	1.7285924324900861e+18
14610.0	1.72819425043415e+18
14611.0	1.7278849389690875e+18
14612.0	1.7275471884451837e+18
14613.0	1.7271975697186808e+18
14614.0	1.7268425504063485e+18
14615.0	1.7264919401463805e+18
14616.0	1.7261417409282048e+18
14617.0	1.725788921108889e+18
14618.0	1.7254239310970877e+18
14619.0	1.7249523151667197e+18
14620.0	1.724276892971827e+18
14621.0	1.7243774270832635e+18
14622.0	1.7240217014501376e+18
14623.0	1.723671321038028e+18
14624.0	1.7232602809237504e+18
14625.0	1.7229609015705597e+18
14626.0	1.722607925723136e+18
14627.0	1.7222497388724221e+18
14628.0	1.7219027139035133e+18
14629.0	1.721548300248678e+18
14630.0	1.721189537939456e+18
14631.0	1.7208386491777021e+18
14632.0	1.7198634214883328e+18
14633.0	1.72004031374295e+18
14634.0	1.7197669541740541e+18
14635.0	1.7192701472538616e+18
14636.0	1.7187042786017275e+18
14637.0	1.718678344381235e+18
14638.0	1.718312500409139e+18
14639.0	1.7179481160548347e+18
14640.0	1.7176051058737147e+18
14641.0	1.7148477268033518e+18
14642.0	1.71689102058455e+18
14643.0	1.7165399019749379e+18
14644.0	1.7161713249943547e+18
14645.0	1.7158040868356093e+18
14646.0	1.7154504734539776e+18
14647.0	1.715073085079552e+18
