# Flux units: erg / (cm m2 s)
# Wavelength units: Angstrom
wave	flux
14000.0	1.7575921389142016e+18
14001.0	1.7571247508422653e+18
14002.0	1.7567441513086976e+18
14003.0	1.7563232428359672e+18
14004.0	1.7559027789594621e+18
14005.0	1.7554799209742333e+18
14006.0	1.7550520063361021e+18
14007.0	1.7546270008672253e+18
14008.0	1.7541309405331456e+18
14009.0	1.7537904586784765e+18
14010.0	1.7533566837587963e+18
14011.0	1.752495047888077e+18
14012.0	1.7525238828892157e+18
14013.0	1.7521036706709496e+18
14014.0	1.7516764136996861e+18
14015.0	1.7512588791250936e+18
14016.0	1.7508396164972541e+18
14017.0	1.7504174145011712e+18
14018.0	1.7499938921381888e+18
14019.0	1.7495765840560123e+18
14020.0	1.7491539777290237e+18
14021.0	1.7487311868526584e+18
14022.0	1.7483110450987003e+18
14023.0	1.7478786895314941e+18
14024.0	1.7474584806686717e+18
14025.0	1.7470499789471741e+18
14026.0	1.7466290251759608e+18
14027.0	1.7462090730045437e+18
14028.0	1.745785691570176e+18
14029.0	1.7453650615992317e+18
14030.0	1.7447582884167677e+18
14031.0	1.744516641141555e+18
14032.0	1.7441122481602552e+18
14033.0	1.7436578456535035e+18
14034.0	1.7432748570443768e+18
14035.0	1.742852842953113e+18
14036.0	1.7424365549256696e+18
14037.0	1.7420156045099005e+18
14038.0	1.7415997141024765e+18
14039.0	1.7411780322000896e+18
14040.0	1.7407521627045885e+18
14041.0	1.7403418876313597e+18
14042.0	1.7399195749056507e+18
14043.0	1.7394764919865341e+18
14044.0	1.7390805580775421e+18
14045.0	1.7386676338819064e+18
14046.0	1.738248736997376e+18
14047.0	1.7378287630155768e+18
14048.0	1.7374176843137021e+18
14049.0	1.7370016345227261e+18
14050.0	1.736584311341056e+18
14051.0	1.7361574838665216e+18
14052.0	1.7357469403578363e+18
14053.0	1.7353324642697208e+18
14054.0	1.734917669414502e+18
14055.0	1.7344965545820157e+18
14056.0	1.7340848886775803e+18
14057.0	1.7336671812976637e+18
14058.0	1.733252253902438e+18
14059.0	1.7328365497221115e+18
14060.0	1.7324209160060925e+18
14061.0	1.731999631723724e+18
14062.0	1.7315894489251835e+18
14063.0	1.731161348059955e+18
14064.0	1.7307321818415104e+18
14065.0	1.730337430726246e+18
14066.0	1.729925949371187e+18
14067.0	1.7295078812811261e+18
14068.0	1.729097065981542e+18
14069.0	1.728680205851033e+18
14070.0	1.7282665937895421e+18
14071.0	1.727850099402342e+18
14072.0	1.7274370057568256e+18
14073.0	1.7270235883110397e+18
14074.0	1.7266095752740856e+18
14075.0	1.7261810935660541e+18
14076.0	1.725774727584153e+18
14077.0	1.7253192010039293e+18
14078.0	1.7249491006521344e+18
14079.0	1.7245321700573181e+18
14080.0	1.7241275992375293e+18
14081.0	1.7237140760952824e+18
14082.0	1.7232762863878144e+18
14083.0	1.722885632268697e+18
14084.0	1.7224753471291387e+18
14085.0	1.721850152563507e+18
14086.0	1.7216451316285437e+18
14087.0	1.7212375308435453e+18
14088.0	1.7208161341538304e+18
14089.0	1.720403401218457e+18
14090.0	1.7199983774138365e+18
14091.0	1.71958875497431e+18
14092.0	1.7191756160303104e+18
14093.0	1.7187647940198397e+18
14094.0	1.718353357963264e+18
14095.0	1.71794102264791e+18
14096.0	1.7175169617362941e+18
14097.0	1.7170991402713085e+18
14098.0	1.716695302615859e+18
14099.0	1.7162932970323963e+18
14100.0	1.715871195699609e+18
14101.0	1.7154723459104765e+18
14102.0	1.715059342861926e+18
14103.0	1.7146406691143675e+18
14104.0	1.7142382424227837e+18
14105.0	1.7138217329360893e+18
14106.0	1.7134200192761853e+18
14107.0	1.712983521414348e+18
14108.0	1.7125879985471485e+18
14109.0	1.7121851457142781e+18
14110.0	1.7117540752818176e+18
14111.0	1.7113136263856125e+18
14112.0	1.7109534111694848e+18
14113.0	1.710546461340467e+18
14114.0	1.7101289150218235e+18
14115.0	1.7097311926616067e+18
14116.0	1.7092569913622525e+18
14117.0	1.7086040523145216e+18
14118.0	1.7085034930372605e+18
14119.0	1.708088127756697e+18
14120.0	1.7076839595900923e+18
14121.0	1.7072602526777341e+18
14122.0	1.7068648455733248e+18
14123.0	1.7064460946505725e+18
14124.0	1.7060430740455421e+18
14125.0	1.7052818615566333e+18
14126.0	1.7052376603033597e+18
14127.0	1.7048306483986427e+18
14128.0	1.704421351437107e+18
14129.0	1.7040056573231104e+18
14130.0	1.7035881076490235e+18
14131.0	1.703200512016384e+18
14132.0	1.7027886481407997e+18
14133.0	1.7019611153170412e+18
14134.0	1.701979075326771e+18
14135.0	1.70156159443927e+18
14136.0	1.701140813473382e+18
14137.0	1.7007595529175035e+18
14138.0	1.7003488282148861e+18
14139.0	1.6999469920813053e+18
14140.0	1.6994970154041344e+18
14141.0	1.6991348775190528e+18
14142.0	1.6986833875369981e+18
14143.0	1.6982248209252347e+18
14144.0	1.6979177391521787e+18
14145.0	1.6975113530376184e+18
14146.0	1.697105034031923e+18
14147.0	1.6967008474103805e+18
14148.0	1.6962946626224125e+18
14149.0	1.69588498146263e+18
14150.0	1.6954796506349563e+18
14151.0	1.69506897961943e+18
14152.0	1.6946696516796413e+18
14153.0	1.6942665757097981e+18
14154.0	1.6938412816728061e+18
14155.0	1.6932662946037757e+18
14156.0	1.69304649629696e+18
14157.0	1.6926484048379904e+18
14158.0	1.6922384669868032e+18
14159.0	1.6918398168465403e+18
14160.0	1.6914371636625405e+18
14161.0	1.690980694202777e+18
14162.0	1.690546139142553e+18
14163.0	1.6902248101576704e+18
14164.0	1.689802321271193e+18
14165.0	1.6889678997225472e+18
14166.0	1.6890104031215613e+18
14167.0	1.6886009920749565e+18
14168.0	1.6882041807175675e+18
14169.0	1.6878070707257341e+18
14170.0	1.6874011023638528e+18
14171.0	1.6869959342751741e+18
14172.0	1.6866001027071997e+18
14173.0	1.6859968409960448e+18
14174.0	1.6857926203342843e+18
14175.0	1.6853939299287037e+18
14176.0	1.684989278578278e+18
14177.0	1.684588700735897e+18
14178.0	1.6841832625340413e+18
14179.0	1.683743630688256e+18
14180.0	1.6833860142628861e+18
14181.0	1.6829840556556288e+18
14182.0	1.682582910743347e+18
14183.0	1.682182210427289e+18
14184.0	1.681777148035072e+18
14185.0	1.6813799222804477e+18
14186.0	1.6809059994828795e+18
14187.0	1.6805607092781053e+18
14188.0	1.680175455744819e+18
14189.0	1.6797735860568061e+18
14190.0	1.6793777242898432e+18
14191.0	1.678977869545472e+18
14192.0	1.6785707150344187e+18
14193.0	1.6781692261892093e+18
14194.0	1.6777780402323456e+18
14195.0	1.6773797239586813e+18
14196.0	1.676980016853811e+18
14197.0	1.6765793064714235e+18
14198.0	1.6761773981958141e+18
14199.0	1.6757706916364285e+18
14200.0	1.6753480282669053e+18
14201.0	1.674984252925542e+18
14202.0	1.6745843663044603e+18
14203.0	1.6741372551757821e+18
14204.0	1.6737830227148797e+18
14205.0	1.6733850134642688e+18
14206.0	1.672890318795571e+18
14207.0	1.6725906475188221e+18
14208.0	1.6721925225054205e+18
14209.0	1.671680760374886e+18
14210.0	1.6713322858545147e+18
14211.0	1.6709933357596667e+18
14212.0	1.6706007858151421e+18
14213.0	1.670200575393792e+18
14214.0	1.6698060742590461e+18
14215.0	1.6693951297748987e+18
14216.0	1.669010963405209e+18
14217.0	1.668614992586342e+18
14218.0	1.6682086266044413e+18
14219.0	1.667819254264627e+18
14220.0	1.667424620589875e+18
14221.0	1.6670267254243325e+18
14222.0	1.6666129791451133e+18
14223.0	1.6662319635365885e+18
14224.0	1.6658368970096637e+18
14225.0	1.665343219040256e+18
14226.0	1.6650449704714237e+18
14227.0	1.6646481943461888e+18
14228.0	1.6640178776965115e+18
14229.0	1.6638264832163837e+18
14230.0	1.663461540180787e+18
14231.0	1.663056461011353e+18
14232.0	1.6626715782545405e+18
14233.0	1.6622686281138176e+18
14234.0	1.6618812874948605e+18
14235.0	1.6614838553804797e+18
14236.0	1.661088176485171e+18
14237.0	1.6606947675471872e+18
14238.0	1.660300677454233e+18
14239.0	1.659901960205107e+18
14240.0	1.6584233422159875e+18
14241.0	1.6591183769763835e+18
14242.0	1.658725045213593e+18
14243.0	1.658208508287385e+18
14244.0	1.6579373498892285e+18
14245.0	1.6575265480114176e+18
14246.0	1.657121136653107e+18
14247.0	1.6567510161686525e+18
14248.0	1.6563517066838013e+18
14249.0	1.655965480071987e+18
14250.0	1.6555743327027197e+18
14251.0	1.6551819270422523e+18
14252.0	1.6547874829500413e+18
14253.0	1.6543940035477504e+18
14254.0	1.6539996819292157e+18
14255.0	1.6535857662001147e+18
14256.0	1.6531465269411837e+18
14257.0	1.6528198678347779e+18
14258.0	1.6524318896816123e+18
14259.0	1.652023689950003e+18
14260.0	1.6516436490977277e+18
14261.0	1.6512374659874813e+18
14262.0	1.6508656812031995e+18
14263.0	1.650368189772595e+18
14264.0	1.6500627722993661e+18
14265.0	1.6496831743655933e+18
14266.0	1.6492980651163648e+18
14267.0	1.6489068472827904e+18
14268.0	1.648515349269708e+18
14269.0	1.6481180832497661e+18
14270.0	1.6477352355692541e+18
14271.0	1.6473358119993341e+18
14272.0	1.646953377038336e+18
14273.0	1.6465627413741563e+18
14274.0	1.6460130694463488e+18
14275.0	1.6457687378165757e+18
14276.0	1.6453439403851768e+18
14277.0	1.6449748735098872e+18
14278.0	1.6446115830300672e+18
14279.0	1.6442211168157693e+18
14280.0	1.643825560394137e+18
14281.0	1.6434421389328381e+18
14282.0	1.6430527917588477e+18
14283.0	1.6426633271443453e+18
14284.0	1.6422739732594685e+18
14285.0	1.6418847384928253e+18
14286.0	1.6414937387630587e+18
14287.0	1.641104730488832e+18
14288.0	1.6407162993508352e+18
14289.0	1.6396335850717158e+18
14290.0	1.6399294462427133e+18
14291.0	1.6395497728114685e+18
14292.0	1.6391613349625853e+18
14293.0	1.6387732175585275e+18
14294.0	1.6382786470412288e+18
14295.0	1.6379852923863037e+18
14296.0	1.6370461172563965e+18
14297.0	1.637222687388467e+18
14298.0	1.6367157688401915e+18
14299.0	1.6364336649863163e+18
14300.0	1.6360510656086016e+18
14301.0	1.6356578563194875e+18
14302.0	1.6352802666184704e+18
14303.0	1.6348682416816125e+18
14304.0	1.6344970742988797e+18
14305.0	1.634117140820787e+18
14306.0	1.6336338328485885e+18
14307.0	1.6333268181843963e+18
14308.0	1.632959826650726e+18
14309.0	1.6325695969951741e+18
14310.0	1.6317361082597366e+18
14311.0	1.6317252416569344e+18
14312.0	1.6313855281987581e+18
14313.0	1.6309749142257661e+18
14314.0	1.63063947895767e+18
14315.0	1.6302544519167997e+18
14316.0	1.6298286327529472e+18
14317.0	1.6294049426178048e+18
14318.0	1.6290976125419515e+18
14319.0	1.6287127415291901e+18
14320.0	1.628327519872614e+18
14321.0	1.6279395803070461e+18
14322.0	1.6275201465516024e+18
14323.0	1.6271620133879805e+18
14324.0	1.6267867171323901e+18
14325.0	1.6263946906370048e+18
14326.0	1.62601837264896e+18
14327.0	1.625626505537126e+18
14328.0	1.625242765308723e+18
14329.0	1.6248652863373307e+18
14330.0	1.6244802458746883e+18
14331.0	1.6240951601135613e+18
14332.0	1.6237114416955387e+18
14333.0	1.6233286829342715e+18
14334.0	1.6229453705248765e+18
14335.0	1.6225317366530048e+18
14336.0	1.6221505868267515e+18
14337.0	1.6217919000150013e+18
14338.0	1.6214091060215805e+18
14339.0	1.6210185156558848e+18
14340.0	1.6206451018039293e+18
14341.0	1.6202597509627896e+18
14342.0	1.6198751752290301e+18
14343.0	1.6194744581357565e+18
14344.0	1.6190992155672579e+18
14345.0	1.6187300396400637e+18
14346.0	1.6183474671058941e+18
14347.0	1.6179561519644672e+18
14348.0	1.617581025158758e+18
14349.0	1.6172025479430141e+18
14350.0	1.6168125431021565e+18
14351.0	1.6164262376374272e+18
14352.0	1.6160492099731453e+18
14353.0	1.6156735429410813e+18
14354.0	1.6152907221041147e+18
14355.0	1.6149100336513021e+18
14356.0	1.614529506259763e+18
14357.0	1.6141496516345853e+18
14358.0	1.613768528651878e+18
14359.0	1.6133744855351293e+18
14360.0	1.613005646829977e+18
14361.0	1.6126257032855547e+18
14362.0	1.612244402464358e+18
14363.0	1.6118642643042301e+18
14364.0	1.6114554840809467e+18
14365.0	1.6111005822091261e+18
14366.0	1.610717424150118e+18
14367.0	1.6103417889947643e+18
14368.0	1.6099615132614653e+18
14369.0	1.6095830779887613e+18
14370.0	1.6092031294111741e+18
14371.0	1.608821887310233e+18
14372.0	1.6084357915607037e+18
14373.0	1.608061520393011e+18
14374.0	1.6076799880462333e+18
14375.0	1.607301148442624e+18
14376.0	1.606922681293209e+18
14377.0	1.6065445278777341e+18
14378.0	1.6061639216332797e+18
14379.0	1.605787242935091e+18
14380.0	1.6054080560431101e+18
14381.0	1.6050196869808123e+18
14382.0	1.6046493282598907e+18
14383.0	1.6042408332492797e+18
14384.0	1.6038751453052925e+18
14385.0	1.6035164903702523e+18
14386.0	1.6031236602462203e+18
14387.0	1.6027590074564605e+18
14388.0	1.602378790443417e+18
14389.0	1.6020041954754557e+18
14390.0	1.6016252703080443e+18
14391.0	1.6012476839624701e+18
14392.0	1.600848641235353e+18
14393.0	1.600494851692953e+18
14394.0	1.6000873884811261e+18
14395.0	1.599716351960678e+18
14396.0	1.5993627050246141e+18
14397.0	1.598986631983923e+18
14398.0	1.5985937699831805e+18
14399.0	1.5982312831320061e+18
14400.0	1.5978322320162816e+18
14401.0	1.5974753420443648e+18
14402.0	1.5971004954181624e+18
14403.0	1.59022773908274e+18
14404.0	1.5796006411042788e+18
14405.0	1.5950172483747791e+18
14406.0	1.5955977836691453e+18
14407.0	1.5850221112131638e+18
14408.0	1.5948266424238077e+18
14409.0	1.594455726699315e+18
14410.0	1.594090084053811e+18
14411.0	1.5937197202997248e+18
14412.0	1.593341551784755e+18
14413.0	1.5929686731259901e+18
14414.0	1.5925937862344701e+18
14415.0	1.5922197868576763e+18
14416.0	1.5918422340665341e+18
14417.0	1.5914487932518397e+18
14418.0	1.5910490089717757e+18
14419.0	1.5907205261819901e+18
14420.0	1.5903422200938493e+18
14421.0	1.5899721482633216e+18
14422.0	1.5895939512270843e+18
14423.0	1.5892179822051325e+18
14424.0	1.5523533719338772e+18
14425.0	1.5884723674939384e+18
14426.0	1.5881015222337533e+18
14427.0	1.5877289707307005e+18
14428.0	1.5873238865281021e+18
14429.0	1.5869804267175933e+18
14430.0	1.5866090278092797e+18
14431.0	1.586191278486323e+18
14432.0	1.5858278806323197e+18
14433.0	1.5777931309613e+18
14434.0	1.5851044957323264e+18
14435.0	1.5847298856648701e+18
14436.0	1.5843708784082941e+18
14437.0	1.5839976407171072e+18
14438.0	1.5833988014800893e+18
14439.0	1.583201078634086e+18
14440.0	1.5828802026340347e+18
14441.0	1.5825027253403648e+18
14442.0	1.5821276505440253e+18
14443.0	1.5817260308365307e+18
14444.0	1.5813889128136701e+18
14445.0	1.581020062364467e+18
14446.0	1.572588043318071e+18
14447.0	1.5802668073091067e+18
14448.0	1.5799057347772413e+18
14449.0	1.579532183352115e+18
14450.0	1.579155742890393e+18
14451.0	1.5787865602523133e+18
14452.0	1.5784136899821565e+18
14453.0	1.5778909102538755e+18
14454.0	1.577673737581363e+18
14455.0	1.5772987013726205e+18
14456.0	1.576901890015232e+18
14457.0	1.5765111553654781e+18
14458.0	1.576174030631731e+18
14459.0	1.5757863175585792e+18
14460.0	1.5754519962976253e+18
14461.0	1.575069752596889e+18
14462.0	1.5746577662476285e+18
14463.0	1.5743397658623997e+18
14464.0	1.5739719992213501e+18
14465.0	1.573588002301542e+18
14466.0	1.5732275438157824e+18
14467.0	1.5727490676817915e+18
14468.0	1.572481246271897e+18
14469.0	1.5721090638675963e+18
14470.0	1.5717294307016701e+18
14471.0	1.5713675260198907e+18
14472.0	1.5710052220403707e+18
14473.0	1.5706461359308797e+18
14474.0	1.570278641080729e+18
14475.0	1.5699025445519357e+18
14476.0	1.5690264668536832e+18
14477.0	1.5691724235997184e+18
14478.0	1.5688006555926525e+18
14479.0	1.568426513609523e+18
14480.0	1.568055191876403e+18
14481.0	1.5677010198134781e+18
14482.0	1.567330248373043e+18
14483.0	1.5669551567994875e+18
14484.0	1.5665933242597376e+18
14485.0	1.5661936775528443e+18
14486.0	1.5656262268092416e+18
14487.0	1.5654942068965376e+18
14488.0	1.5651131308900347e+18
14489.0	1.5647545816514557e+18
14490.0	1.564379402836377e+18
14491.0	1.5640240932782083e+18
14492.0	1.5636582123962365e+18
14493.0	1.5632846760706048e+18
14494.0	1.5629084352577533e+18
14495.0	1.562557999480832e+18
14496.0	1.5620843434409981e+18
14497.0	1.5618229426716672e+18
14498.0	1.5614558286643197e+18
14499.0	1.5610927126675453e+18
14500.0	1.5607265180516347e+18
14501.0	1.5601242814283773e+18
14502.0	1.5595994532020227e+18
14503.0	1.5596062429413373e+18
14504.0	1.5592576660799485e+18
14505.0	1.558680204371558e+18
14506.0	1.5580168231845885e+18
14507.0	1.5579742476435453e+18
14508.0	1.5578009171918843e+18
14509.0	1.5574351537504253e+18
14510.0	1.5570687359975421e+18
14511.0	1.5567058968248315e+18
14512.0	1.5563266998665213e+18
14513.0	1.5559759788769277e+18
14514.0	1.5555221467955195e+18
14515.0	1.5552385145372672e+18
14516.0	1.5532032352321546e+18
14517.0	1.5545172519550973e+18
14518.0	1.5541525236678653e+18
14519.0	1.5537874346704893e+18
14520.0	1.5534239361531901e+18
14521.0	1.5530523493400576e+18
14522.0	1.5526941993992195e+18
14523.0	1.5518156520947704e+18
14524.0	1.5514112926679035e+18
14525.0	1.5516003265937403e+18
14526.0	1.5512389420056579e+18
14527.0	1.550830606378598e+18
14528.0	1.5503997859266557e+18
14529.0	1.5501424485990395e+18
14530.0	1.5497713835573248e+18
14531.0	1.549422393976422e+18
14532.0	1.5481322881417213e+18
14533.0	1.5486974169186301e+18
14534.0	1.5483356481323003e+18
14535.0	1.5479619608117243e+18
14536.0	1.547606312353792e+18
14537.0	1.5472348647915515e+18
14538.0	1.5468826657292285e+18
14539.0	1.546519185666867e+18
14540.0	1.5461578648322043e+18
14541.0	1.5457761697464315e+18
14542.0	1.5454303628034043e+18
14543.0	1.544730523048345e+18
14544.0	1.5447080231239677e+18
14545.0	1.5443350287024128e+18
14546.0	1.5089656794185551e+18
14547.0	1.512244163851037e+18
14548.0	1.543250571270553e+18
14549.0	1.5428058341179387e+18
14550.0	1.542532786605261e+18
14551.0	1.542179087659827e+18
14552.0	1.5418088967110653e+18
14553.0	1.5414420142292995e+18
14554.0	1.5410953013166075e+18
14555.0	1.5407331030335485e+18
14556.0	1.5403596841484285e+18
14557.0	1.5400135164952573e+18
14558.0	1.5396527644082176e+18
14559.0	1.5380348015738834e+18
14560.0	1.5389081949175805e+18
14561.0	1.5385658994458621e+18
14562.0	1.538190598157107e+18
14563.0	1.5378499418193912e+18
14564.0	1.5374856514174973e+18
14565.0	1.5371313719803901e+18
14566.0	1.5367714889531392e+18
14567.0	1.5364101446303741e+18
14568.0	1.5360288823967744e+18
14569.0	1.5356925076045821e+18
14570.0	1.5349788451012603e+18
14571.0	1.5349709128335357e+18
14572.0	1.5345797402984448e+18
14573.0	1.5342164263305213e+18
14574.0	1.533881537999667e+18
14575.0	1.5335343083487224e+18
14576.0	1.5331745477951485e+18
14577.0	1.5328113042915325e+18
14578.0	1.5324580180656123e+18
14579.0	1.5321000291860477e+18
14580.0	1.5317426056986621e+18
14581.0	1.531356362309632e+18
14582.0	1.5310255038660603e+18
14583.0	1.5306672079634432e+18
14584.0	1.530300219785216e+18
14585.0	1.5299502822916093e+18
14586.0	1.5295896275124221e+18
14587.0	1.5292232366030848e+18
14588.0	1.5288732772990973e+18
14589.0	1.5285329112072192e+18
14590.0	1.5281910636871675e+18
14591.0	1.5278455184687101e+18
14592.0	1.5274998709092347e+18
14593.0	1.527071429466521e+18
14594.0	1.526819229322444e+18
14595.0	1.5264727395467267e+18
14596.0	1.5260751967027197e+18
14597.0	1.5257707892178941e+18
14598.0	1.5254501866864635e+18
14599.0	1.5251125183709181e+18
14600.0	1.5247701054586877e+18
14601.0	1.5244280163467264e+18
14602.0	1.5240649473261568e+18
14603.0	1.523743031138713e+18
14604.0	1.5233708185354237e+18
14605.0	1.5230555394146304e+18
14606.0	1.5226656520142848e+18
14607.0	1.5223785485500413e+18
14608.0	1.5220323171434493e+18
14609.0	1.521638825997107e+18
14610.0	1.521343008446873e+18
14611.0	1.5210139938193403e+18
14612.0	1.520674453166489e+18
14613.0	1.5203353470435325e+18
14614.0	1.519991679195545e+18
14615.0	1.5196476925804541e+18
14616.0	1.5193129820880893e+18
14617.0	1.5189717066711037e+18
14618.0	1.518612065235763e+18
14619.0	1.5182795626250237e+18
14620.0	1.5178854255558653e+18
14621.0	1.5176110341881856e+18
14622.0	1.5172680944713725e+18
14623.0	1.5169300436353021e+18
14624.0	1.5165435670429693e+18
14625.0	1.5162472981856253e+18
14626.0	1.515893283828531e+18
14627.0	1.515539131898265e+18
14628.0	1.5152303472377853e+18
14629.0	1.5148904643297277e+18
14630.0	1.5145500596502525e+18
14631.0	1.5142042560626688e+18
14632.0	1.510416940479285e+18
14633.0	1.5132075501813747e+18
14634.0	1.5131821763198976e+18
14635.0	1.5126874850066417e+18
14636.0	1.511887178249011e+18
14637.0	1.5121735670038525e+18
14638.0	1.5118308269359104e+18
14639.0	1.5114873453150205e+18
14640.0	1.5111513228443643e+18
14641.0	1.4981783506386842e+18
14642.0	1.510472263349043e+18
14643.0	1.5101374287052797e+18
14644.0	1.5097890397487101e+18
14645.0	1.5094391844634621e+18
14646.0	1.5091077857935357e+18
14647.0	1.5087710268030976e+18
