# Flux units: erg / (cm m2 s)
# Wavelength units: Angstrom
wave	flux
14000.0	1.944034451285606e+18
14001.0	1.9435969753120765e+18
14002.0	1.9433434145357821e+18
14003.0	1.9429775000993787e+18
14004.0	1.942610926318387e+18
14005.0	1.942244164632576e+18
14006.0	1.9418694388023296e+18
14007.0	1.9415008601440248e+18
14008.0	1.9410419848314875e+18
14009.0	1.9407731064569853e+18
14010.0	1.9403947986911232e+18
14011.0	1.9393816997920765e+18
14012.0	1.939674740713062e+18
14013.0	1.9393126380601341e+18
14014.0	1.9389408482426875e+18
14015.0	1.9385787841773565e+18
14016.0	1.938215371223859e+18
14017.0	1.9378497671659517e+18
14018.0	1.937484038956646e+18
14019.0	1.937118500329881e+18
14020.0	1.936752169818521e+18
14021.0	1.9363859634585597e+18
14022.0	1.9360200741879805e+18
14023.0	1.9356436807024635e+18
14024.0	1.9352762546388987e+18
14025.0	1.934925904425779e+18
14026.0	1.9345594011090936e+18
14027.0	1.9341963069227005e+18
14028.0	1.9338244902617083e+18
14029.0	1.9334613725872128e+18
14030.0	1.9325517371015168e+18
14031.0	1.9326976737148925e+18
14032.0	1.932370330098073e+18
14033.0	1.9319622897500155e+18
14034.0	1.9316427659935744e+18
14035.0	1.9312798999773181e+18
14036.0	1.9309160004845565e+18
14037.0	1.9305520271720445e+18
14038.0	1.9301880807030781e+18
14039.0	1.9298196261961725e+18
14040.0	1.9294550975578107e+18
14041.0	1.9290944528449536e+18
14042.0	1.928721490300108e+18
14043.0	1.9283271955251197e+18
14044.0	1.9279930672021504e+18
14045.0	1.9276382844485624e+18
14046.0	1.927273940359577e+18
14047.0	1.9269072793370621e+18
14048.0	1.9265513641213947e+18
14049.0	1.9261895567474683e+18
14050.0	1.925826580001587e+18
14051.0	1.9254545385259003e+18
14052.0	1.925096220812902e+18
14053.0	1.924737948398387e+18
14054.0	1.9243754732912637e+18
14055.0	1.9240128975208443e+18
14056.0	1.9236503569825787e+18
14057.0	1.9232879657615355e+18
14058.0	1.9229256282275835e+18
14059.0	1.9225633628356608e+18
14060.0	1.9222011494531064e+18
14061.0	1.9218318644740093e+18
14062.0	1.9214767881191421e+18
14063.0	1.921098198496051e+18
14064.0	1.920644673437696e+18
14065.0	1.920364148319846e+18
14066.0	1.9200116992770043e+18
14067.0	1.9196469995110397e+18
14068.0	1.9192886096560128e+18
14069.0	1.9189255624458237e+18
14070.0	1.9185653774286845e+18
14071.0	1.9182014661918715e+18
14072.0	1.9178432961183741e+18
14073.0	1.9174821782880253e+18
14074.0	1.9171211829313533e+18
14075.0	1.9167412427423741e+18
14076.0	1.9163950717337597e+18
14077.0	1.9159163170979835e+18
14078.0	1.9156678096191483e+18
14079.0	1.9153061649842173e+18
14080.0	1.914956563034931e+18
14081.0	1.9145961917906941e+18
14082.0	1.914234000218521e+18
14083.0	1.91387362394112e+18
14084.0	1.913513056403456e+18
14085.0	1.9128585419751421e+18
14086.0	1.912780937284812e+18
14087.0	1.9124344894521336e+18
14088.0	1.9120623070478333e+18
14089.0	1.911712518871449e+18
14090.0	1.911354217935667e+18
14091.0	1.9109962206674941e+18
14092.0	1.9106368057245693e+18
14093.0	1.9102773219950587e+18
14094.0	1.909917801355673e+18
14095.0	1.9095578864517117e+18
14096.0	1.9091755706089464e+18
14097.0	1.9088192158302205e+18
14098.0	1.9084689797021693e+18
14099.0	1.9081201293721597e+18
14100.0	1.9077488294494203e+18
14101.0	1.907403114781081e+18
14102.0	1.9070441528229883e+18
14103.0	1.9066698195795965e+18
14104.0	1.906324064645939e+18
14105.0	1.9059686728794107e+18
14106.0	1.9056103501332477e+18
14107.0	1.9052515123265533e+18
14108.0	1.9048811888377853e+18
14109.0	1.9045303520854016e+18
14110.0	1.9041745912201213e+18
14111.0	1.90380862645207e+18
14112.0	1.9034523740143613e+18
14113.0	1.9031031562633216e+18
14114.0	1.9027308295749627e+18
14115.0	1.9023845444812797e+18
14116.0	1.902004137885696e+18
14117.0	1.9007034573717504e+18
14118.0	1.9013083749941243e+18
14119.0	1.9009360566943741e+18
14120.0	1.9005871057010683e+18
14121.0	1.900228259505766e+18
14122.0	1.8998725305171965e+18
14123.0	1.8995178668818435e+18
14124.0	1.8991562860003328e+18
14125.0	1.8983192069406712e+18
14126.0	1.8984544564674555e+18
14127.0	1.898101244061286e+18
14128.0	1.8977438138630141e+18
14129.0	1.897376035477913e+18
14130.0	1.8970091613847547e+18
14131.0	1.8966754726248445e+18
14132.0	1.896308737782579e+18
14133.0	1.8953837310115827e+18
14134.0	1.8956017928765435e+18
14135.0	1.8952351469535224e+18
14136.0	1.8948844578406397e+18
14137.0	1.894536077272678e+18
14138.0	1.894174040050892e+18
14139.0	1.8938269513285632e+18
14140.0	1.8934677762998272e+18
14141.0	1.8931032627609597e+18
14142.0	1.8926966165995517e+18
14143.0	1.8924014013513725e+18
14144.0	1.8920504169594877e+18
14145.0	1.891693916218982e+18
14146.0	1.8913387811438584e+18
14147.0	1.8909840621436925e+18
14148.0	1.890628660310835e+18
14149.0	1.890274258400051e+18
14150.0	1.889920955396915e+18
14151.0	1.8895613844258813e+18
14152.0	1.8892116113489915e+18
14153.0	1.8888568470503421e+18
14154.0	1.8884747711217661e+18
14155.0	1.8881246390124544e+18
14156.0	1.8877903026520067e+18
14157.0	1.8874391085449213e+18
14158.0	1.8870806129934328e+18
14159.0	1.8867306218127355e+18
14160.0	1.886367678621286e+18
14161.0	1.8859590846251005e+18
14162.0	1.885554906392166e+18
14163.0	1.885310420412006e+18
14164.0	1.8849227912249344e+18
14165.0	1.8845631380455421e+18
14166.0	1.8842512160456704e+18
14167.0	1.8838846573641725e+18
14168.0	1.8835452861612027e+18
14169.0	1.8831938924052475e+18
14170.0	1.8828372977123325e+18
14171.0	1.882484326898073e+18
14172.0	1.8821341729783805e+18
14173.0	1.8817479413334016e+18
14174.0	1.8814223022817275e+18
14175.0	1.8810755356819456e+18
14176.0	1.8807228869902336e+18
14177.0	1.8803702299099133e+18
14178.0	1.8800168866414584e+18
14179.0	1.8796585739616253e+18
14180.0	1.8793126009241597e+18
14181.0	1.8789602408005627e+18
14182.0	1.8786070049062907e+18
14183.0	1.8782554668662781e+18
14184.0	1.8778976138821624e+18
14185.0	1.877549164527616e+18
14186.0	1.87700769498071e+18
14187.0	1.876815706587136e+18
14188.0	1.8764905876291581e+18
14189.0	1.8761417960194043e+18
14190.0	1.8757903569649667e+18
14191.0	1.8754381662912507e+18
14192.0	1.8750792445984765e+18
14193.0	1.874708489935257e+18
14194.0	1.8743836947775483e+18
14195.0	1.8740348847128573e+18
14196.0	1.873683474179686e+18
14197.0	1.8733323421483005e+18
14198.0	1.872967367235993e+18
14199.0	1.872596694781132e+18
14200.0	1.872140238743142e+18
14201.0	1.8718897112875003e+18
14202.0	1.8715445217460224e+18
14203.0	1.8711882978295808e+18
14204.0	1.8708420412571645e+18
14205.0	1.87049104679895e+18
14206.0	1.8700092085108736e+18
14207.0	1.869791878132531e+18
14208.0	1.8694429556604925e+18
14209.0	1.8689486753890304e+18
14210.0	1.8686411288870907e+18
14211.0	1.8683873416183805e+18
14212.0	1.868042553052364e+18
14213.0	1.867693425898291e+18
14214.0	1.8673430689742843e+18
14215.0	1.8669814478274555e+18
14216.0	1.8666450596134912e+18
14217.0	1.8662955381948416e+18
14218.0	1.8658607599976443e+18
14219.0	1.865523348373504e+18
14220.0	1.8651739242627072e+18
14221.0	1.8648230891880443e+18
14222.0	1.8644607063556093e+18
14223.0	1.8641250613723128e+18
14224.0	1.8637750601252861e+18
14225.0	1.8630957556826112e+18
14226.0	1.8630716736667645e+18
14227.0	1.862727093138227e+18
14228.0	1.8615327667519488e+18
14229.0	1.861879823597567e+18
14230.0	1.8616813021560827e+18
14231.0	1.861328136726118e+18
14232.0	1.860984812811059e+18
14233.0	1.8606330533117947e+18
14234.0	1.8602877765287933e+18
14235.0	1.859936579066265e+18
14236.0	1.8595202407071744e+18
14237.0	1.859166337079705e+18
14238.0	1.8588180403978235e+18
14239.0	1.8584600146083837e+18
14240.0	1.8564023259758595e+18
14241.0	1.8577594685325307e+18
14242.0	1.8574201375948792e+18
14243.0	1.8569113148325888e+18
14244.0	1.8567291478212605e+18
14245.0	1.8563699191054333e+18
14246.0	1.8560202836017147e+18
14247.0	1.8556814324924408e+18
14248.0	1.8553214504796155e+18
14249.0	1.8549891659726843e+18
14250.0	1.8546414715928576e+18
14251.0	1.854296604173926e+18
14252.0	1.8539490188460032e+18
14253.0	1.8536006013681661e+18
14254.0	1.8532510363287547e+18
14255.0	1.8528630447538176e+18
14256.0	1.8521346032009213e+18
14257.0	1.8520989499391992e+18
14258.0	1.8517891083141115e+18
14259.0	1.8514213550948347e+18
14260.0	1.8510808044535805e+18
14261.0	1.8507258086293504e+18
14262.0	1.8504175541288955e+18
14263.0	1.8495352806047744e+18
14264.0	1.8495581445947387e+18
14265.0	1.8493394753945597e+18
14266.0	1.8490006209298427e+18
14267.0	1.848654765332889e+18
14268.0	1.8483084483624955e+18
14269.0	1.8479519627214843e+18
14270.0	1.8476153966690304e+18
14271.0	1.8472681921839104e+18
14272.0	1.8469210279641088e+18
14273.0	1.8465659398651904e+18
14274.0	1.8454257501995008e+18
14275.0	1.8457914935083005e+18
14276.0	1.8455205867683835e+18
14277.0	1.8451799522410496e+18
14278.0	1.8448309140062205e+18
14279.0	1.8444257895383037e+18
14280.0	1.8440736559071232e+18
14281.0	1.8437355832606715e+18
14282.0	1.8433901538050043e+18
14283.0	1.8430443921604605e+18
14284.0	1.8426986305159165e+18
14285.0	1.8423526910328827e+18
14286.0	1.8420063371526141e+18
14287.0	1.8416609563508736e+18
14288.0	1.8413109332934653e+18
14289.0	1.839865220458084e+18
14290.0	1.8406199837851645e+18
14291.0	1.8402784701317115e+18
14292.0	1.8399347569852413e+18
14293.0	1.8395865509003261e+18
14294.0	1.8390956495601661e+18
14295.0	1.838879946571776e+18
14296.0	1.837664235945984e+18
14297.0	1.838197323595776e+18
14298.0	1.8376414138990587e+18
14299.0	1.8375009869234176e+18
14300.0	1.8371669626191872e+18
14301.0	1.836826620015411e+18
14302.0	1.8364841450274813e+18
14303.0	1.8361030287556605e+18
14304.0	1.8357069253967872e+18
14305.0	1.8353770568089597e+18
14306.0	1.8350210795175933e+18
14307.0	1.8346799081193472e+18
14308.0	1.8343412063272963e+18
14309.0	1.8339910456967165e+18
14310.0	1.8335930112802816e+18
14311.0	1.833240622635417e+18
14312.0	1.832921404224307e+18
14313.0	1.8325046179135488e+18
14314.0	1.8322739462930424e+18
14315.0	1.8319342361903104e+18
14316.0	1.831536829241753e+18
14317.0	1.8312382921048067e+18
14318.0	1.8309067759943677e+18
14319.0	1.8305646952710144e+18
14320.0	1.8302209703804928e+18
14321.0	1.8298749352673277e+18
14322.0	1.829492022155673e+18
14323.0	1.829170240185958e+18
14324.0	1.828848936366899e+18
14325.0	1.8284952323883003e+18
14326.0	1.828163167662899e+18
14327.0	1.827812802350285e+18
14328.0	1.8274701444907003e+18
14329.0	1.827134514606899e+18
14330.0	1.8267917661503485e+18
14331.0	1.826434891277926e+18
14332.0	1.8260332799590397e+18
14333.0	1.825690444260966e+18
14334.0	1.8253475850747904e+18
14335.0	1.824991493698355e+18
14336.0	1.824625691669299e+18
14337.0	1.8243159490297846e+18
14338.0	1.823973529406668e+18
14339.0	1.823621573613977e+18
14340.0	1.8232914214912e+18
14341.0	1.8229474902409213e+18
14342.0	1.8226044079177728e+18
14343.0	1.8222621325787133e+18
14344.0	1.8219172567711741e+18
14345.0	1.8215801035161597e+18
14346.0	1.8212342210756603e+18
14347.0	1.8208782538506235e+18
14348.0	1.8205523111313405e+18
14349.0	1.820211864508825e+18
14350.0	1.8198422339190781e+18
14351.0	1.819493346679193e+18
14352.0	1.8191762069651453e+18
14353.0	1.8188432614359037e+18
14354.0	1.8184992010010621e+18
14355.0	1.8181516022513661e+18
14356.0	1.8178124172754941e+18
14357.0	1.8174793241067517e+18
14358.0	1.8171380235239421e+18
14359.0	1.8167796856782845e+18
14360.0	1.8164526608285696e+18
14361.0	1.8161130245455872e+18
14362.0	1.8157730090975227e+18
14363.0	1.8154203453063165e+18
14364.0	1.8149307391672323e+18
14365.0	1.8146557001990144e+18
14366.0	1.8143202515091456e+18
14367.0	1.8139952650911741e+18
14368.0	1.8136537749258237e+18
14369.0	1.8133134121893885e+18
14370.0	1.8129725713022976e+18
14371.0	1.8126318327562237e+18
14372.0	1.8122850493792253e+18
14373.0	1.8119499144232955e+18
14374.0	1.8116091456782333e+18
14375.0	1.81126676128727e+18
14376.0	1.8109283061202941e+18
14377.0	1.810587060902297e+18
14378.0	1.8102443292229632e+18
14379.0	1.8099068152578045e+18
14380.0	1.8095655129972733e+18
14381.0	1.8092127703531515e+18
14382.0	1.808884148312473e+18
14383.0	1.8085423108587515e+18
14384.0	1.8081849410584568e+18
14385.0	1.8078442847207424e+18
14386.0	1.8074652622454781e+18
14387.0	1.8071450590117885e+18
14388.0	1.8068033775861752e+18
14389.0	1.8064651103240187e+18
14390.0	1.806123428898406e+18
14391.0	1.8057860978049024e+18
14392.0	1.8054452770504704e+18
14393.0	1.805106914158182e+18
14394.0	1.804724561405542e+18
14395.0	1.8044157163470843e+18
14396.0	1.8040881680482304e+18
14397.0	1.8037487616131072e+18
14398.0	1.8034088485060603e+18
14399.0	1.8030694722699261e+18
14400.0	1.8026796838551547e+18
14401.0	1.8023107847520253e+18
14402.0	1.8019724805799933e+18
14403.0	1.8008966399262707e+18
14404.0	1.7973026045820902e+18
14405.0	1.7991456421576655e+18
14406.0	1.8006088183971837e+18
14407.0	1.7992517295276032e+18
14408.0	1.7999219272974333e+18
14409.0	1.7995821702184955e+18
14410.0	1.7992593346396155e+18
14411.0	1.7989267649200125e+18
14412.0	1.7985853687070717e+18
14413.0	1.7982508662521853e+18
14414.0	1.7979092703903744e+18
14415.0	1.7975717312593915e+18
14416.0	1.7972333062914043e+18
14417.0	1.7968894589272067e+18
14418.0	1.7965436989603837e+18
14419.0	1.7962155265490944e+18
14420.0	1.7958726170312696e+18
14421.0	1.7955383008034808e+18
14422.0	1.795192040875622e+18
14423.0	1.7948233766535163e+18
14424.0	1.7903361206517737e+18
14425.0	1.7941479242596347e+18
14426.0	1.7938438573522941e+18
14427.0	1.7935085881786365e+18
14428.0	1.7931465308241917e+18
14429.0	1.792830325601075e+18
14430.0	1.7924952208441341e+18
14431.0	1.7920066733473784e+18
14432.0	1.7918118529597437e+18
14433.0	1.7906940323561464e+18
14434.0	1.7911220828897277e+18
14435.0	1.7907796783661053e+18
14436.0	1.7904689676812285e+18
14437.0	1.7901320996388861e+18
14438.0	1.7897630025646077e+18
14439.0	1.7894489431474176e+18
14440.0	1.789118593053491e+18
14441.0	1.7887383592632317e+18
14442.0	1.7883581808377856e+18
14443.0	1.7879749120491517e+18
14444.0	1.787691756263833e+18
14445.0	1.7873560240390144e+18
14446.0	1.7854565814632453e+18
14447.0	1.7866585297387517e+18
14448.0	1.7863474063343613e+18
14449.0	1.7860113519869947e+18
14450.0	1.7856675096559616e+18
14451.0	1.7853321834397693e+18
14452.0	1.7849973756395515e+18
14453.0	1.7846499916382205e+18
14454.0	1.7843238509477885e+18
14455.0	1.7839767152492541e+18
14456.0	1.7836464372973563e+18
14457.0	1.7833077002731515e+18
14458.0	1.7829721391759355e+18
14459.0	1.7826316371886077e+18
14460.0	1.7822910479597565e+18
14461.0	1.781922023027507e+18
14462.0	1.7815594892001275e+18
14463.0	1.7812701392666621e+18
14464.0	1.7809467349401595e+18
14465.0	1.7805866002546688e+18
14466.0	1.7802746061127677e+18
14467.0	1.779912188048179e+18
14468.0	1.77959968220119e+18
14469.0	1.7792376584011768e+18
14470.0	1.7788969517318144e+18
14471.0	1.7785847126425597e+18
14472.0	1.7782531663331328e+18
14473.0	1.777921574725222e+18
14474.0	1.7775880050835453e+18
14475.0	1.777248989557555e+18
14476.0	1.776866257639833e+18
14477.0	1.7765786374373376e+18
14478.0	1.7762398534369275e+18
14479.0	1.77590332597207e+18
14480.0	1.7755497276899325e+18
14481.0	1.7752345341329403e+18
14482.0	1.7748936194260987e+18
14483.0	1.7745498190381053e+18
14484.0	1.7742112950845435e+18
14485.0	1.7738422282092544e+18
14486.0	1.773205546283827e+18
14487.0	1.7732149331361787e+18
14488.0	1.7728747264278523e+18
14489.0	1.7725318018105341e+18
14490.0	1.7722026949083133e+18
14491.0	1.7718041856966653e+18
14492.0	1.771470064084582e+18
14493.0	1.7711258224558075e+18
14494.0	1.7707728919068672e+18
14495.0	1.770458704982835e+18
14496.0	1.769969129042739e+18
14497.0	1.7697872489218043e+18
14498.0	1.769453514863411e+18
14499.0	1.769117723918336e+18
14500.0	1.7687810823684093e+18
14501.0	1.768414614283878e+18
14502.0	1.7678508243288061e+18
14503.0	1.767752486354944e+18
14504.0	1.7674302597890043e+18
14505.0	1.7670781479682048e+18
14506.0	1.7667185652531197e+18
14507.0	1.7661438063542264e+18
14508.0	1.7660932700241915e+18
14509.0	1.765759334639206e+18
14510.0	1.7654200288673784e+18
14511.0	1.7650875178680315e+18
14512.0	1.7647344078028797e+18
14513.0	1.764415281666457e+18
14514.0	1.764042300666675e+18
14515.0	1.7637364100759547e+18
14516.0	1.7605733545672722e+18
14517.0	1.7630503309934587e+18
14518.0	1.7627367832813563e+18
14519.0	1.762403367990067e+18
14520.0	1.7620673824292861e+18
14521.0	1.761732772600217e+18
14522.0	1.7613968776364027e+18
14523.0	1.7610032791158781e+18
14524.0	1.760673279665766e+18
14525.0	1.760384691417907e+18
14526.0	1.7600531165872125e+18
14527.0	1.759695095830937e+18
14528.0	1.7592290902015997e+18
14529.0	1.7590366286905344e+18
14530.0	1.7586932812873723e+18
14531.0	1.7583763043123197e+18
14532.0	1.7579767549132795e+18
14533.0	1.7577071718957053e+18
14534.0	1.7573743740059648e+18
14535.0	1.7570261125562365e+18
14536.0	1.7566988729581565e+18
14537.0	1.756351599686451e+18
14538.0	1.7560331144396797e+18
14539.0	1.755698038204006e+18
14540.0	1.755362589514137e+18
14541.0	1.7550001227956221e+18
14542.0	1.7546884356767744e+18
14543.0	1.754310423189913e+18
14544.0	1.7540169611608056e+18
14545.0	1.753667575637606e+18
14546.0	1.7479975879835615e+18
14547.0	1.747971940653461e+18
14548.0	1.7525600763772925e+18
14549.0	1.7521093380145147e+18
14550.0	1.751906107208499e+18
14551.0	1.7515837900455933e+18
14552.0	1.7512478346838008e+18
14553.0	1.7509045460008952e+18
14554.0	1.7505788851388413e+18
14555.0	1.7502432602882043e+18
14556.0	1.7498607984836605e+18
14557.0	1.7495068210364408e+18
14558.0	1.749162963605913e+18
14559.0	1.7467443148488666e+18
14560.0	1.748489497634406e+18
14561.0	1.7481571023978493e+18
14562.0	1.7478011905376253e+18
14563.0	1.7474936306139133e+18
14564.0	1.747149716140851e+18
14565.0	1.7468258504409085e+18
14566.0	1.746490827892326e+18
14567.0	1.746154322237849e+18
14568.0	1.7458092920799232e+18
14569.0	1.7454803881820157e+18
14570.0	1.744565969512038e+18
14571.0	1.7448074624368635e+18
14572.0	1.7444328473362432e+18
14573.0	1.7440853073068027e+18
14574.0	1.7437839465644027e+18
14575.0	1.7434662464913405e+18
14576.0	1.7431291116912635e+18
14577.0	1.742793763664691e+18
14578.0	1.742464421881446e+18
14579.0	1.742131657546137e+18
14580.0	1.7417964638699515e+18
14581.0	1.7414565222416381e+18
14582.0	1.7411247460843515e+18
14583.0	1.7407898845970424e+18
14584.0	1.7404386854567933e+18
14585.0	1.7401184184696827e+18
14586.0	1.739779522061926e+18
14587.0	1.7394469036883965e+18
14588.0	1.7391123408355325e+18
14589.0	1.7387806150098941e+18
14590.0	1.7384488187199485e+18
14591.0	1.7381153732296704e+18
14592.0	1.73777374716887e+18
14593.0	1.7373148701786107e+18
14594.0	1.7371191807311872e+18
14595.0	1.7367786217013248e+18
14596.0	1.7363729586847741e+18
14597.0	1.7360254891196408e+18
14598.0	1.735781575242547e+18
14599.0	1.7354603016224765e+18
14600.0	1.7351268343218176e+18
14601.0	1.7347949692452861e+18
14602.0	1.7344596329627643e+18
14603.0	1.7341292845465597e+18
14604.0	1.7337461029994493e+18
14605.0	1.7334503122927613e+18
14606.0	1.7330467330064381e+18
14607.0	1.732791732745011e+18
14608.0	1.7324643069198333e+18
14609.0	1.7321294571765757e+18
14610.0	1.7317856785989627e+18
14611.0	1.7314615075536893e+18
14612.0	1.731083367559987e+18
14613.0	1.7307427347103744e+18
14614.0	1.7304059992080381e+18
14615.0	1.730077232883302e+18
14616.0	1.7297448544239616e+18
14617.0	1.729411403900518e+18
14618.0	1.7290720914178043e+18
14619.0	1.728675919272345e+18
14620.0	1.7281979800092667e+18
14621.0	1.728078006137651e+18
14622.0	1.7277422034485248e+18
14623.0	1.7274123080171515e+18
14624.0	1.7270109349347328e+18
14625.0	1.7267408922214397e+18
14626.0	1.726408778842112e+18
14627.0	1.7260738871558144e+18
14628.0	1.725745266792857e+18
14629.0	1.7254114354266112e+18
14630.0	1.7250758625853437e+18
14631.0	1.7247426989522936e+18
14632.0	1.7240642434367485e+18
14633.0	1.7240276959494136e+18
14634.0	1.723737884642508e+18
14635.0	1.723379768256102e+18
14636.0	1.7229913740279803e+18
14637.0	1.7227399741571067e+18
14638.0	1.7224005157126141e+18
14639.0	1.722055136588595e+18
14640.0	1.7217243922300925e+18
14641.0	1.72007271558021e+18
14642.0	1.7210531693723648e+18
14643.0	1.7207308522094587e+18
14644.0	1.7203832299716603e+18
14645.0	1.7200352235356157e+18
14646.0	1.7197160504229885e+18
14647.0	1.7193735687241728e+18
