# Flux units: erg / (cm m2 s)
# Wavelength units: Angstrom
wave	flux
14000.0	1.8967639170744315e+18
14001.0	1.89660424830976e+18
14002.0	1.896389704626995e+18
14003.0	1.8960443439579133e+18
14004.0	1.8956952805572603e+18
14005.0	1.8953446166102008e+18
14006.0	1.8949864029159421e+18
14007.0	1.8946319640952832e+18
14008.0	1.8942044403662845e+18
14009.0	1.893924687000371e+18
14010.0	1.893565037176422e+18
14011.0	1.8926346247864315e+18
14012.0	1.8928681753772032e+18
14013.0	1.8925356392120317e+18
14014.0	1.8921811634814973e+18
14015.0	1.8918352088989693e+18
14016.0	1.8914865045307384e+18
14017.0	1.8911365754257405e+18
14018.0	1.8907799673110528e+18
14019.0	1.8904358934544381e+18
14020.0	1.8900848268541947e+18
14021.0	1.889733713277747e+18
14022.0	1.8893818799587325e+18
14023.0	1.8890203376648187e+18
14024.0	1.8886708447674365e+18
14025.0	1.8883331445751803e+18
14026.0	1.88798263665623e+18
14027.0	1.887633056517324e+18
14028.0	1.887273886521753e+18
14029.0	1.886910550743449e+18
14030.0	1.885532049113088e+18
14031.0	1.8860624977068024e+18
14032.0	1.8858738832113656e+18
14033.0	1.8854915086483453e+18
14034.0	1.8851859603128317e+18
14035.0	1.8848398564130813e+18
14036.0	1.8844877831798781e+18
14037.0	1.8841437361668096e+18
14038.0	1.8837952868122621e+18
14039.0	1.8834424988696573e+18
14040.0	1.8830954202136573e+18
14041.0	1.8827483499462653e+18
14042.0	1.88239100027863e+18
14043.0	1.8820159942688763e+18
14044.0	1.8816897176829947e+18
14045.0	1.881349245894656e+18
14046.0	1.8810031621275645e+18
14047.0	1.8806502936543227e+18
14048.0	1.8803112345075712e+18
14049.0	1.8799644796518392e+18
14050.0	1.8796167047413755e+18
14051.0	1.8792619488313341e+18
14052.0	1.8789163146936315e+18
14053.0	1.8785739017814013e+18
14054.0	1.878226594955264e+18
14055.0	1.877879207598489e+18
14056.0	1.8775318504407037e+18
14057.0	1.8771846258229243e+18
14058.0	1.876837397849702e+18
14059.0	1.876484616617984e+18
14060.0	1.876143034177945e+18
14061.0	1.8757895298482173e+18
14062.0	1.8754477091717112e+18
14063.0	1.8750827292262392e+18
14064.0	1.8745363305332733e+18
14065.0	1.874398686897766e+18
14066.0	1.8740620487032832e+18
14067.0	1.8737125205737472e+18
14068.0	1.8733695489802237e+18
14069.0	1.8730216700510203e+18
14070.0	1.8726762926047232e+18
14071.0	1.8723281653727227e+18
14072.0	1.8719848464908288e+18
14073.0	1.8716387576905725e+18
14074.0	1.8712924474310653e+18
14075.0	1.870927744309657e+18
14076.0	1.8705910054518781e+18
14077.0	1.8700138423779325e+18
14078.0	1.8698787623010304e+18
14079.0	1.8695518230151165e+18
14080.0	1.8692175403417597e+18
14081.0	1.8688728608276477e+18
14082.0	1.868526780416e+18
14083.0	1.8681790961025024e+18
14084.0	1.8678237982883835e+18
14085.0	1.8671884618956797e+18
14086.0	1.8671066276691963e+18
14087.0	1.8667937594343421e+18
14088.0	1.8664433907662843e+18
14089.0	1.8661093295521787e+18
14090.0	1.865766705247027e+18
14091.0	1.8654240004112381e+18
14092.0	1.865079913132851e+18
14093.0	1.864735309116211e+18
14094.0	1.8643901145415677e+18
14095.0	1.8640424855928827e+18
14096.0	1.8636699273789437e+18
14097.0	1.8633267158712317e+18
14098.0	1.8629972952350715e+18
14099.0	1.8626670961360893e+18
14100.0	1.862314608505651e+18
14101.0	1.861983025286348e+18
14102.0	1.861639295362662e+18
14103.0	1.8612814155350016e+18
14104.0	1.860949597434675e+18
14105.0	1.8606092363759608e+18
14106.0	1.8602657966981115e+18
14107.0	1.8599173859311616e+18
14108.0	1.8595669098889208e+18
14109.0	1.8592311843749888e+18
14110.0	1.8588899257352187e+18
14111.0	1.8585414361153533e+18
14112.0	1.8581957365465083e+18
14113.0	1.8578596738105341e+18
14114.0	1.857499757228851e+18
14115.0	1.8571570557485053e+18
14116.0	1.856702191868313e+18
14117.0	1.8545276348268541e+18
14118.0	1.8560831562186752e+18
14119.0	1.8557609397190653e+18
14120.0	1.8554349768671224e+18
14121.0	1.855098709449113e+18
14122.0	1.8547603213910013e+18
14123.0	1.8544181450375165e+18
14124.0	1.8540579885416443e+18
14125.0	1.8533266948620283e+18
14126.0	1.853391921322393e+18
14127.0	1.8530667688099835e+18
14128.0	1.8527266292105216e+18
14129.0	1.8523750660046843e+18
14130.0	1.8520230179373053e+18
14131.0	1.8517013181759483e+18
14132.0	1.8513347611721725e+18
14133.0	1.850525958432358e+18
14134.0	1.8506519100260347e+18
14135.0	1.8503212243877883e+18
14136.0	1.8499884264980475e+18
14137.0	1.849648266765926e+18
14138.0	1.8493023138611197e+18
14139.0	1.8489718698147837e+18
14140.0	1.8486268061024253e+18
14141.0	1.8482519242440704e+18
14142.0	1.84786387730432e+18
14143.0	1.8476012937412605e+18
14144.0	1.8472711885946875e+18
14145.0	1.846931520434995e+18
14146.0	1.8465890454470656e+18
14147.0	1.8462524777168893e+18
14148.0	1.8459122173214717e+18
14149.0	1.8455732118618107e+18
14150.0	1.8452351794806781e+18
14151.0	1.8448910536146941e+18
14152.0	1.8445539959898107e+18
14153.0	1.8442162236555261e+18
14154.0	1.8438503998160893e+18
14155.0	1.8435094549102584e+18
14156.0	1.8431940566712317e+18
14157.0	1.8428572238610427e+18
14158.0	1.8425149082566653e+18
14159.0	1.842178013370777e+18
14160.0	1.8418223733014525e+18
14161.0	1.8414483152044032e+18
14162.0	1.8410632965521403e+18
14163.0	1.8408036674568187e+18
14164.0	1.8404328742060027e+18
14165.0	1.840118979205529e+18
14166.0	1.839801735472742e+18
14167.0	1.8394520647368704e+18
14168.0	1.83912571600896e+18
14169.0	1.838790997127987e+18
14170.0	1.8384498676727805e+18
14171.0	1.8381116322873341e+18
14172.0	1.8377757524230141e+18
14173.0	1.837420246571417e+18
14174.0	1.837092077515571e+18
14175.0	1.8367619002269693e+18
14176.0	1.8364243711623168e+18
14177.0	1.8360865736622075e+18
14178.0	1.8357482392911872e+18
14179.0	1.835407064537497e+18
14180.0	1.8350731224416253e+18
14181.0	1.8347353501073403e+18
14182.0	1.83439672213504e+18
14183.0	1.8340588088721405e+18
14184.0	1.8337142786752512e+18
14185.0	1.833365785699942e+18
14186.0	1.8327215020179453e+18
14187.0	1.8326442077061117e+18
14188.0	1.8323638738485243e+18
14189.0	1.8320320624590843e+18
14190.0	1.8316959208701947e+18
14191.0	1.8313575881768955e+18
14192.0	1.831012081546035e+18
14193.0	1.8306374127583227e+18
14194.0	1.8303480645025787e+18
14195.0	1.8300163202220032e+18
14196.0	1.8296804403576827e+18
14197.0	1.829344018589286e+18
14198.0	1.829002665997107e+18
14199.0	1.8286627092692987e+18
14200.0	1.8281331381239803e+18
14201.0	1.8279556922212347e+18
14202.0	1.8276580274995197e+18
14203.0	1.8273221828673533e+18
14204.0	1.826988334723891e+18
14205.0	1.8266496547422205e+18
14206.0	1.8262056977301504e+18
14207.0	1.825975829738291e+18
14208.0	1.825644832043827e+18
14209.0	1.825190127547187e+18
14210.0	1.8248791584931835e+18
14211.0	1.824632610593177e+18
14212.0	1.8243066913619963e+18
14213.0	1.8239727022899197e+18
14214.0	1.8236369096671227e+18
14215.0	1.8232912386195456e+18
14216.0	1.8229686094004221e+18
14217.0	1.8226339106521088e+18
14218.0	1.822286652479897e+18
14219.0	1.8219640920473597e+18
14220.0	1.8216265428500477e+18
14221.0	1.8212930554167293e+18
14222.0	1.8209446261948413e+18
14223.0	1.8206220640845821e+18
14224.0	1.8202778023231488e+18
14225.0	1.8192760112676867e+18
14226.0	1.819564537439846e+18
14227.0	1.8192670102913021e+18
14228.0	1.8171735694114819e+18
14229.0	1.8181556036173809e+18
14230.0	1.818274341008179e+18
14231.0	1.8179433517023227e+18
14232.0	1.8175969139359741e+18
14233.0	1.8172423257980925e+18
14234.0	1.816910465754726e+18
14235.0	1.8165745993121787e+18
14236.0	1.8162428197994493e+18
14237.0	1.81590687785943e+18
14238.0	1.8155703420059645e+18
14239.0	1.8152074860560381e+18
14240.0	1.813322470208307e+18
14241.0	1.8145136709992443e+18
14242.0	1.814218938934886e+18
14243.0	1.8137702641696765e+18
14244.0	1.813572068206182e+18
14245.0	1.8132352639172603e+18
14246.0	1.8129040061759485e+18
14247.0	1.8125735872954368e+18
14248.0	1.8122300704423933e+18
14249.0	1.811908786755993e+18
14250.0	1.81156002702295e+18
14251.0	1.8112058331496445e+18
14252.0	1.810872181299609e+18
14253.0	1.8105365094727675e+18
14254.0	1.8101971198148603e+18
14255.0	1.809810923402035e+18
14256.0	1.8088827776139267e+18
14257.0	1.8089993725542392e+18
14258.0	1.8088576453443581e+18
14259.0	1.808516141757235e+18
14260.0	1.8081783543234555e+18
14261.0	1.807844313242009e+18
14262.0	1.8075237140660221e+18
14263.0	1.806266590560256e+18
14264.0	1.8064413051322363e+18
14265.0	1.8065362775965693e+18
14266.0	1.8062362925858813e+18
14267.0	1.8059114454188027e+18
14268.0	1.8055820851806205e+18
14269.0	1.805241702311526e+18
14270.0	1.8048938217046013e+18
14271.0	1.804538245388697e+18
14272.0	1.8041924753555456e+18
14273.0	1.8037812574027776e+18
14274.0	1.8019211473321987e+18
14275.0	1.8028713283158016e+18
14276.0	1.8028406494986237e+18
14277.0	1.8025416191115261e+18
14278.0	1.802224960903577e+18
14279.0	1.8018960872046587e+18
14280.0	1.801563596337971e+18
14281.0	1.8012397994246144e+18
14282.0	1.8009102261157885e+18
14283.0	1.800580027016806e+18
14284.0	1.8002495762595837e+18
14285.0	1.7999186590957568e+18
14286.0	1.7995870842650621e+18
14287.0	1.799254573265715e+18
14288.0	1.7989028892639227e+18
14289.0	1.7975788582207475e+18
14290.0	1.7982445781516285e+18
14291.0	1.7979332802641917e+18
14292.0	1.7976036398465021e+18
14293.0	1.7972420472209405e+18
14294.0	1.7967783702691837e+18
14295.0	1.7965325337231355e+18
14296.0	1.7954391675895808e+18
14297.0	1.7958505063383035e+18
14298.0	1.7952937930129405e+18
14299.0	1.7952183592943613e+18
14300.0	1.7949140860272637e+18
14301.0	1.7945908125630461e+18
14302.0	1.794263782680166e+18
14303.0	1.7938982977404923e+18
14304.0	1.7935889007116285e+18
14305.0	1.7932730310328323e+18
14306.0	1.7929342168334333e+18
14307.0	1.7926022947143675e+18
14308.0	1.7922764946014203e+18
14309.0	1.7919375126298621e+18
14310.0	1.791575837795942e+18
14311.0	1.7912183136452605e+18
14312.0	1.7909103091253248e+18
14313.0	1.7905142577758205e+18
14314.0	1.7903010965356541e+18
14315.0	1.7899775529582584e+18
14316.0	1.7896109187792893e+18
14317.0	1.7893144687280125e+18
14318.0	1.7889846118842365e+18
14319.0	1.7886338741174272e+18
14320.0	1.7883067653816315e+18
14321.0	1.7879759102935037e+18
14322.0	1.7876191377620987e+18
14323.0	1.7873019443609597e+18
14324.0	1.786997154355609e+18
14325.0	1.7866603634884603e+18
14326.0	1.7863433831579643e+18
14327.0	1.7860086240116728e+18
14328.0	1.7856824766103547e+18
14329.0	1.7853611979571197e+18
14330.0	1.7850340422451197e+18
14331.0	1.7847065023348733e+18
14332.0	1.7843794456084477e+18
14333.0	1.78405214561239e+18
14334.0	1.7837244580626432e+18
14335.0	1.7833821542023165e+18
14336.0	1.7830006570876925e+18
14337.0	1.782738612073267e+18
14338.0	1.7824136944418813e+18
14339.0	1.7820778481319933e+18
14340.0	1.7817617284726781e+18
14341.0	1.781433931871027e+18
14342.0	1.7811069154099197e+18
14343.0	1.780781868593971e+18
14344.0	1.780449025405747e+18
14345.0	1.7801272702795776e+18
14346.0	1.7797691270496253e+18
14347.0	1.7794105761333243e+18
14348.0	1.779097536770867e+18
14349.0	1.7787733992800256e+18
14350.0	1.7783892446543864e+18
14351.0	1.7780586714234875e+18
14352.0	1.777785818526515e+18
14353.0	1.7774696049147904e+18
14354.0	1.7771382867755e+18
14355.0	1.7767993568133117e+18
14356.0	1.7764754709807104e+18
14357.0	1.7761672802336765e+18
14358.0	1.775844087300096e+18
14359.0	1.7755023756754941e+18
14360.0	1.7751883380686843e+18
14361.0	1.7748639925403648e+18
14362.0	1.7745403382333437e+18
14363.0	1.7742097700356093e+18
14364.0	1.773724334712422e+18
14365.0	1.7734874186121213e+18
14366.0	1.7732016103489533e+18
14367.0	1.7729144263540733e+18
14368.0	1.7725904381804544e+18
14369.0	1.7722663711539197e+18
14370.0	1.771941822621286e+18
14371.0	1.771617329453465e+18
14372.0	1.7712868753407997e+18
14373.0	1.7709658517012477e+18
14374.0	1.7706427946631165e+18
14375.0	1.7703161691111421e+18
14376.0	1.7699939140239355e+18
14377.0	1.7696687027912704e+18
14378.0	1.769318038844211e+18
14379.0	1.768972439938662e+18
14380.0	1.7686469636259837e+18
14381.0	1.7683112515338235e+18
14382.0	1.7679974236422144e+18
14383.0	1.7676733297721341e+18
14384.0	1.7673311936839677e+18
14385.0	1.767026353346969e+18
14386.0	1.766682984133427e+18
14387.0	1.766377605247795e+18
14388.0	1.7660504025595904e+18
14389.0	1.765728883992166e+18
14390.0	1.7654039093182461e+18
14391.0	1.7650818891120635e+18
14392.0	1.764757503318425e+18
14393.0	1.7644343657496576e+18
14394.0	1.764069340505702e+18
14395.0	1.7637756888940541e+18
14396.0	1.7634627837493243e+18
14397.0	1.7631390220681213e+18
14398.0	1.7628147335823357e+18
14399.0	1.7624900994859005e+18
14400.0	1.762147050717184e+18
14401.0	1.7618299932114944e+18
14402.0	1.7614966383181821e+18
14403.0	1.7608227445276664e+18
14404.0	1.7580446086856689e+18
14405.0	1.758686610666288e+18
14406.0	1.7601756993159165e+18
14407.0	1.7594853034557437e+18
14408.0	1.7595434247651325e+18
14409.0	1.7592351367102461e+18
14410.0	1.758922538588569e+18
14411.0	1.7586119973535744e+18
14412.0	1.758289452020531e+18
14413.0	1.7579711915884541e+18
14414.0	1.7576466933874685e+18
14415.0	1.7572834263957504e+18
14416.0	1.756946368770867e+18
14417.0	1.7566161814159357e+18
14418.0	1.7562892740067325e+18
14419.0	1.7559757850148861e+18
14420.0	1.7556498490064893e+18
14421.0	1.7553294964555776e+18
14422.0	1.7549934387527675e+18
14423.0	1.7546117117902843e+18
14424.0	1.7527039124832243e+18
14425.0	1.7539679230361597e+18
14426.0	1.7537118456774653e+18
14427.0	1.753397816459264e+18
14428.0	1.753053836555059e+18
14429.0	1.7527537945018368e+18
14430.0	1.752417854239539e+18
14431.0	1.7518061636550653e+18
14432.0	1.7517727719620603e+18
14433.0	1.7511485102096381e+18
14434.0	1.7511201130938363e+18
14435.0	1.7507965728718843e+18
14436.0	1.7505043271909376e+18
14437.0	1.7501869978943485e+18
14438.0	1.7498321027334141e+18
14439.0	1.7495330169815037e+18
14440.0	1.749224759125606e+18
14441.0	1.7488948687273981e+18
14442.0	1.7485673120399352e+18
14443.0	1.7482063653371904e+18
14444.0	1.7479292845817856e+18
14445.0	1.74760272110551e+18
14446.0	1.7462653538533379e+18
14447.0	1.7469126926663675e+18
14448.0	1.746652446169497e+18
14449.0	1.7463364624056315e+18
14450.0	1.7460103854686203e+18
14451.0	1.7456924354150395e+18
14452.0	1.7453747269533693e+18
14453.0	1.7450516296499197e+18
14454.0	1.7447323072200704e+18
14455.0	1.7444035442507768e+18
14456.0	1.7440496808886264e+18
14457.0	1.7437173594718205e+18
14458.0	1.7433960690745341e+18
14459.0	1.7430695710294013e+18
14460.0	1.7427391840256e+18
14461.0	1.7423830876159995e+18
14462.0	1.742040928039731e+18
14463.0	1.7417632181387261e+18
14464.0	1.7414632767487997e+18
14465.0	1.7411286652420096e+18
14466.0	1.740833731851059e+18
14467.0	1.740498316715622e+18
14468.0	1.7401941541781504e+18
14469.0	1.739843171463987e+18
14470.0	1.7395286355738621e+18
14471.0	1.739235082947788e+18
14472.0	1.7389211309047805e+18
14473.0	1.7386065497161725e+18
14474.0	1.738291178320691e+18
14475.0	1.737969809070489e+18
14476.0	1.737634442588979e+18
14477.0	1.7373324275351547e+18
14478.0	1.7370123534860285e+18
14479.0	1.7366929287151613e+18
14480.0	1.7363574934470653e+18
14481.0	1.736058229856665e+18
14482.0	1.735733783665049e+18
14483.0	1.7354098860883963e+18
14484.0	1.7350808697831421e+18
14485.0	1.7347280197648381e+18
14486.0	1.7341669628182525e+18
14487.0	1.73413451736023e+18
14488.0	1.7338160925114363e+18
14489.0	1.7334800364863485e+18
14490.0	1.7331800749637632e+18
14491.0	1.7328700303343613e+18
14492.0	1.732553586874777e+18
14493.0	1.732222839160832e+18
14494.0	1.731891881731686e+18
14495.0	1.731586252865536e+18
14496.0	1.7311502197325821e+18
14497.0	1.7309558053535741e+18
14498.0	1.730643259241267e+18
14499.0	1.730325481993011e+18
14500.0	1.730006134397337e+18
14501.0	1.7296634496942075e+18
14502.0	1.7291470771847165e+18
14503.0	1.7290328344100861e+18
14504.0	1.7287244440141821e+18
14505.0	1.7283929027379197e+18
14506.0	1.728019020801638e+18
14507.0	1.727488776889958e+18
14508.0	1.7274061943996416e+18
14509.0	1.727095195146649e+18
14510.0	1.7267756646793213e+18
14511.0	1.7264596456833021e+18
14512.0	1.7261293811531776e+18
14513.0	1.7258192358604797e+18
14514.0	1.7254713837748221e+18
14515.0	1.7251479928700928e+18
14516.0	1.722253491935643e+18
14517.0	1.7244419774218235e+18
14518.0	1.724225932178227e+18
14519.0	1.7239150721761275e+18
14520.0	1.7236025864617981e+18
14521.0	1.7232869332090875e+18
14522.0	1.722967053775667e+18
14523.0	1.7226193812062205e+18
14524.0	1.7223122943999997e+18
14525.0	1.722012911691366e+18
14526.0	1.7216986341703675e+18
14527.0	1.7213467874295805e+18
14528.0	1.7209376045531133e+18
14529.0	1.7207385881837563e+18
14530.0	1.720417151824691e+18
14531.0	1.7201157793382395e+18
14532.0	1.7197799263174653e+18
14533.0	1.719483759801139e+18
14534.0	1.719170141624729e+18
14535.0	1.7188413333569533e+18
14536.0	1.7185317534564347e+18
14537.0	1.7182066529533947e+18
14538.0	1.717903374575206e+18
14539.0	1.7175874075885568e+18
14540.0	1.7172706084519933e+18
14541.0	1.7169288213299197e+18
14542.0	1.7166329400262653e+18
14543.0	1.716293795315712e+18
14544.0	1.7159954293063677e+18
14545.0	1.7156519862730747e+18
14546.0	1.713059747017522e+18
14547.0	1.712792724203109e+18
14548.0	1.7146864541368315e+18
14549.0	1.7142921929162752e+18
14550.0	1.7140873296871421e+18
14551.0	1.7137900072206328e+18
14552.0	1.7134742533046267e+18
14553.0	1.7131518723883005e+18
14554.0	1.71284481745879e+18
14555.0	1.7125283236675581e+18
14556.0	1.712210593395507e+18
14557.0	1.7118895882108925e+18
14558.0	1.711534345761587e+18
14559.0	1.7093170454069222e+18
14560.0	1.7108978450300928e+18
14561.0	1.7106185429712893e+18
14562.0	1.7102374803865597e+18
14563.0	1.7099439009169405e+18
14564.0	1.7096190554275837e+18
14565.0	1.7093223470071805e+18
14566.0	1.7090084369072125e+18
14567.0	1.7086913206812667e+18
14568.0	1.7083668040253437e+18
14569.0	1.7080439533469696e+18
14570.0	1.7072090586808315e+18
14571.0	1.707415666740428e+18
14572.0	1.707072525697024e+18
14573.0	1.7067403116543997e+18
14574.0	1.7064549110775803e+18
14575.0	1.7061550065975293e+18
14576.0	1.70583714210775e+18
14577.0	1.7055302163628027e+18
14578.0	1.7052224987332605e+18
14579.0	1.7049118551572472e+18
14580.0	1.704597250480537e+18
14581.0	1.7042772334739453e+18
14582.0	1.7039599444426747e+18
14583.0	1.7036510423416832e+18
14584.0	1.7033181169451003e+18
14585.0	1.7030190479704061e+18
14586.0	1.7027046848856056e+18
14587.0	1.7023925363933181e+18
14588.0	1.7020783679242235e+18
14589.0	1.701764909131366e+18
14590.0	1.7014512406233088e+18
14591.0	1.7011333492899837e+18
14592.0	1.7008070928367616e+18
14593.0	1.7003936166707197e+18
14594.0	1.700187495150387e+18
14595.0	1.6998708151320568e+18
14596.0	1.6993887872614397e+18
14597.0	1.6990397339271163e+18
14598.0	1.6989137034805248e+18
14599.0	1.6986272895598587e+18
14600.0	1.6983137502363643e+18
14601.0	1.6980004860592123e+18
14602.0	1.6976825443942395e+18
14603.0	1.697370770033868e+18
14604.0	1.6970135680057341e+18
14605.0	1.6967201412087803e+18
14606.0	1.6963434289561597e+18
14607.0	1.6961148595208187e+18
14608.0	1.695801112159846e+18
14609.0	1.695483103386009e+18
14610.0	1.695159647050137e+18
14611.0	1.6948508070248443e+18
14612.0	1.6945574674694141e+18
14613.0	1.6942480905732093e+18
14614.0	1.6939283403243515e+18
14615.0	1.6936205958512635e+18
14616.0	1.6933118564892672e+18
14617.0	1.6929858667937784e+18
14618.0	1.6926609122525181e+18
14619.0	1.6921520978788347e+18
14620.0	1.6916475314962432e+18
14621.0	1.6917338636943357e+18
14622.0	1.6914308822728696e+18
14623.0	1.6911227905114107e+18
14624.0	1.6907583491145728e+18
14625.0	1.6904937690628093e+18
14626.0	1.690182914093875e+18
14627.0	1.6898254822178813e+18
14628.0	1.6895184138665984e+18
14629.0	1.689205505366425e+18
14630.0	1.6888871291715581e+18
14631.0	1.6885747525091325e+18
14632.0	1.688126233772032e+18
14633.0	1.6879203035119608e+18
14634.0	1.687637424550707e+18
14635.0	1.687301022914969e+18
14636.0	1.6869206616178685e+18
14637.0	1.6867060558594043e+18
14638.0	1.6863806583996416e+18
14639.0	1.6860592438509563e+18
14640.0	1.6857461810003965e+18
14641.0	1.6849318585565181e+18
14642.0	1.685118651046297e+18
14643.0	1.684824824951603e+18
14644.0	1.6845001573007357e+18
14645.0	1.6841777126309885e+18
14646.0	1.683871400932147e+18
14647.0	1.6835531405000696e+18
