# Flux units: erg / (cm m2 s)
# Wavelength units: Angstrom
wave	flux
14000.0	1.7950014701568e+18
14001.0	1.794565470578278e+18
14002.0	1.7941381901189117e+18
14003.0	1.7937068764168187e+18
14004.0	1.7932728263507968e+18
14005.0	1.7928413599760381e+18
14006.0	1.7924096369098747e+18
14007.0	1.791978410449305e+18
14008.0	1.7915400637382653e+18
14009.0	1.7911175698186237e+18
14010.0	1.7906857964208128e+18
14011.0	1.7902094711259133e+18
14012.0	1.7898259892666365e+18
14013.0	1.789395836547891e+18
14014.0	1.788965230844313e+18
14015.0	1.788535516010905e+18
14016.0	1.7881058749972475e+18
14017.0	1.7876761400311803e+18
14018.0	1.7872461668286461e+18
14019.0	1.7868170559750141e+18
14020.0	1.7863876347428856e+18
14021.0	1.7859583779274747e+18
14022.0	1.7855280591142912e+18
14023.0	1.7850865398317053e+18
14024.0	1.7846634704535547e+18
14025.0	1.7842395152383997e+18
14026.0	1.783811003331379e+18
14027.0	1.78338269275095e+18
14028.0	1.7829543737819133e+18
14029.0	1.782525804832358e+18
14030.0	1.7816102620889088e+18
14031.0	1.7816669271359485e+18
14032.0	1.7812421783584765e+18
14033.0	1.7808042577887227e+18
14034.0	1.7803866644938747e+18
14035.0	1.7799595669061632e+18
14036.0	1.7795312999464963e+18
14037.0	1.7791021689602043e+18
14038.0	1.778678005707571e+18
14039.0	1.7782510725365755e+18
14040.0	1.7778231125999616e+18
14041.0	1.7773972129054715e+18
14042.0	1.776970219336499e+18
14043.0	1.7765413970509821e+18
14044.0	1.7761174552576e+18
14045.0	1.7756918256762877e+18
14046.0	1.7752628255522808e+18
14047.0	1.7748346525450237e+18
14048.0	1.7744101453594621e+18
14049.0	1.773985539188326e+18
14050.0	1.7735599901376507e+18
14051.0	1.7731338404626427e+18
14052.0	1.7727092426801147e+18
14053.0	1.7722839519985661e+18
14054.0	1.771859027060326e+18
14055.0	1.771433662559027e+18
14056.0	1.771009303012966e+18
14057.0	1.7705845961785336e+18
14058.0	1.7701600940261376e+18
14059.0	1.7697356724043776e+18
14060.0	1.7693113078251515e+18
14061.0	1.7688865271709693e+18
14062.0	1.7684631574806525e+18
14063.0	1.7680379372634112e+18
14064.0	1.7675480056463355e+18
14065.0	1.767191132451635e+18
14066.0	1.766768111727411e+18
14067.0	1.7663287063740416e+18
14068.0	1.7659203858464763e+18
14069.0	1.765495868594585e+18
14070.0	1.7650737790058493e+18
14071.0	1.764647832335155e+18
14072.0	1.764225200842342e+18
14073.0	1.7638024770748413e+18
14074.0	1.7633802163585021e+18
14075.0	1.7629557980921853e+18
14076.0	1.762518416071065e+18
14077.0	1.761993411683942e+18
14078.0	1.7616825583927296e+18
14079.0	1.7612688255352832e+18
14080.0	1.7608475697741824e+18
14081.0	1.7604258694168576e+18
14082.0	1.760001853803724e+18
14083.0	1.7595827908247547e+18
14084.0	1.7591616306937853e+18
14085.0	1.7586411947425787e+18
14086.0	1.7583105846018048e+18
14087.0	1.7578984975892477e+18
14088.0	1.7574753728462848e+18
14089.0	1.7570429048717312e+18
14090.0	1.7566343863730176e+18
14091.0	1.756216048169779e+18
14092.0	1.75579574870999e+18
14093.0	1.7553755448803323e+18
14094.0	1.7549555222446077e+18
14095.0	1.7545356254380027e+18
14096.0	1.7540913999904765e+18
14097.0	1.7536858544144381e+18
14098.0	1.7532614915129344e+18
14099.0	1.7528540752773115e+18
14100.0	1.7524326785875965e+18
14101.0	1.7520156590735357e+18
14102.0	1.751596483687219e+18
14103.0	1.7511765935915003e+18
14104.0	1.750758830846771e+18
14105.0	1.75033925280727e+18
14106.0	1.7499215471050747e+18
14107.0	1.7495004859596797e+18
14108.0	1.7490785607876603e+18
14109.0	1.7486600044806141e+18
14110.0	1.7482393963200507e+18
14111.0	1.7478192008790008e+18
14112.0	1.747405619016499e+18
14113.0	1.7469795465166848e+18
14114.0	1.7465681104601085e+18
14115.0	1.7461521697210365e+18
14116.0	1.7456981463793661e+18
14117.0	1.7445534000218115e+18
14118.0	1.7449019164852221e+18
14119.0	1.7444723224477693e+18
14120.0	1.7440556636438528e+18
14121.0	1.7436493026951168e+18
14122.0	1.7432199972257787e+18
14123.0	1.7427938509062141e+18
14124.0	1.742370694286541e+18
14125.0	1.741948670128947e+18
14126.0	1.741562299233075e+18
14127.0	1.741153453578649e+18
14128.0	1.7407374943846395e+18
14129.0	1.740320305420697e+18
14130.0	1.7399014404128768e+18
14131.0	1.7394863251128317e+18
14132.0	1.739071671186227e+18
14133.0	1.7386142622023677e+18
14134.0	1.7382419673907195e+18
14135.0	1.7378229614542843e+18
14136.0	1.7373476461477888e+18
14137.0	1.7369966600781821e+18
14138.0	1.7365709902315517e+18
14139.0	1.7361681608867837e+18
14140.0	1.7357493176893437e+18
14141.0	1.7353387993464832e+18
14142.0	1.7348512735821821e+18
14143.0	1.7345013461549053e+18
14144.0	1.7340974632009723e+18
14145.0	1.7336836649123837e+18
14146.0	1.7332689338105856e+18
14147.0	1.7328555549523963e+18
14148.0	1.732438381087948e+18
14149.0	1.7320222725767168e+18
14150.0	1.7316164535320576e+18
14151.0	1.7311931912159227e+18
14152.0	1.7307905732640765e+18
14153.0	1.7303777329545213e+18
14154.0	1.7299629515210747e+18
14155.0	1.729077468515533e+18
14156.0	1.7291237182668797e+18
14157.0	1.728726906909491e+18
14158.0	1.728311321847398e+18
14159.0	1.727903199290982e+18
14160.0	1.7274913404485627e+18
14161.0	1.727074460185395e+18
14162.0	1.726659408638771e+18
14163.0	1.726256133020057e+18
14164.0	1.7258172108505085e+18
14165.0	1.7253875748700157e+18
14166.0	1.7250189442023421e+18
14167.0	1.7246069712748536e+18
14168.0	1.7241908627636221e+18
14169.0	1.7237862198018048e+18
14170.0	1.7233715709083643e+18
14171.0	1.722961725331865e+18
14172.0	1.722554324195737e+18
14173.0	1.7221236195065853e+18
14174.0	1.7217316097884157e+18
14175.0	1.721323383213261e+18
14176.0	1.7209070146551805e+18
14177.0	1.7205002879631357e+18
14178.0	1.7200906151919613e+18
14179.0	1.7196770266185728e+18
14180.0	1.7192718853734397e+18
14181.0	1.7188624541941752e+18
14182.0	1.7184530699911163e+18
14183.0	1.718043930735411e+18
14184.0	1.7176344458690557e+18
14185.0	1.7172258837495803e+18
14186.0	1.7166714605142013e+18
14187.0	1.7164063805014016e+18
14188.0	1.715999652131635e+18
14189.0	1.7155894391341053e+18
14190.0	1.7151817427189757e+18
14191.0	1.714772818211635e+18
14192.0	1.7143658549608448e+18
14193.0	1.7139335799242747e+18
14194.0	1.7135491199533053e+18
14195.0	1.7131428982554621e+18
14196.0	1.712735242105651e+18
14197.0	1.7123277235290107e+18
14198.0	1.711919909673369e+18
14199.0	1.711512188092416e+18
14200.0	1.7110177081720827e+18
14201.0	1.7106976928432125e+18
14202.0	1.7102917697798144e+18
14203.0	1.709880238093107e+18
14204.0	1.709476754436915e+18
14205.0	1.7090715645378557e+18
14206.0	1.7086530937946112e+18
14207.0	1.7082561549303803e+18
14208.0	1.7078500036968443e+18
14209.0	1.7074329187516408e+18
14210.0	1.7070314097737723e+18
14211.0	1.7066316473040893e+18
14212.0	1.7062262342680576e+18
14213.0	1.7058174959878136e+18
14214.0	1.7054151145947133e+18
14215.0	1.705008350992793e+18
14216.0	1.7046045267591163e+18
14217.0	1.70419935028183e+18
14218.0	1.7037933684981757e+18
14219.0	1.7033894352125947e+18
14220.0	1.7029839986884605e+18
14221.0	1.702576589163724e+18
14222.0	1.702149865707929e+18
14223.0	1.7017684810006523e+18
14224.0	1.701366648222515e+18
14225.0	1.7007181735919613e+18
14226.0	1.700558305178419e+18
14227.0	1.7001544222244861e+18
14228.0	1.6991721363603456e+18
14229.0	1.6992822955606008e+18
14230.0	1.698943238091571e+18
14231.0	1.6985148419473403e+18
14232.0	1.6981363697647616e+18
14233.0	1.6977324784222203e+18
14234.0	1.6973299711999997e+18
14235.0	1.696926734168883e+18
14236.0	1.696523753829171e+18
14237.0	1.696120778522624e+18
14238.0	1.695718064940646e+18
14239.0	1.6953129773826043e+18
14240.0	1.6948037083463675e+18
14241.0	1.6945096691810304e+18
14242.0	1.6941085863444477e+18
14243.0	1.6936947897335805e+18
14244.0	1.6933050583613435e+18
14245.0	1.6929014908190715e+18
14246.0	1.6924978276466685e+18
14247.0	1.692099316757299e+18
14248.0	1.6916970226057208e+18
14249.0	1.6912968021180413e+18
14250.0	1.6908955196325885e+18
14251.0	1.6904945643028475e+18
14252.0	1.6900935401865213e+18
14253.0	1.6896925781458936e+18
14254.0	1.6892911329214461e+18
14255.0	1.6888859581218813e+18
14256.0	1.688313553066393e+18
14257.0	1.6880857386057725e+18
14258.0	1.6876869576032253e+18
14259.0	1.687282225722163e+18
14260.0	1.6868816176807933e+18
14261.0	1.6864849170530304e+18
14262.0	1.686088954622771e+18
14263.0	1.6854311115948032e+18
14264.0	1.685254984381235e+18
14265.0	1.6848806746259453e+18
14266.0	1.684490642941542e+18
14267.0	1.6840912042721275e+18
14268.0	1.683691935052595e+18
14269.0	1.683292947690291e+18
14270.0	1.6828941935312896e+18
14271.0	1.6824946357436408e+18
14272.0	1.682095910105907e+18
14273.0	1.6816979864190976e+18
14274.0	1.6809277276553216e+18
14275.0	1.6808680175435779e+18
14276.0	1.6804981118074875e+18
14277.0	1.6801021846093821e+18
14278.0	1.6797068077039613e+18
14279.0	1.6793088907280381e+18
14280.0	1.6789104888905725e+18
14281.0	1.678513454396211e+18
14282.0	1.678115926651699e+18
14283.0	1.677718491181875e+18
14284.0	1.6773211580530685e+18
14285.0	1.6769239239098363e+18
14286.0	1.676525886137958e+18
14287.0	1.676129888475545e+18
14288.0	1.6757329781325824e+18
14289.0	1.6752661957181435e+18
14290.0	1.674938664196505e+18
14291.0	1.6745429517467643e+18
14292.0	1.6741467242364928e+18
14293.0	1.6737502870110205e+18
14294.0	1.6733414682001405e+18
14295.0	1.6729562633207803e+18
14296.0	1.672505456171417e+18
14297.0	1.6721665480196093e+18
14298.0	1.6716800842530813e+18
14299.0	1.6713704288550907e+18
14300.0	1.67097928819671e+18
14301.0	1.670583584135577e+18
14302.0	1.6701889739489275e+18
14303.0	1.6697895822557181e+18
14304.0	1.6693977906413565e+18
14305.0	1.669003598207385e+18
14306.0	1.6685942291038205e+18
14307.0	1.6682092372951037e+18
14308.0	1.6678187845025787e+18
14309.0	1.6674227599966205e+18
14310.0	1.6669739359141885e+18
14311.0	1.666474296999936e+18
14312.0	1.6662199393058813e+18
14313.0	1.665836982573465e+18
14314.0	1.665447719285555e+18
14315.0	1.6650570936877053e+18
14316.0	1.664660742026035e+18
14317.0	1.6642498780725243e+18
14318.0	1.6638779422932987e+18
14319.0	1.663484697772032e+18
14320.0	1.6630914649948157e+18
14321.0	1.6626984251555835e+18
14322.0	1.6623018285465597e+18
14323.0	1.6619115485593597e+18
14324.0	1.6615166732926976e+18
14325.0	1.6611263933054976e+18
14326.0	1.660734714098483e+18
14327.0	1.660341627283046e+18
14328.0	1.6599495051575293e+18
14329.0	1.659557825950515e+18
14330.0	1.6591657524789248e+18
14331.0	1.6587708956671997e+18
14332.0	1.6583819477909496e+18
14333.0	1.6579902216077312e+18
14334.0	1.6575986011209725e+18
14335.0	1.657204078175846e+18
14336.0	1.6567877683380221e+18
14337.0	1.6564242765316093e+18
14338.0	1.656032744964096e+18
14339.0	1.655639792366387e+18
14340.0	1.655251248821043e+18
14341.0	1.6548580781195261e+18
14342.0	1.65446979462103e+18
14343.0	1.6540772127997947e+18
14344.0	1.653687686109593e+18
14345.0	1.6532985989824507e+18
14346.0	1.652907933119283e+18
14347.0	1.6525056087687168e+18
14348.0	1.6521277372104704e+18
14349.0	1.6517380863688704e+18
14350.0	1.6513287524974587e+18
14351.0	1.6509382896386048e+18
14352.0	1.6505678386429944e+18
14353.0	1.6501790266621947e+18
14354.0	1.649787899425587e+18
14355.0	1.649395069301555e+18
14356.0	1.6490078930993144e+18
14357.0	1.6486223174434813e+18
14358.0	1.6482333913776128e+18
14359.0	1.647843302650675e+18
14360.0	1.647454499058483e+18
14361.0	1.6470669772455933e+18
14362.0	1.6466788531306493e+18
14363.0	1.64629045051392e+18
14364.0	1.6458301793370112e+18
14365.0	1.645506130765414e+18
14366.0	1.645115030372352e+18
14367.0	1.644738257721753e+18
14368.0	1.6443504137863163e+18
14369.0	1.6439627627888635e+18
14370.0	1.6435752342650883e+18
14371.0	1.6431878651248637e+18
14372.0	1.6427987763199995e+18
14373.0	1.6424129573945344e+18
14374.0	1.6420234743250941e+18
14375.0	1.6416362830233597e+18
14376.0	1.6412494356545533e+18
14377.0	1.6408625748639741e+18
14378.0	1.6404756889075707e+18
14379.0	1.6400893146562563e+18
14380.0	1.6397028095426557e+18
14381.0	1.639315433691545e+18
14382.0	1.6389299838648315e+18
14383.0	1.6385407994298365e+18
14384.0	1.638156082767462e+18
14385.0	1.63777202880512e+18
14386.0	1.6373850035978237e+18
14387.0	1.6370004966506493e+18
14388.0	1.636614723023667e+18
14389.0	1.6362293503721467e+18
14390.0	1.6358438535692288e+18
14391.0	1.635457534682726e+18
14392.0	1.635071205729894e+18
14393.0	1.6346885342101496e+18
14394.0	1.6343004755263488e+18
14395.0	1.6338756797726715e+18
14396.0	1.6335319313940475e+18
14397.0	1.6331494494568448e+18
14398.0	1.6327632882761725e+18
14399.0	1.6323799372791805e+18
14400.0	1.631967660684083e+18
14401.0	1.631611411601817e+18
14402.0	1.6312279364534272e+18
14403.0	1.63013705502556e+18
14404.0	1.6285938648875003e+18
14405.0	1.62997613971374e+18
14406.0	1.6296928161562621e+18
14407.0	1.628225722436813e+18
14408.0	1.628906672724377e+18
14409.0	1.628540897538867e+18
14410.0	1.6281539427958784e+18
14411.0	1.6277738314792957e+18
14412.0	1.6273930943725565e+18
14413.0	1.6270103574216701e+18
14414.0	1.6266275332292603e+18
14415.0	1.6262449774723072e+18
14416.0	1.625858245866291e+18
14417.0	1.6254620032565243e+18
14418.0	1.6250831904964603e+18
14419.0	1.6247153903009792e+18
14420.0	1.6243330073493504e+18
14421.0	1.6239513340739584e+18
14422.0	1.6235694628274176e+18
14423.0	1.623186858416537e+18
14424.0	1.6183719853293532e+18
14425.0	1.6224239648505856e+18
14426.0	1.6220428636782587e+18
14427.0	1.621661676942131e+18
14428.0	1.621277260591923e+18
14429.0	1.620899102143283e+18
14430.0	1.6205178684309501e+18
14431.0	1.6200255980699643e+18
14432.0	1.6197519549661181e+18
14433.0	1.618572011687116e+18
14434.0	1.6189930107568125e+18
14435.0	1.6185965986971643e+18
14436.0	1.6182333384163323e+18
14437.0	1.6178530844934144e+18
14438.0	1.6174431919407101e+18
14439.0	1.617087509928345e+18
14440.0	1.616712812619366e+18
14441.0	1.6163324278341632e+18
14442.0	1.615952390337331e+18
14443.0	1.615569834580377e+18
14444.0	1.615193731340697e+18
14445.0	1.6148146065244157e+18
14446.0	1.613592844356813e+18
14447.0	1.6140550667239421e+18
14448.0	1.61367705255936e+18
14449.0	1.6132980552499195e+18
14450.0	1.6129186301214715e+18
14451.0	1.6125388358942715e+18
14452.0	1.612158617203507e+18
14453.0	1.6117639516520443e+18
14454.0	1.6114000370597885e+18
14455.0	1.6110214809911293e+18
14456.0	1.6106394436501496e+18
14457.0	1.6102594883616763e+18
14458.0	1.6098690993225725e+18
14459.0	1.6095053558579197e+18
14460.0	1.6091304387674107e+18
14461.0	1.6087442155110397e+18
14462.0	1.608238008316723e+18
14463.0	1.607995592645017e+18
14464.0	1.607620648710963e+18
14465.0	1.607242154718003e+18
14466.0	1.6068664339988483e+18
14467.0	1.6064782058651643e+18
14468.0	1.6061116538945539e+18
14469.0	1.6057281904902141e+18
14470.0	1.6053565030137856e+18
14471.0	1.6049804433948672e+18
14472.0	1.6046044273967104e+18
14473.0	1.604229149596057e+18
14474.0	1.603852875228774e+18
14475.0	1.60347583414272e+18
14476.0	1.6030479362818048e+18
14477.0	1.6027240387051515e+18
14478.0	1.602348240810803e+18
14479.0	1.6019709933649915e+18
14480.0	1.601595393441792e+18
14481.0	1.6012212715913216e+18
14482.0	1.6008454552420355e+18
14483.0	1.600469405689446e+18
14484.0	1.600094782200217e+18
14485.0	1.599716466045747e+18
14486.0	1.599321231746662e+18
14487.0	1.5989687659266043e+18
14488.0	1.5985615275294715e+18
14489.0	1.5982080450101243e+18
14490.0	1.597842300023603e+18
14491.0	1.5974707652198397e+18
14492.0	1.597094259326976e+18
14493.0	1.5967170152366077e+18
14494.0	1.5963446919036925e+18
14495.0	1.595973516132352e+18
14496.0	1.5955886283423741e+18
14497.0	1.5952254200709115e+18
14498.0	1.5948513334525947e+18
14499.0	1.5944777920937981e+18
14500.0	1.5941040779296765e+18
14501.0	1.5937066374266877e+18
14502.0	1.5933022327013376e+18
14503.0	1.592975363879731e+18
14504.0	1.5926099661815803e+18
14505.0	1.592215171445555e+18
14506.0	1.5918119327367165e+18
14507.0	1.591471789781811e+18
14508.0	1.5911182921629693e+18
14509.0	1.5907455225561085e+18
14510.0	1.5903726103429115e+18
14511.0	1.5900002618441723e+18
14512.0	1.5896264721825787e+18
14513.0	1.5892554054631421e+18
14514.0	1.5888741298077693e+18
14515.0	1.588510156495257e+18
14516.0	1.587968111489843e+18
14517.0	1.5877669056937984e+18
14518.0	1.5873949917249533e+18
14519.0	1.5870232623054848e+18
14520.0	1.5866515949617147e+18
14521.0	1.5862792615624704e+18
14522.0	1.5859062939844605e+18
14523.0	1.585469512587673e+18
14524.0	1.5851094232006656e+18
14525.0	1.5847942413877248e+18
14526.0	1.584423609198182e+18
14527.0	1.5840478448582653e+18
14528.0	1.5836481025212413e+18
14529.0	1.5833101305380864e+18
14530.0	1.5829389497335803e+18
14531.0	1.5825695506694141e+18
14532.0	1.5821051489419256e+18
14533.0	1.5818287157870587e+18
14534.0	1.5814585365823488e+18
14535.0	1.5810872517591037e+18
14536.0	1.5807181798506493e+18
14537.0	1.5803471332638715e+18
14538.0	1.5799781032984576e+18
14539.0	1.5796085381398523e+18
14540.0	1.5792388219863037e+18
14541.0	1.5788665775063037e+18
14542.0	1.5784971364990976e+18
14543.0	1.5780932837441533e+18
14544.0	1.5777583719251963e+18
14545.0	1.5773878588538877e+18
14546.0	1.5719721735290844e+18
14547.0	1.5722109451894735e+18
14548.0	1.5762808293556221e+18
14549.0	1.575903645663232e+18
14550.0	1.5755439387967485e+18
14551.0	1.5751758148009981e+18
14552.0	1.5748063603720192e+18
14553.0	1.5744373656387581e+18
14554.0	1.5740704126926843e+18
14555.0	1.5737019682521085e+18
14556.0	1.5733324551028728e+18
14557.0	1.572965797435801e+18
14558.0	1.5725976432410621e+18
14559.0	1.5720378512965624e+18
14560.0	1.571802175032524e+18
14561.0	1.5714938148356093e+18
14562.0	1.571121932743475e+18
14563.0	1.5707592311439357e+18
14564.0	1.570378962121523e+18
14565.0	1.570024585376563e+18
14566.0	1.569657335473766e+18
14567.0	1.5692898943107072e+18
14568.0	1.5688766580588541e+18
14569.0	1.5685552971972603e+18
14570.0	1.5681308420210688e+18
14571.0	1.5678221093699581e+18
14572.0	1.5674365169369088e+18
14573.0	1.5670816452640765e+18
14574.0	1.5666870032007163e+18
14575.0	1.5663527708590075e+18
14576.0	1.565987113114009e+18
14577.0	1.5656230928252925e+18
14578.0	1.5652570408157181e+18
14579.0	1.5648913377722365e+18
14580.0	1.5645254870892541e+18
14581.0	1.564155945418752e+18
14582.0	1.5637925626642432e+18
14583.0	1.5634280256372733e+18
14584.0	1.5630588446769147e+18
14585.0	1.562696879597158e+18
14586.0	1.5623311463546877e+18
14587.0	1.561964921539788e+18
14588.0	1.5616018994954237e+18
14589.0	1.561250504061747e+18
14590.0	1.5609010984058875e+18
14591.0	1.5605495788208125e+18
14592.0	1.5602016378159101e+18
14593.0	1.5598425097633792e+18
14594.0	1.5595038197153792e+18
14595.0	1.5591541523349501e+18
14596.0	1.558747829973811e+18
14597.0	1.558392743552614e+18
14598.0	1.5581035295145984e+18
14599.0	1.5577587912802301e+18
14600.0	1.5574076894478333e+18
14601.0	1.5570608892936187e+18
14602.0	1.556702955778867e+18
14603.0	1.5563610042400765e+18
14604.0	1.5560056678383613e+18
14605.0	1.5556475464187904e+18
14606.0	1.5552974663188477e+18
14607.0	1.5549701814222843e+18
14608.0	1.5546213730353147e+18
14609.0	1.5542673653891067e+18
14610.0	1.5538882791604221e+18
14611.0	1.5535758102233088e+18
14612.0	1.5532298841620477e+18
14613.0	1.552882203203993e+18
14614.0	1.5525341263036413e+18
14615.0	1.5521742785085437e+18
14616.0	1.5518389942353912e+18
14617.0	1.5514913266991107e+18
14618.0	1.551127719129907e+18
14619.0	1.550765690296729e+18
14620.0	1.5502833822466048e+18
14621.0	1.5501013997846523e+18
14622.0	1.549753827878502e+18
14623.0	1.549406812975923e+18
14624.0	1.5490549075148797e+18
14625.0	1.5487121523474432e+18
14626.0	1.548363894253158e+18
14627.0	1.5480151663968253e+18
14628.0	1.547671319032627e+18
14629.0	1.5473243796275195e+18
14630.0	1.5469764386226176e+18
14631.0	1.546630015955763e+18
14632.0	1.5459291544682496e+18
14633.0	1.545893605225267e+18
14634.0	1.5455881978183683e+18
14635.0	1.5448379895054303e+18
14636.0	1.5433552963305467e+18
14637.0	1.5445508709416957e+18
14638.0	1.54419920371712e+18
14639.0	1.5438549906096123e+18
14640.0	1.5435112355201021e+18
14641.0	1.5418131900006385e+18
14642.0	1.54281856466944e+18
14643.0	1.5424721923342333e+18
14644.0	1.5421242110640125e+18
14645.0	1.5417777229660157e+18
14646.0	1.5414148972150781e+18
14647.0	1.541070528079462e+18
14648.0	1.5407403340136443e+18
