# Flux units: erg / (cm m2 s)
# Wavelength units: Angstrom
wave	flux
14000.0	1.933876840208793e+18
14001.0	1.933331238433587e+18
14002.0	1.932978732348211e+18
14003.0	1.932528544278118e+18
14004.0	1.9320697713065981e+18
14005.0	1.9316197375868928e+18
14006.0	1.93115221697495e+18
14007.0	1.9306931487244283e+18
14008.0	1.9300804045307904e+18
14009.0	1.9298005538570235e+18
14010.0	1.9293214401888253e+18
14011.0	1.927899910032589e+18
14012.0	1.928432390347161e+18
14013.0	1.9279834840563707e+18
14014.0	1.927516322476851e+18
14015.0	1.92706583241687e+18
14016.0	1.9266129969020925e+18
14017.0	1.9261603744579581e+18
14018.0	1.9256989506863104e+18
14019.0	1.9252490243407872e+18
14020.0	1.924792397175193e+18
14021.0	1.9243402965024768e+18
14022.0	1.9238679104978941e+18
14023.0	1.9232706835513341e+18
14024.0	1.9229087721586683e+18
14025.0	1.9225254849150973e+18
14026.0	1.9220751726936061e+18
14027.0	1.921622635813273e+18
14028.0	1.9211622589399035e+18
14029.0	1.920712186632601e+18
14030.0	1.9139831623843894e+18
14031.0	1.9197657771671547e+18
14032.0	1.9193566446223355e+18
14033.0	1.9187545002737661e+18
14034.0	1.9184563053920253e+18
14035.0	1.918003226607616e+18
14036.0	1.9175357965926397e+18
14037.0	1.9170785671249917e+18
14038.0	1.916649317020467e+18
14039.0	1.916193631056691e+18
14040.0	1.9157263621029888e+18
14041.0	1.9152924378660861e+18
14042.0	1.9148330542039037e+18
14043.0	1.9143305145090043e+18
14044.0	1.9139314633932792e+18
14045.0	1.9134922912432125e+18
14046.0	1.9130392476909565e+18
14047.0	1.9125602212642816e+18
14048.0	1.912133828319641e+18
14049.0	1.911700175873638e+18
14050.0	1.911249142231859e+18
14051.0	1.9107785463562237e+18
14052.0	1.9103418337460221e+18
14053.0	1.9099002691649533e+18
14054.0	1.9094543458631677e+18
14055.0	1.9089947591966715e+18
14056.0	1.9085505253605368e+18
14057.0	1.9080982921478141e+18
14058.0	1.9076532160954365e+18
14059.0	1.9071976089845755e+18
14060.0	1.9067566349615104e+18
14061.0	1.906296877167411e+18
14062.0	1.9058606645182467e+18
14063.0	1.9053856914669565e+18
14064.0	1.9040399809052675e+18
14065.0	1.9045044866514944e+18
14066.0	1.904065980556902e+18
14067.0	1.903433984507904e+18
14068.0	1.9031744644644861e+18
14069.0	1.9027078213009403e+18
14070.0	1.902280017392435e+18
14071.0	1.9018289283858424e+18
14072.0	1.9013855384436733e+18
14073.0	1.9009370935263232e+18
14074.0	1.9004938763894781e+18
14075.0	1.9000111522643965e+18
14076.0	1.8993939486867456e+18
14077.0	1.8975783166935037e+18
14078.0	1.8985845939765245e+18
14079.0	1.8982409462611968e+18
14080.0	1.8978144039993341e+18
14081.0	1.8973675462066173e+18
14082.0	1.8968815555575803e+18
14083.0	1.8964723189940221e+18
14084.0	1.896032688825958e+18
14085.0	1.8941539023585275e+18
14086.0	1.8950209354596347e+18
14087.0	1.894698552865587e+18
14088.0	1.8942150871875581e+18
14089.0	1.8936367262203904e+18
14090.0	1.8933336105811963e+18
14091.0	1.892920827314176e+18
14092.0	1.892473914156646e+18
14093.0	1.8920324586274813e+18
14094.0	1.891588921045811e+18
14095.0	1.8911455025823741e+18
14096.0	1.8903784382005245e+18
14097.0	1.8901253119541243e+18
14098.0	1.8896568115527677e+18
14099.0	1.8893711375073277e+18
14100.0	1.8888889401868283e+18
14101.0	1.888486201439027e+18
14102.0	1.888037850474086e+18
14103.0	1.8875717777358843e+18
14104.0	1.8871465206087677e+18
14105.0	1.886700233241395e+18
14106.0	1.8862666109943805e+18
14107.0	1.8857976492195837e+18
14108.0	1.8853413743755261e+18
14109.0	1.884930938241024e+18
14110.0	1.8844480195002365e+18
14111.0	1.883958030840627e+18
14112.0	1.8835895293575165e+18
14113.0	1.8830569802563584e+18
14114.0	1.8826935975018493e+18
14115.0	1.882267483058995e+18
14116.0	1.8813498683293683e+18
14117.0	1.8716416836370476e+18
14118.0	1.880957494545612e+18
14119.0	1.8803504999038968e+18
14120.0	1.8799157871378427e+18
14121.0	1.879597741454131e+18
14122.0	1.8789681613242363e+18
14123.0	1.8784546996617213e+18
14124.0	1.8779289084231677e+18
14125.0	1.8770955773935613e+18
14126.0	1.8773585384439805e+18
14127.0	1.877000777734553e+18
14128.0	1.876563006482022e+18
14129.0	1.8761059447865341e+18
14130.0	1.8756407562076155e+18
14131.0	1.8752246929948664e+18
14132.0	1.8747888779657213e+18
14133.0	1.8734462527340508e+18
14134.0	1.873924406745497e+18
14135.0	1.873424034666905e+18
14136.0	1.8722581808939008e+18
14137.0	1.8725984781991933e+18
14138.0	1.8720130120810493e+18
14139.0	1.8717317823201275e+18
14140.0	1.871218486752051e+18
14141.0	1.8708431317762043e+18
14142.0	1.8694373302599688e+18
14143.0	1.8698721789214717e+18
14144.0	1.8695437699514363e+18
14145.0	1.8691044535173115e+18
14146.0	1.8686488044634107e+18
14147.0	1.868217838049689e+18
14148.0	1.8677351810334717e+18
14149.0	1.8672666873430013e+18
14150.0	1.866918276576051e+18
14151.0	1.8663543876354045e+18
14152.0	1.866044369849548e+18
14153.0	1.8656110227488763e+18
14154.0	1.8651297867628541e+18
14155.0	1.8610545942855708e+18
14156.0	1.8641654575529966e+18
14157.0	1.8638589965369341e+18
14158.0	1.8633939488866304e+18
14159.0	1.8629922771697661e+18
14160.0	1.862556938613555e+18
14161.0	1.8620061023469565e+18
14162.0	1.8614986620272637e+18
14163.0	1.861243681898496e+18
14164.0	1.860437441039564e+18
14165.0	1.859600955893351e+18
14166.0	1.8599301097717755e+18
14167.0	1.8594815088263165e+18
14168.0	1.8589896461516797e+18
14169.0	1.8586296070963197e+18
14170.0	1.8581520939745275e+18
14171.0	1.8577370625605624e+18
14172.0	1.8573349999345661e+18
14173.0	1.856548661886976e+18
14174.0	1.8564418396749821e+18
14175.0	1.8560282594902013e+18
14176.0	1.8555539944374272e+18
14177.0	1.8551530877616123e+18
14178.0	1.854723990329753e+18
14179.0	1.854223376659251e+18
14180.0	1.8538660873895933e+18
14181.0	1.8534314484432893e+18
14182.0	1.8529983966216187e+18
14183.0	1.8525661954047992e+18
14184.0	1.8521243909095421e+18
14185.0	1.8516985214140413e+18
14186.0	1.849321857640039e+18
14187.0	1.850794628769382e+18
14188.0	1.8503961480790013e+18
14189.0	1.8499446480306176e+18
14190.0	1.8495239442399227e+18
14191.0	1.84908286787584e+18
14192.0	1.8486592062619643e+18
14193.0	1.8479107612344317e+18
14194.0	1.8477927603634176e+18
14195.0	1.8473824651575293e+18
14196.0	1.8469506733047805e+18
14197.0	1.8465166265942008e+18
14198.0	1.84607365440471e+18
14199.0	1.845631943861862e+18
14200.0	1.8440313253134346e+18
14201.0	1.8447751515734008e+18
14202.0	1.8443547212513277e+18
14203.0	1.8438436016881661e+18
14204.0	1.8434764692258813e+18
14205.0	1.8430634108125181e+18
14206.0	1.8424240478879736e+18
14207.0	1.84220805800919e+18
14208.0	1.8417787324071933e+18
14209.0	1.8411036021358587e+18
14210.0	1.8407801038569462e+18
14211.0	1.8404774210699267e+18
14212.0	1.8400585225076733e+18
14213.0	1.8395866163314688e+18
14214.0	1.8392004299849725e+18
14215.0	1.8387436803457024e+18
14216.0	1.8383409717968896e+18
14217.0	1.8379160820908032e+18
14218.0	1.8374667580473344e+18
14219.0	1.8370558437621755e+18
14220.0	1.836621224948531e+18
14221.0	1.836160676947558e+18
14222.0	1.8354507003985915e+18
14223.0	1.8353282736979965e+18
14224.0	1.8349183979225085e+18
14225.0	1.831219055348943e+18
14226.0	1.834061734818611e+18
14227.0	1.8336336289202176e+18
14228.0	1.8255986879889446e+18
14229.0	1.83191448772935e+18
14230.0	1.8323524535975933e+18
14231.0	1.8316198261293056e+18
14232.0	1.831500142503526e+18
14233.0	1.8310568867790843e+18
14234.0	1.8306465479524347e+18
14235.0	1.830215234250342e+18
14236.0	1.8297893345558525e+18
14237.0	1.8293565142597627e+18
14238.0	1.8289278798790653e+18
14239.0	1.8284666222018552e+18
14240.0	1.825713299862325e+18
14241.0	1.8276301471219707e+18
14242.0	1.8272219591344123e+18
14243.0	1.8265405709615104e+18
14244.0	1.8263806740267003e+18
14245.0	1.8259180406177787e+18
14246.0	1.825465233624268e+18
14247.0	1.8250948128276475e+18
14248.0	1.824653798539264e+18
14249.0	1.8242461558112253e+18
14250.0	1.8238257556881403e+18
14251.0	1.823401587402342e+18
14252.0	1.8229787579383803e+18
14253.0	1.8225551433007104e+18
14254.0	1.822127597761331e+18
14255.0	1.821656181479833e+18
14256.0	1.818431978051996e+18
14257.0	1.8208281000411133e+18
14258.0	1.8204357329682427e+18
14259.0	1.8199589781766144e+18
14260.0	1.8194992086384637e+18
14261.0	1.8191257461325821e+18
14262.0	1.8187443345817597e+18
14263.0	1.8141556452098084e+18
14264.0	1.817317987686809e+18
14265.0	1.8174039474307064e+18
14266.0	1.81705032901591e+18
14267.0	1.8166295279173632e+18
14268.0	1.816200128495616e+18
14269.0	1.8157691385937917e+18
14270.0	1.815362317949337e+18
14271.0	1.814925692580659e+18
14272.0	1.8145141843820541e+18
14273.0	1.8140942221443072e+18
14274.0	1.807720884941624e+18
14275.0	1.8126983057637376e+18
14276.0	1.8127461090852861e+18
14277.0	1.8123547553562616e+18
14278.0	1.8119836836036605e+18
14279.0	1.8115615671713787e+18
14280.0	1.811127345977753e+18
14281.0	1.8107197972021245e+18
14282.0	1.8102983183040507e+18
14283.0	1.8098783527108605e+18
14284.0	1.809457462693068e+18
14285.0	1.809035933463347e+18
14286.0	1.8085993466822653e+18
14287.0	1.8081878133178363e+18
14288.0	1.8077670843613181e+18
14289.0	1.805831359378222e+18
14290.0	1.8069102719401984e+18
14291.0	1.8065050820411384e+18
14292.0	1.8060852204666877e+18
14293.0	1.8056658152325115e+18
14294.0	1.8050027796561917e+18
14295.0	1.8047960004689917e+18
14296.0	1.803177579616666e+18
14297.0	1.803992606703616e+18
14298.0	1.8022999617699835e+18
14299.0	1.803080808634777e+18
14300.0	1.802720024671027e+18
14301.0	1.8022999835803648e+18
14302.0	1.8018909147889661e+18
14303.0	1.8014071622205437e+18
14304.0	1.8010319179743227e+18
14305.0	1.8006300046655485e+18
14306.0	1.7999836187983872e+18
14307.0	1.799722605582745e+18
14308.0	1.7993656652791803e+18
14309.0	1.7989233255907325e+18
14310.0	1.7975944778088438e+18
14311.0	1.7961512010252288e+18
14312.0	1.7973996288999424e+18
14313.0	1.7971192262557693e+18
14314.0	1.7968151341826048e+18
14315.0	1.7964435960233981e+18
14316.0	1.7959580315156477e+18
14317.0	1.7953700169383933e+18
14318.0	1.7952136935505915e+18
14319.0	1.794799291282227e+18
14320.0	1.794381911058022e+18
14321.0	1.793957997785907e+18
14322.0	1.7934697187246077e+18
14323.0	1.7931119580151803e+18
14324.0	1.7926937859063805e+18
14325.0	1.792285329483366e+18
14326.0	1.791887352109465e+18
14327.0	1.7914581254930427e+18
14328.0	1.7910413559595005e+18
14329.0	1.790640551624704e+18
14330.0	1.7902234918453248e+18
14331.0	1.7897715002245115e+18
14332.0	1.7893921220722688e+18
14333.0	1.788978666038886e+18
14334.0	1.7885636077813755e+18
14335.0	1.7881019642281981e+18
14336.0	1.7873488433905661e+18
14337.0	1.7873132572377088e+18
14338.0	1.7868980043644925e+18
14339.0	1.7864524635832315e+18
14340.0	1.7860763720876027e+18
14341.0	1.7856277795307515e+18
14342.0	1.78523774952407e+18
14343.0	1.7847931180679165e+18
14344.0	1.78438924182487e+18
14345.0	1.7840013895008253e+18
14346.0	1.7835797411528704e+18
14347.0	1.782989157983846e+18
14348.0	1.7827566593245181e+18
14349.0	1.7823487246729213e+18
14350.0	1.7816666050134006e+18
14351.0	1.78123063731159e+18
14352.0	1.781093547324211e+18
14353.0	1.7806952679604224e+18
14354.0	1.7802523863678976e+18
14355.0	1.7797826192867323e+18
14356.0	1.77940250797015e+18
14357.0	1.779048629508505e+18
14358.0	1.7786351936077821e+18
14359.0	1.7781966321483776e+18
14360.0	1.7777885968334848e+18
14361.0	1.7773945570721787e+18
14362.0	1.7769859848863744e+18
14363.0	1.7765762450063352e+18
14364.0	1.775192607870157e+18
14365.0	1.7756463761981432e+18
14366.0	1.7751874438430715e+18
14367.0	1.7749284925472763e+18
14368.0	1.7745183651135485e+18
14369.0	1.7741104371728381e+18
14370.0	1.7736983619043325e+18
14371.0	1.7732907342757885e+18
14372.0	1.7728589642334205e+18
14373.0	1.7724650167468032e+18
14374.0	1.7720545739014141e+18
14375.0	1.771643934762598e+18
14376.0	1.7712355219603453e+18
14377.0	1.7708239936290808e+18
14378.0	1.7704075982274555e+18
14379.0	1.770001861391155e+18
14380.0	1.76958880130007e+18
14381.0	1.7691592575942653e+18
14382.0	1.7687691067916285e+18
14383.0	1.7683069448224765e+18
14384.0	1.767913084577382e+18
14385.0	1.7675441267539965e+18
14386.0	1.7671026695471104e+18
14387.0	1.7667224273682427e+18
14388.0	1.7663087783968763e+18
14389.0	1.7659072341868541e+18
14390.0	1.7654950817431547e+18
14391.0	1.765075356064153e+18
14392.0	1.7646545935532032e+18
14393.0	1.7642734974140413e+18
14394.0	1.7637987860873213e+18
14395.0	1.7631653757190141e+18
14396.0	1.7630351006367741e+18
14397.0	1.7626413813202941e+18
14398.0	1.7622155034361853e+18
14399.0	1.7618163650789376e+18
14400.0	1.7612293772673021e+18
14401.0	1.7609981503209464e+18
14402.0	1.760596663153459e+18
14403.0	1.7494682166624067e+18
14404.0	1.7318098612781002e+18
14405.0	1.75724401000447e+18
14406.0	1.7589685752692733e+18
14407.0	1.7412319088738396e+18
14408.0	1.7579249368039424e+18
14409.0	1.7577151628836861e+18
14410.0	1.757269380510515e+18
14411.0	1.7569166496104448e+18
14412.0	1.7565203600244733e+18
14413.0	1.75611988452311e+18
14414.0	1.7557116646588413e+18
14415.0	1.755308555134566e+18
14416.0	1.754847419931033e+18
14417.0	1.754264488850227e+18
14418.0	1.7538815237292032e+18
14419.0	1.7536842035363835e+18
14420.0	1.7532704069255165e+18
14421.0	1.7528742834339832e+18
14422.0	1.7524604163588093e+18
14423.0	1.752041237617049e+18
14424.0	1.694325233890066e+18
14425.0	1.7512438735831037e+18
14426.0	1.7508488926199805e+18
14427.0	1.7504455431815165e+18
14428.0	1.7499862803152893e+18
14429.0	1.7496334336524285e+18
14430.0	1.7492320488259581e+18
14431.0	1.7473299437060104e+18
14432.0	1.7483648160759805e+18
14433.0	1.7348807142408102e+18
14434.0	1.7475893345648637e+18
14435.0	1.7469776272031734e+18
14436.0	1.7468080095494136e+18
14437.0	1.74640445039575e+18
14438.0	1.745498713935053e+18
14439.0	1.7455040306348027e+18
14440.0	1.7451938903752696e+18
14441.0	1.7447798454616061e+18
14442.0	1.7443689211101181e+18
14443.0	1.7438986054139904e+18
14444.0	1.7435719781842936e+18
14445.0	1.7431774434951163e+18
14446.0	1.728865498457709e+18
14447.0	1.7423540160561147e+18
14448.0	1.741971230451302e+18
14449.0	1.7415678323589117e+18
14450.0	1.7411565623967741e+18
14451.0	1.7407571656703997e+18
14452.0	1.7403540175585277e+18
14453.0	1.7396907605229565e+18
14454.0	1.7395493722128381e+18
14455.0	1.7391399242563581e+18
14456.0	1.7386855620149243e+18
14457.0	1.738255008320716e+18
14458.0	1.7378364218146813e+18
14459.0	1.7374991813181435e+18
14460.0	1.7371232290734075e+18
14461.0	1.7365600531644408e+18
14462.0	1.7346042173325315e+18
14463.0	1.7358764285886461e+18
14464.0	1.7355270078332925e+18
14465.0	1.735103250589286e+18
14466.0	1.7347299843768315e+18
14467.0	1.7341354803724288e+18
14468.0	1.7339178496819197e+18
14469.0	1.7334060724518907e+18
14470.0	1.7330847266897915e+18
14471.0	1.732706625283686e+18
14472.0	1.7323180196626427e+18
14473.0	1.7319355880570875e+18
14474.0	1.7315416590254075e+18
14475.0	1.7311282382241787e+18
14476.0	1.7298353742151685e+18
14477.0	1.7303357496492032e+18
14478.0	1.7299360861650941e+18
14479.0	1.7295184643489787e+18
14480.0	1.7291154437439485e+18
14481.0	1.728748532740915e+18
14482.0	1.7283438428028928e+18
14483.0	1.7279302793953275e+18
14484.0	1.727541445604147e+18
14485.0	1.727071931858944e+18
14486.0	1.7262381243564032e+18
14487.0	1.7263404284641275e+18
14488.0	1.7255466245554179e+18
14489.0	1.7253918681595896e+18
14490.0	1.7251175556448253e+18
14491.0	1.7247587681697787e+18
14492.0	1.7243475602833403e+18
14493.0	1.7239087857532928e+18
14494.0	1.7235171535224832e+18
14495.0	1.7231699104497661e+18
14496.0	1.7225388841238528e+18
14497.0	1.7223714726739965e+18
14498.0	1.7219726195294205e+18
14499.0	1.7215820006424576e+18
14500.0	1.7211842044624893e+18
14501.0	1.7203765526396928e+18
14502.0	1.7194593825062912e+18
14503.0	1.719874361910886e+18
14504.0	1.719586006866329e+18
14505.0	1.718826735501311e+18
14506.0	1.7179157997813757e+18
14507.0	1.7179881968238595e+18
14508.0	1.7180112050978808e+18
14509.0	1.71761386693591e+18
14510.0	1.7172148342751227e+18
14511.0	1.7168237254934528e+18
14512.0	1.7163968577535997e+18
14513.0	1.7160306950143997e+18
14514.0	1.7155061771665403e+18
14515.0	1.715230277527142e+18
14516.0	1.7111933689790497e+18
14517.0	1.7144485582471165e+18
14518.0	1.7140528743186424e+18
14519.0	1.7136541990125563e+18
14520.0	1.713250956948275e+18
14521.0	1.7128460589727741e+18
14522.0	1.71243130102743e+18
14523.0	1.7109750621667318e+18
14524.0	1.7107071635816438e+18
14525.0	1.7112654824865787e+18
14526.0	1.7108727916134395e+18
14527.0	1.7104300492718077e+18
14528.0	1.7096958967545853e+18
14529.0	1.7096796647981053e+18
14530.0	1.7092672774733824e+18
14531.0	1.7089058744303616e+18
14532.0	1.7070641505107965e+18
14533.0	1.708119229359718e+18
14534.0	1.7077281608433661e+18
14535.0	1.70731227882455e+18
14536.0	1.7069325500284925e+18
14537.0	1.706519362430566e+18
14538.0	1.7061497586843643e+18
14539.0	1.7057572657823744e+18
14540.0	1.7053652325761021e+18
14541.0	1.7049305718194176e+18
14542.0	1.7045717189132285e+18
14543.0	1.703590790325862e+18
14544.0	1.7037881256181757e+18
14545.0	1.703374126002995e+18
14546.0	1.652208214160158e+18
14547.0	1.6566640665689836e+18
14548.0	1.7021954879913981e+18
14549.0	1.7016197627248637e+18
14550.0	1.7014194813534205e+18
14551.0	1.7010443595808765e+18
14552.0	1.70064056722391e+18
14553.0	1.700235915873484e+18
14554.0	1.6998657081475072e+18
14555.0	1.699472260621926e+18
14556.0	1.6990577123917821e+18
14557.0	1.6986904826216448e+18
14558.0	1.6982958170701821e+18
14559.0	1.694649837787536e+18
14560.0	1.6970089324609526e+18
14561.0	1.6971111644266493e+18
14562.0	1.6966532219273208e+18
14563.0	1.6963376324280315e+18
14564.0	1.6957761594064896e+18
14565.0	1.6955606191570936e+18
14566.0	1.6951694231339005e+18
14567.0	1.6947699794313216e+18
14568.0	1.6939023574499328e+18
14569.0	1.693983153166745e+18
14570.0	1.6925498504380416e+18
14571.0	1.6932063512887293e+18
14572.0	1.6925568566034432e+18
14573.0	1.6923034199785472e+18
14574.0	1.6915739097169915e+18
14575.0	1.691598543703245e+18
14576.0	1.6912077234896893e+18
14577.0	1.6908486944227325e+18
14578.0	1.6904678230982653e+18
14579.0	1.6900833849376763e+18
14580.0	1.6896916704985088e+18
14581.0	1.6892603148533757e+18
14582.0	1.6888951637803005e+18
14583.0	1.6885253687738363e+18
14584.0	1.688070434429337e+18
14585.0	1.6877460721238013e+18
14586.0	1.6873507002515453e+18
14587.0	1.6869480118353915e+18
14588.0	1.686570977460224e+18
14589.0	1.686203081634611e+18
14590.0	1.6858320837017597e+18
14591.0	1.6854284876382205e+18
14592.0	1.685068790838067e+18
14593.0	1.6845017427476477e+18
14594.0	1.684333985687142e+18
14595.0	1.6839503847096323e+18
14596.0	1.6827849369452526e+18
14597.0	1.682328611769547e+18
14598.0	1.682778091841126e+18
14599.0	1.6824723606339584e+18
14600.0	1.682070093325926e+18
14601.0	1.681716090712883e+18
14602.0	1.6812257463762944e+18
14603.0	1.680957139792691e+18
14604.0	1.680447909344051e+18
14605.0	1.679980261225267e+18
14606.0	1.6796266746871805e+18
14607.0	1.6794851957800952e+18
14608.0	1.6791070255874043e+18
14609.0	1.6786451538640893e+18
14610.0	1.6778974587781123e+18
14611.0	1.6779593818046467e+18
14612.0	1.677623951569715e+18
14613.0	1.6772592283156477e+18
14614.0	1.676880796398387e+18
14615.0	1.6764253268606976e+18
14616.0	1.676144685980057e+18
14617.0	1.6757711949529085e+18
14618.0	1.6751987747979267e+18
14619.0	1.6746088778170345e+18
14620.0	1.672430613010842e+18
14621.0	1.6742795695882235e+18
14622.0	1.6739023405973504e+18
14623.0	1.6735347417284603e+18
14624.0	1.6730621946626048e+18
14625.0	1.672785682654822e+18
14626.0	1.6723930387578875e+18
14627.0	1.6719952241229821e+18
14628.0	1.6716782874132472e+18
14629.0	1.6713065210839035e+18
14630.0	1.670916989360537e+18
14631.0	1.670554265950617e+18
14632.0	1.664196461094506e+18
14633.0	1.6691274006396902e+18
14634.0	1.669407565047398e+18
14635.0	1.6660299390123817e+18
14636.0	1.6575783963197412e+18
14637.0	1.6683331823337472e+18
14638.0	1.667905257629286e+18
14639.0	1.6675389455728635e+18
14640.0	1.6672113184210944e+18
14641.0	1.6456120503631703e+18
14642.0	1.6664667657076733e+18
14643.0	1.666095068164915e+18
14644.0	1.665693055870566e+18
14645.0	1.6653087334727677e+18
14646.0	1.6647417055150077e+18
14647.0	1.664379396502323e+18
