# Flux units: erg / (cm m2 s)
# Wavelength units: Angstrom
wave	flux
14000.0	1.4067656550252544e+18
14001.0	1.4065023391367165e+18
14002.0	1.4063324152987645e+18
14003.0	1.406116541182771e+18
14004.0	1.4058997896183803e+18
14005.0	1.4056830690918397e+18
14006.0	1.4054648377769981e+18
14007.0	1.4052490299310075e+18
14008.0	1.4050173600661504e+18
14009.0	1.404816405928345e+18
14010.0	1.4046001006379003e+18
14011.0	1.4042565644910587e+18
14012.0	1.4041672191049728e+18
14013.0	1.4039510203498493e+18
14014.0	1.4037347242868736e+18
14015.0	1.4035181052624893e+18
14016.0	1.4033022948999165e+18
14017.0	1.4030861531873277e+18
14018.0	1.4028700433514493e+18
14019.0	1.4026539872026621e+18
14020.0	1.4024378547175421e+18
14021.0	1.4022217868247037e+18
14022.0	1.4020058808319997e+18
14023.0	1.4017899438014464e+18
14024.0	1.4015728533372925e+18
14025.0	1.4013585621516285e+18
14026.0	1.4011425689174013e+18
14027.0	1.4009271830183936e+18
14028.0	1.4007115421057021e+18
14029.0	1.4004959120982013e+18
14030.0	1.400225537196032e+18
14031.0	1.4000636748103675e+18
14032.0	1.3998493668474877e+18
14033.0	1.399627726402355e+18
14034.0	1.3994186084712445e+18
14035.0	1.3992033710505981e+18
14036.0	1.3989881059475453e+18
14037.0	1.398772885304115e+18
14038.0	1.3985576948596736e+18
14039.0	1.3983425572634621e+18
14040.0	1.3981274750320637e+18
14041.0	1.3979124355825661e+18
14042.0	1.3976954038386685e+18
14043.0	1.3974747456995325e+18
14044.0	1.397264809879142e+18
14045.0	1.3970527223807997e+18
14046.0	1.396837918651187e+18
14047.0	1.3966229714763773e+18
14048.0	1.3964083665567741e+18
14049.0	1.3961937800921085e+18
14050.0	1.3959791617507325e+18
14051.0	1.3957631215403003e+18
14052.0	1.3955500307644413e+18
14053.0	1.3953355726454781e+18
14054.0	1.3951211388534781e+18
14055.0	1.3949067486822397e+18
14056.0	1.3946923962597373e+18
14057.0	1.394478102557491e+18
14058.0	1.3942638482817021e+18
14059.0	1.3940496409821181e+18
14060.0	1.3938354798198781e+18
14061.0	1.3936199857078272e+18
14062.0	1.3934072925519867e+18
14063.0	1.3931907767074813e+18
14064.0	1.392965657506611e+18
14065.0	1.3927636917026813e+18
14066.0	1.3925514590814203e+18
14067.0	1.3923376368189437e+18
14068.0	1.3921238414000125e+18
14069.0	1.391909875692339e+18
14070.0	1.3916963545808893e+18
14071.0	1.3914821330206717e+18
14072.0	1.3912690992873467e+18
14073.0	1.3910555311996928e+18
14074.0	1.3908420260265981e+18
14075.0	1.3906284973654013e+18
14076.0	1.3904151062773757e+18
14077.0	1.3901897639395325e+18
14078.0	1.3899875791929341e+18
14079.0	1.3897741042188285e+18
14080.0	1.3895618489483264e+18
14081.0	1.3893486466039808e+18
14082.0	1.3891352924258301e+18
14083.0	1.3889221085364221e+18
14084.0	1.3887092509638653e+18
14085.0	1.3884537515802621e+18
14086.0	1.3882823001767933e+18
14087.0	1.3880703611568128e+18
14088.0	1.3878573500727293e+18
14089.0	1.3876446451728384e+18
14090.0	1.3874316835815421e+18
14091.0	1.3872191078662141e+18
14092.0	1.3870064038051837e+18
14093.0	1.386793743364915e+18
14094.0	1.3865811282231293e+18
14095.0	1.3863685525078013e+18
14096.0	1.3861539039674365e+18
14097.0	1.3859434421813245e+18
14098.0	1.3857301425291261e+18
14099.0	1.3855187194085373e+18
14100.0	1.3853039416836093e+18
14101.0	1.3850940863938557e+18
14102.0	1.3848817958912e+18
14103.0	1.384666243897753e+18
14104.0	1.3844574564777981e+18
14105.0	1.3842453144535037e+18
14106.0	1.3840332428935165e+18
14107.0	1.383821173011251e+18
14108.0	1.3836092448964605e+18
14109.0	1.3833964879871997e+18
14110.0	1.3831851252645885e+18
14111.0	1.3829726518902781e+18
14112.0	1.3827613797646336e+18
14113.0	1.3825499407056893e+18
14114.0	1.3823382592159744e+18
14115.0	1.3821262631534587e+18
14116.0	1.3819138602434557e+18
14117.0	1.3816051326255104e+18
14118.0	1.381491711095603e+18
14119.0	1.381279087565209e+18
14120.0	1.3810677936291837e+18
14121.0	1.3808572362129405e+18
14122.0	1.3806437721440253e+18
14123.0	1.3804340930150397e+18
14124.0	1.3802224803119101e+18
14125.0	1.379932602735001e+18
14126.0	1.3798010223853565e+18
14127.0	1.3795899658469373e+18
14128.0	1.3793786383564795e+18
14129.0	1.3791659888214013e+18
14130.0	1.3789545950609408e+18
14131.0	1.3787458688778237e+18
14132.0	1.3785348156948477e+18
14133.0	1.3782307001335803e+18
14134.0	1.378113102754611e+18
14135.0	1.3779003668168701e+18
14136.0	1.3776908210667517e+18
14137.0	1.3774808860852221e+18
14138.0	1.3772694344433661e+18
14139.0	1.3770596957552637e+18
14140.0	1.3768488397045757e+18
14141.0	1.3766382839660544e+18
14142.0	1.3764218192920573e+18
14143.0	1.3762175189385213e+18
14144.0	1.3760074245734397e+18
14145.0	1.3757970726780925e+18
14146.0	1.3755864900960256e+18
14147.0	1.3753763546267645e+18
14148.0	1.3751662015414272e+18
14149.0	1.37495616421888e+18
14150.0	1.3747460362993661e+18
14151.0	1.3745355107598336e+18
14152.0	1.3743259222278141e+18
14153.0	1.374115912587673e+18
14154.0	1.3739022127988736e+18
14155.0	1.3736884442234877e+18
14156.0	1.3734850515173373e+18
14157.0	1.3732764008316925e+18
14158.0	1.3730659700834301e+18
14159.0	1.3728569360383997e+18
14160.0	1.372645932348211e+18
14161.0	1.3724276607680507e+18
14162.0	1.3722100963475453e+18
14163.0	1.3720180542668795e+18
14164.0	1.3718062855356413e+18
14165.0	1.3715943481933821e+18
14166.0	1.3713899077500925e+18
14167.0	1.3711806388240381e+18
14168.0	1.370971050292019e+18
14169.0	1.3707620095361021e+18
14170.0	1.3705521617960957e+18
14171.0	1.3703429415239675e+18
14172.0	1.370134383951872e+18
14173.0	1.3699207906983933e+18
14174.0	1.3697154082144253e+18
14175.0	1.3695071576653821e+18
14176.0	1.3692981739519997e+18
14177.0	1.3690892321816576e+18
14178.0	1.3688802669232123e+18
14179.0	1.3686705273962493e+18
14180.0	1.368462655173427e+18
14181.0	1.3682538828529664e+18
14182.0	1.3680449972862973e+18
14183.0	1.3678364690743293e+18
14184.0	1.3676269543620608e+18
14185.0	1.3674191895134203e+18
14186.0	1.3671916728483837e+18
14187.0	1.3669980184772605e+18
14188.0	1.366793456399155e+18
14189.0	1.3665850640826365e+18
14190.0	1.3663766466002944e+18
14191.0	1.366168274416435e+18
14192.0	1.3659587697704955e+18
14193.0	1.3657492768686077e+18
14194.0	1.3655434145562621e+18
14195.0	1.3653355314282493e+18
14196.0	1.365127348826931e+18
14197.0	1.3649192677277693e+18
14198.0	1.3647102647205885e+18
14199.0	1.3645028874256384e+18
14200.0	1.3642844321349627e+18
14201.0	1.3640867822698493e+18
14202.0	1.3638795089936381e+18
14203.0	1.3636706888581115e+18
14204.0	1.3634633937715195e+18
14205.0	1.3632556482166781e+18
14206.0	1.3630277540642813e+18
14207.0	1.3628407006887933e+18
14208.0	1.362633147233075e+18
14209.0	1.362403525866291e+18
14210.0	1.3622017697775613e+18
14211.0	1.3620104264679421e+18
14212.0	1.3618029870972925e+18
14213.0	1.3615957255651325e+18
14214.0	1.3613881947586557e+18
14215.0	1.361178508079923e+18
14216.0	1.3609738310778877e+18
14217.0	1.36076660310016e+18
14218.0	1.3605593927385085e+18
14219.0	1.360352238580531e+18
14220.0	1.3601451590811645e+18
14221.0	1.359938011634073e+18
14222.0	1.3597310135042045e+18
14223.0	1.3595240455733248e+18
14224.0	1.3593171296518144e+18
14225.0	1.3590731620876285e+18
14226.0	1.3589031895957501e+18
14227.0	1.3586965597257725e+18
14228.0	1.3583753406316544e+18
14229.0	1.358259317794406e+18
14230.0	1.358076400841523e+18
14231.0	1.3578697793601533e+18
14232.0	1.3576631847223293e+18
14233.0	1.3574566295109627e+18
14234.0	1.3572501137260544e+18
14235.0	1.3570431608946685e+18
14236.0	1.3568371995967488e+18
14237.0	1.3566305537884157e+18
14238.0	1.3564243525763072e+18
14239.0	1.3562170432290813e+18
14240.0	1.3556668805677053e+18
14241.0	1.355805243945779e+18
14242.0	1.3555993346572285e+18
14243.0	1.3553665902116861e+18
14244.0	1.3551872266731517e+18
14245.0	1.354979972690739e+18
14246.0	1.3547731666599933e+18
14247.0	1.354569232888627e+18
14248.0	1.3543587593584637e+18
14249.0	1.3541506396717053e+18
14250.0	1.3539447379329021e+18
14251.0	1.3537393260888064e+18
14252.0	1.353533520818995e+18
14253.0	1.3533276299853821e+18
14254.0	1.3531216208723965e+18
14255.0	1.3529095333740544e+18
14256.0	1.352676532237107e+18
14257.0	1.3525035037753344e+18
14258.0	1.3522996455014395e+18
14259.0	1.3520941388660733e+18
14260.0	1.3518860552503293e+18
14261.0	1.3516838763757565e+18
14262.0	1.3514996759658493e+18
14263.0	1.3512438150332416e+18
14264.0	1.3510779454095357e+18
14265.0	1.3508838003048445e+18
14266.0	1.350678533583667e+18
14267.0	1.3504671037521917e+18
14268.0	1.3502619477606397e+18
14269.0	1.3500563312345085e+18
14270.0	1.3498517423128573e+18
14271.0	1.3496466450415613e+18
14272.0	1.349441683665715e+18
14273.0	1.3492364429492221e+18
14274.0	1.3489550915534848e+18
14275.0	1.348819815183155e+18
14276.0	1.3486216980725755e+18
14277.0	1.3484155589361661e+18
14278.0	1.3482125101629437e+18
14279.0	1.3480076066684925e+18
14280.0	1.3478019272278013e+18
14281.0	1.3475985269719037e+18
14282.0	1.3473939942539261e+18
14283.0	1.3471894430810112e+18
14284.0	1.346984932173414e+18
14285.0	1.346780448109363e+18
14286.0	1.3465752996675581e+18
14287.0	1.3463652942217216e+18
14288.0	1.346160748081971e+18
14289.0	1.3457359498117115e+18
14290.0	1.3457520534224893e+18
14291.0	1.3455478587654144e+18
14292.0	1.345343820136448e+18
14293.0	1.3451392077266941e+18
14294.0	1.3449114352091136e+18
14295.0	1.3447312655253501e+18
14296.0	1.3443501995851776e+18
14297.0	1.3443227210219517e+18
14298.0	1.344085989471027e+18
14299.0	1.343914824119091e+18
14300.0	1.3437115782135808e+18
14301.0	1.3435077098733565e+18
14302.0	1.3433033080176637e+18
14303.0	1.343094506337075e+18
14304.0	1.3428935933034493e+18
14305.0	1.3426923287871485e+18
14306.0	1.3424876543016955e+18
14307.0	1.3422844763439101e+18
14308.0	1.3420817085890557e+18
14309.0	1.3418768755589117e+18
14310.0	1.3416628108656637e+18
14311.0	1.341451899450163e+18
14312.0	1.3412543737364477e+18
14313.0	1.341014420960051e+18
14314.0	1.340854336959283e+18
14315.0	1.3406513250959357e+18
14316.0	1.3404390345932797e+18
14317.0	1.3402437738037245e+18
14318.0	1.3400416771375101e+18
14319.0	1.339838598165299e+18
14320.0	1.3396353866530813e+18
14321.0	1.3394323806617597e+18
14322.0	1.3392226721726461e+18
14323.0	1.3390230149136381e+18
14324.0	1.3388233534603261e+18
14325.0	1.3386204246441981e+18
14326.0	1.3384175318990845e+18
14327.0	1.338214672708403e+18
14328.0	1.3380105938141181e+18
14329.0	1.3378090843504637e+18
14330.0	1.3376063451168765e+18
14331.0	1.3374035882672125e+18
14332.0	1.3372009673129981e+18
14333.0	1.3369983513919485e+18
14334.0	1.336795769025331e+18
14335.0	1.336584904586035e+18
14336.0	1.336380864279347e+18
14337.0	1.3361818219053053e+18
14338.0	1.3359790986100733e+18
14339.0	1.3357766563332093e+18
14340.0	1.3355746318090237e+18
14341.0	1.335372093063168e+18
14342.0	1.335170002268979e+18
14343.0	1.3349675960631293e+18
14344.0	1.3347653702123517e+18
14345.0	1.3345632970342397e+18
14346.0	1.3343606643359741e+18
14347.0	1.3341561349734397e+18
14348.0	1.3339569055334397e+18
14349.0	1.3337549246300157e+18
14350.0	1.3335501855522816e+18
14351.0	1.3333480796585981e+18
14352.0	1.3331480356847613e+18
14353.0	1.3329465362874365e+18
14354.0	1.3327447399333885e+18
14355.0	1.332542514082611e+18
14356.0	1.3323409945526272e+18
14357.0	1.3321400177655808e+18
14358.0	1.3319383229136893e+18
14359.0	1.3317365601140733e+18
14360.0	1.3315347469828093e+18
14361.0	1.3313333650259965e+18
14362.0	1.3311262444224512e+18
14363.0	1.330849315500851e+18
14364.0	1.3306396850257915e+18
14365.0	1.330444686799667e+18
14366.0	1.3302431815303163e+18
14367.0	1.3300435779583995e+18
14368.0	1.3298421590917117e+18
14369.0	1.3296409247743995e+18
14370.0	1.3294396443197437e+18
14371.0	1.329238413357875e+18
14372.0	1.3290371865903101e+18
14373.0	1.3288359958937597e+18
14374.0	1.3286346122592253e+18
14375.0	1.328432767251251e+18
14376.0	1.3282327635427325e+18
14377.0	1.328031619822387e+18
14378.0	1.3278302538039293e+18
14379.0	1.3276298063380477e+18
14380.0	1.327428843811635e+18
14381.0	1.3272275180584957e+18
14382.0	1.32702688772096e+18
14383.0	1.326825933583155e+18
14384.0	1.3266255700033536e+18
14385.0	1.3264248968839165e+18
14386.0	1.3262242069872637e+18
14387.0	1.326023492763648e+18
14388.0	1.3258225763745792e+18
14389.0	1.3256222572543997e+18
14390.0	1.325421362675712e+18
14391.0	1.3252212700479483e+18
14392.0	1.325020612866867e+18
14393.0	1.3248203885379581e+18
14394.0	1.3246138526203901e+18
14395.0	1.3244120873041917e+18
14396.0	1.3242130558353405e+18
14397.0	1.3240127409094653e+18
14398.0	1.3238124201115648e+18
14399.0	1.3236121966215165e+18
14400.0	1.323408045585203e+18
14401.0	1.3232106020798461e+18
14402.0	1.323011356701491e+18
14403.0	1.322718984352563e+18
14404.0	1.321922261208268e+18
14405.0	1.3220284047818742e+18
14406.0	1.3222110239391741e+18
14407.0	1.3218795648712701e+18
14408.0	1.3218105056559101e+18
14409.0	1.321607384740659e+18
14410.0	1.321411053564723e+18
14411.0	1.3212117712764923e+18
14412.0	1.321011411890995e+18
14413.0	1.3208125062512637e+18
14414.0	1.3206123557421053e+18
14415.0	1.3204128704495613e+18
14416.0	1.3202134715596797e+18
14417.0	1.3200136884715517e+18
14418.0	1.3198127838265341e+18
14419.0	1.3196143445934077e+18
14420.0	1.319414103487283e+18
14421.0	1.319215561913139e+18
14422.0	1.319016068231987e+18
14423.0	1.3188152541839357e+18
14424.0	1.3180794105233403e+18
14425.0	1.3184169085501437e+18
14426.0	1.3182187989893117e+18
14427.0	1.3180196198809597e+18
14428.0	1.3178169284624381e+18
14429.0	1.3176202936188925e+18
14430.0	1.3174220406128637e+18
14431.0	1.3172061480419325e+18
14432.0	1.3170171938078717e+18
14433.0	1.316717731407462e+18
14434.0	1.3166168114200573e+18
14435.0	1.3164168060338173e+18
14436.0	1.3162215083343867e+18
14437.0	1.3160225724956672e+18
14438.0	1.315820084081459e+18
14439.0	1.315624059089715e+18
14440.0	1.3154257523965952e+18
14441.0	1.3152241313644541e+18
14442.0	1.3150237342302205e+18
14443.0	1.3148169818865661e+18
14444.0	1.3146297078906875e+18
14445.0	1.3144319783337981e+18
14446.0	1.3139740937158653e+18
14447.0	1.3140328299102205e+18
14448.0	1.3138362722418685e+18
14449.0	1.3136377617055741e+18
14450.0	1.3134391974821885e+18
14451.0	1.3132407121117181e+18
14452.0	1.3130422141583357e+18
14453.0	1.3128424226815997e+18
14454.0	1.3126454329999357e+18
14455.0	1.3124459376410621e+18
14456.0	1.3122484882636797e+18
14457.0	1.3120500456751101e+18
14458.0	1.3118520443273213e+18
14459.0	1.3116535480516605e+18
14460.0	1.311455382287155e+18
14461.0	1.3112536681414653e+18
14462.0	1.3110475080335357e+18
14463.0	1.310860307018547e+18
14464.0	1.3106631445315581e+18
14465.0	1.310459201532723e+18
14466.0	1.3102672953475072e+18
14467.0	1.3100666784317437e+18
14468.0	1.309871186116608e+18
14469.0	1.3096683713855485e+18
14470.0	1.3094694615515133e+18
14471.0	1.3092753281908733e+18
14472.0	1.3090792394457085e+18
14473.0	1.3088759977345021e+18
14474.0	1.3086782589501437e+18
14475.0	1.3084803440050173e+18
14476.0	1.3082763531911165e+18
14477.0	1.3080849931042813e+18
14478.0	1.3078874288029693e+18
14479.0	1.3076895625117693e+18
14480.0	1.3074900168212477e+18
14481.0	1.30729465872384e+18
14482.0	1.3070964073955325e+18
14483.0	1.3068976603004925e+18
14484.0	1.306700097676902e+18
14485.0	1.3064978844090365e+18
14486.0	1.3062491915419645e+18
14487.0	1.3061098450190333e+18
14488.0	1.3059125416034301e+18
14489.0	1.3057137810866173e+18
14490.0	1.3055173861572603e+18
14491.0	1.3053203654377472e+18
14492.0	1.3051234395095037e+18
14493.0	1.304926180553523e+18
14494.0	1.304725348889395e+18
14495.0	1.304531823702835e+18
14496.0	1.3043089979473917e+18
14497.0	1.3041373938712573e+18
14498.0	1.3039406214545405e+18
14499.0	1.3037435915075581e+18
14500.0	1.3035465112289275e+18
14501.0	1.3033471123390461e+18
14502.0	1.3031029593866237e+18
14503.0	1.3029531170373627e+18
14504.0	1.302757616333619e+18
14505.0	1.3025594958675965e+18
14506.0	1.3023599988310016e+18
14507.0	1.3021203203620861e+18
14508.0	1.3019714468970493e+18
14509.0	1.3017747415891965e+18
14510.0	1.3015780169875453e+18
14511.0	1.3013813041299453e+18
14512.0	1.3011817894772733e+18
14513.0	1.300987930424115e+18
14514.0	1.300785249071923e+18
14515.0	1.3005943360978941e+18
14516.0	1.299809345260749e+18
14517.0	1.300200678857113e+18
14518.0	1.3000050389024765e+18
14519.0	1.2998086364233725e+18
14520.0	1.2996122045841405e+18
14521.0	1.2994155957452797e+18
14522.0	1.299216063476531e+18
14523.0	1.2990103529979901e+18
14524.0	1.2988144353804285e+18
14525.0	1.2986229578530813e+18
14526.0	1.2984277054521341e+18
14527.0	1.2982258528944128e+18
14528.0	1.2980058700382205e+18
14529.0	1.2978366692982781e+18
14530.0	1.297639730787123e+18
14531.0	1.2974460948709373e+18
14532.0	1.2972416930152445e+18
14533.0	1.2970538687266813e+18
14534.0	1.2968579561422848e+18
14535.0	1.296661686203187e+18
14536.0	1.296465627657011e+18
14537.0	1.296267392267059e+18
14538.0	1.296073607033651e+18
14539.0	1.2958775837196283e+18
14540.0	1.2956815713107965e+18
14541.0	1.2954846646763517e+18
14542.0	1.2952895934693373e+18
14543.0	1.2950902155509757e+18
14544.0	1.2948976273719293e+18
14545.0	1.2947014388023293e+18
14546.0	1.293610247834828e+18
14547.0	1.2934772112228342e+18
14548.0	1.2941119847399421e+18
14549.0	1.293895675255193e+18
14550.0	1.293722513414553e+18
14551.0	1.2935269044977664e+18
14552.0	1.2933307234779133e+18
14553.0	1.2931329125515264e+18
14554.0	1.2929397271035901e+18
14555.0	1.2927440082960381e+18
14556.0	1.292548202246963e+18
14557.0	1.2923526445006845e+18
14558.0	1.2921566790680573e+18
14559.0	1.2915289570148344e+18
14560.0	1.291765201187635e+18
14561.0	1.2915686502301693e+18
14562.0	1.2913703552811008e+18
14563.0	1.291179005260595e+18
14564.0	1.2909824182321152e+18
14565.0	1.2907881623977981e+18
14566.0	1.2905926910541821e+18
14567.0	1.290397174412083e+18
14568.0	1.290201296220979e+18
14569.0	1.2900062032035837e+18
14570.0	1.2896925615390715e+18
14571.0	1.289614840247091e+18
14572.0	1.2894125607092221e+18
14573.0	1.2892175733882877e+18
14574.0	1.2890266981629952e+18
14575.0	1.2888338516148221e+18
14576.0	1.2886383685271552e+18
14577.0	1.2884434105663485e+18
14578.0	1.2882210235351037e+18
14579.0	1.2879444351909883e+18
14580.0	1.2877491727237117e+18
14581.0	1.2875532777553917e+18
14582.0	1.2873585320263677e+18
14583.0	1.2871633391845373e+18
14584.0	1.286965856252723e+18
14585.0	1.2867728117334013e+18
14586.0	1.2865769310257152e+18
14587.0	1.2863821215432704e+18
14588.0	1.2861873657479165e+18
14589.0	1.2859943640104957e+18
14590.0	1.2858016466468861e+18
14591.0	1.2856087514447872e+18
14592.0	1.2854158780530685e+18
14593.0	1.2852005894619133e+18
14594.0	1.2850306287140861e+18
14595.0	1.2848368837459965e+18
14596.0	1.2846358373335037e+18
14597.0	1.2844415823380475e+18
14598.0	1.2842586880344061e+18
14599.0	1.2840672843268093e+18
14600.0	1.2838744797216768e+18
14601.0	1.2836819729121277e+18
14602.0	1.283488639824691e+18
14603.0	1.283296677435801e+18
14604.0	1.2830956545114112e+18
14605.0	1.282909431608115e+18
14606.0	1.282702099611648e+18
14607.0	1.2825231311765501e+18
14608.0	1.282332408623923e+18
14609.0	1.2821403715764221e+18
14610.0	1.2819447936974848e+18
14611.0	1.281754685190963e+18
14612.0	1.281562917417779e+18
14613.0	1.2813703955087357e+18
14614.0	1.2811769273647101e+18
14615.0	1.2809849834307581e+18
14616.0	1.2807924279672827e+18
14617.0	1.2805996980207616e+18
14618.0	1.280407059510067e+18
14619.0	1.280208455021363e+18
14620.0	1.2800011523850237e+18
14621.0	1.2798290038882301e+18
14622.0	1.2796362647142397e+18
14623.0	1.279443475208601e+18
14624.0	1.2792396270010365e+18
14625.0	1.2790579549175805e+18
14626.0	1.278865011061555e+18
14627.0	1.2786716737798144e+18
14628.0	1.278479588078387e+18
14629.0	1.2782867666960384e+18
14630.0	1.2780937263710203e+18
14631.0	1.277901038367539e+18
14632.0	1.2776299621777405e+18
14633.0	1.277411558057574e+18
14634.0	1.2772241062232061e+18
14635.0	1.2770194636144637e+18
14636.0	1.2768106292183037e+18
14637.0	1.2766455950999547e+18
14638.0	1.2764521118564352e+18
14639.0	1.276257114469171e+18
14640.0	1.276065724183347e+18
14641.0	1.2756976748462075e+18
14642.0	1.275679290372915e+18
14643.0	1.2754864857677821e+18
14644.0	1.275287849402368e+18
14645.0	1.2750905082380288e+18
14646.0	1.2749005247217664e+18
