# Flux units: erg / (cm m2 s)
# Wavelength units: Angstrom
wave	flux
14000.0	2.0408094362173437e+18
14001.0	2.0402328569905152e+18
14002.0	2.0398636206653437e+18
14003.0	2.0393847670439933e+18
14004.0	2.0389053044097021e+18
14005.0	2.038423929172787e+18
14006.0	2.037928338600755e+18
14007.0	2.037441203745587e+18
14008.0	2.0367730125307901e+18
14009.0	2.0364971867111424e+18
14010.0	2.035987919352627e+18
14011.0	2.0344020899201024e+18
14012.0	2.0350510544453627e+18
14013.0	2.0345751150264315e+18
14014.0	2.0340806367838203e+18
14015.0	2.0336098966241277e+18
14016.0	2.0331347776110587e+18
14017.0	2.0326520820072443e+18
14018.0	2.032167334549913e+18
14019.0	2.031682868949811e+18
14020.0	2.0311995458781181e+18
14021.0	2.030720737555251e+18
14022.0	2.0302400954826747e+18
14023.0	2.0297205084585981e+18
14024.0	2.0292473473466363e+18
14025.0	2.0288045009862648e+18
14026.0	2.0283238740131835e+18
14027.0	2.0278462182850552e+18
14028.0	2.027357341954867e+18
14029.0	2.026882159188377e+18
14030.0	2.0252118262743045e+18
14031.0	2.0258843845984253e+18
14032.0	2.0254528712474621e+18
14033.0	2.0248801558134776e+18
14034.0	2.0245005964673021e+18
14035.0	2.0240167600127997e+18
14036.0	2.0235381010071547e+18
14037.0	2.0230501759451133e+18
14038.0	2.0225806437449725e+18
14039.0	2.0220945792761853e+18
14040.0	2.0216022552281083e+18
14041.0	2.0211401368797181e+18
14042.0	2.0206504988639224e+18
14043.0	2.0201210116046843e+18
14044.0	2.019700529273241e+18
14045.0	2.0192352937181181e+18
14046.0	2.018757324256051e+18
14047.0	2.01827244090327e+18
14048.0	2.0178113342210045e+18
14049.0	2.0173409816150016e+18
14050.0	2.01686546162647e+18
14051.0	2.016364205388595e+18
14052.0	2.0159052294127608e+18
14053.0	2.0154366048600061e+18
14054.0	2.0149645845987325e+18
14055.0	2.0144852712816637e+18
14056.0	2.0140033927282683e+18
14057.0	2.0135250407456765e+18
14058.0	2.0130532687871997e+18
14059.0	2.0125793610891261e+18
14060.0	2.0120956336865275e+18
14061.0	2.011605599728435e+18
14062.0	2.0111447346380797e+18
14063.0	2.010638091236147e+18
14064.0	2.0100285095477245e+18
14065.0	2.0097076469694461e+18
14066.0	2.009244751835955e+18
14067.0	2.0087432036745216e+18
14068.0	2.0083038150983677e+18
14069.0	2.0078264160616445e+18
14070.0	2.007357205984051e+18
14071.0	2.0068798371463163e+18
14072.0	2.006410358633267e+18
14073.0	2.005939908719411e+18
14074.0	2.0054677324300283e+18
14075.0	2.0049577772056573e+18
14076.0	2.0044846832025597e+18
14077.0	2.0037548608847872e+18
14078.0	2.003548761174835e+18
14079.0	2.003073259641241e+18
14080.0	2.0026245144117243e+18
14081.0	2.0021528095621117e+18
14082.0	2.001637103108096e+18
14083.0	2.001204472394547e+18
14084.0	2.0007392771047421e+18
14085.0	1.999617465201459e+18
14086.0	1.9997717635792893e+18
14087.0	1.9993272713740283e+18
14088.0	1.998831073466777e+18
14089.0	1.9983519430213627e+18
14090.0	1.9979072411009021e+18
14091.0	1.997446090797875e+18
14092.0	1.9969729481408507e+18
14093.0	1.9965060331864061e+18
14094.0	1.996036502663987e+18
14095.0	1.9955670644162555e+18
14096.0	1.9950320389980155e+18
14097.0	1.994576732199321e+18
14098.0	1.9941263511912445e+18
14099.0	1.993689361756979e+18
14100.0	1.9931904039976955e+18
14101.0	1.9927525824135165e+18
14102.0	1.9922792216526843e+18
14103.0	1.9917834230431744e+18
14104.0	1.991329166498201e+18
14105.0	1.990858157903052e+18
14106.0	1.9903985259380733e+18
14107.0	1.9899048932671483e+18
14108.0	1.9894316247810043e+18
14109.0	1.9889848760401917e+18
14110.0	1.9884774071992315e+18
14111.0	1.9879540738228221e+18
14112.0	1.9875728753426432e+18
14113.0	1.9871011537158144e+18
14114.0	1.9866250633019387e+18
14115.0	1.9861853207265275e+18
14116.0	1.9855514204635133e+18
14117.0	1.9833165828849661e+18
14118.0	1.9847882819502075e+18
14119.0	1.98428029133783e+18
14120.0	1.9838276940595197e+18
14121.0	1.9833463741874173e+18
14122.0	1.9828802158854144e+18
14123.0	1.9823926498557947e+18
14124.0	1.981924188042035e+18
14125.0	1.9806008985518065e+18
14126.0	1.9810474090561536e+18
14127.0	1.9805984943767547e+18
14128.0	1.9801306197655547e+18
14129.0	1.979642917840486e+18
14130.0	1.9791532211044344e+18
14131.0	1.9787237747064832e+18
14132.0	1.978248969427353e+18
14133.0	1.976717936060004e+18
14134.0	1.9773320912175101e+18
14135.0	1.9768307309608955e+18
14136.0	1.976265003237376e+18
14137.0	1.975936758684057e+18
14138.0	1.9754481222680573e+18
14139.0	1.9750115874963448e+18
14140.0	1.974466665198387e+18
14141.0	1.9740788766277632e+18
14142.0	1.9734145559166973e+18
14143.0	1.973051938203238e+18
14144.0	1.9726955951685627e+18
14145.0	1.972230624693452e+18
14146.0	1.9717639563640827e+18
14147.0	1.9713037791395837e+18
14148.0	1.9708329366388733e+18
14149.0	1.9703663907831805e+18
14150.0	1.9699188669349883e+18
14151.0	1.9694272156532733e+18
14152.0	1.968991440889446e+18
14153.0	1.9685332551204864e+18
14154.0	1.9680177533485053e+18
14155.0	1.9671535606300675e+18
14156.0	1.9670985313615864e+18
14157.0	1.9666833321754621e+18
14158.0	1.9662109679812605e+18
14159.0	1.9657622244294653e+18
14160.0	1.9652927694045181e+18
14161.0	1.9647133229514747e+18
14162.0	1.9641594483310584e+18
14163.0	1.9639065452216315e+18
14164.0	1.9633585828921341e+18
14165.0	1.962152467156173e+18
14166.0	1.962508518267289e+18
14167.0	1.962037642212147e+18
14168.0	1.9615871588630525e+18
14169.0	1.9611475907706877e+18
14170.0	1.9606747786248187e+18
14171.0	1.960212029453107e+18
14172.0	1.9597688643256312e+18
14173.0	1.9589284113678333e+18
14174.0	1.9588367222046717e+18
14175.0	1.9583910706937853e+18
14176.0	1.957925734475366e+18
14177.0	1.9574699059052544e+18
14178.0	1.9570027443257336e+18
14179.0	1.9564754716590077e+18
14180.0	1.9560972662341632e+18
14181.0	1.9556369816354808e+18
14182.0	1.955178571051827e+18
14183.0	1.9547213902381048e+18
14184.0	1.954252613012684e+18
14185.0	1.953803619480371e+18
14186.0	1.95293856441303e+18
14187.0	1.9528427044339707e+18
14188.0	1.9524234887823352e+18
14189.0	1.951961481163571e+18
14190.0	1.951514217362227e+18
14191.0	1.9510563839148027e+18
14192.0	1.9505839173795837e+18
14193.0	1.9500845787774973e+18
14194.0	1.949685616581017e+18
14195.0	1.9492345577734141e+18
14196.0	1.9487774742675453e+18
14197.0	1.948317807070412e+18
14198.0	1.9478519205593083e+18
14199.0	1.9473745198448637e+18
14200.0	1.9467224783781888e+18
14201.0	1.946477948777267e+18
14202.0	1.946026390008627e+18
14203.0	1.9454819274063864e+18
14204.0	1.9451125736407035e+18
14205.0	1.9446579849068536e+18
14206.0	1.9439567090221053e+18
14207.0	1.9437529698664443e+18
14208.0	1.9432975959588861e+18
14209.0	1.942571343832678e+18
14210.0	1.9422066222563318e+18
14211.0	1.9419193426313216e+18
14212.0	1.9414777512067072e+18
14213.0	1.941016230127206e+18
14214.0	1.9405695988269053e+18
14215.0	1.940089486914355e+18
14216.0	1.9396600556158968e+18
14217.0	1.9392091981348856e+18
14218.0	1.93873068509102e+18
14219.0	1.9382982473154555e+18
14220.0	1.9378451198771197e+18
14221.0	1.937378976674611e+18
14222.0	1.936859478569779e+18
14223.0	1.9364783354544125e+18
14224.0	1.9360290348990461e+18
14225.0	1.934958482423808e+18
14226.0	1.9351226793590781e+18
14227.0	1.9346689882062845e+18
14228.0	1.9328444038905856e+18
14229.0	1.9335150311571438e+18
14230.0	1.9333124328521728e+18
14231.0	1.9328054572613632e+18
14232.0	1.9324100820336635e+18
14233.0	1.9319411320029181e+18
14234.0	1.931506479634841e+18
14235.0	1.9310498340143104e+18
14236.0	1.930599949611827e+18
14237.0	1.9301461225635837e+18
14238.0	1.929699961025331e+18
14239.0	1.9292226962063355e+18
14240.0	1.926040341866087e+18
14241.0	1.928331527402291e+18
14242.0	1.9278848122159104e+18
14243.0	1.927123341357875e+18
14244.0	1.92698576315351e+18
14245.0	1.9264905970450427e+18
14246.0	1.926020650447667e+18
14247.0	1.925623575687987e+18
14248.0	1.925157945868288e+18
14249.0	1.9247250920177661e+18
14250.0	1.9242806417555453e+18
14251.0	1.9238330742865915e+18
14252.0	1.9233844599193597e+18
14253.0	1.9229358119976955e+18
14254.0	1.9224831677431805e+18
14255.0	1.92197948384215e+18
14256.0	1.9210261520973824e+18
14257.0	1.9211190777413624e+18
14258.0	1.9206924348162043e+18
14259.0	1.9201996795936765e+18
14260.0	1.9197744996417533e+18
14261.0	1.9193007127396352e+18
14262.0	1.9189032537817088e+18
14263.0	1.917626712326145e+18
14264.0	1.9178582999826427e+18
14265.0	1.9175409639751677e+18
14266.0	1.9171089271750653e+18
14267.0	1.916663668251033e+18
14268.0	1.9162139583315965e+18
14269.0	1.9157506471231483e+18
14270.0	1.9153230529298427e+18
14271.0	1.9148590052016125e+18
14272.0	1.9144280723423227e+18
14273.0	1.9139800300781563e+18
14274.0	1.9122935356719107e+18
14275.0	1.9129782641885181e+18
14276.0	1.9125501197025277e+18
14277.0	1.912136749232947e+18
14278.0	1.9117488314777597e+18
14279.0	1.9113006046642173e+18
14280.0	1.9108420363747325e+18
14281.0	1.9104108451463165e+18
14282.0	1.9099656264876027e+18
14283.0	1.9095199514886144e+18
14284.0	1.9090743754751997e+18
14285.0	1.9086287004762107e+18
14286.0	1.908177933592166e+18
14287.0	1.9077336863342587e+18
14288.0	1.9072796596371453e+18
14289.0	1.905077675202966e+18
14290.0	1.9063722051895293e+18
14291.0	1.9059447368253437e+18
14292.0	1.905498486367846e+18
14293.0	1.905054572976537e+18
14294.0	1.9043381757870077e+18
14295.0	1.9041366461906941e+18
14296.0	1.9022969003048973e+18
14297.0	1.903281935954739e+18
14298.0	1.9024111984443387e+18
14299.0	1.9023545937952763e+18
14300.0	1.9019307258216443e+18
14301.0	1.901487376144793e+18
14302.0	1.9010555272495104e+18
14303.0	1.9005451358175227e+18
14304.0	1.9001433701482493e+18
14305.0	1.8997212923035643e+18
14306.0	1.8990965976989693e+18
14307.0	1.898793027397222e+18
14308.0	1.8984000680886272e+18
14309.0	1.8979460061593592e+18
14310.0	1.8966364085551094e+18
14311.0	1.8967164274868221e+18
14312.0	1.8965157031968763e+18
14313.0	1.8960594048647165e+18
14314.0	1.8957386362388472e+18
14315.0	1.8953041130553336e+18
14316.0	1.894763720605696e+18
14317.0	1.8943131550482427e+18
14318.0	1.8939849893478397e+18
14319.0	1.893545005180518e+18
14320.0	1.8931031872634875e+18
14321.0	1.892653673637478e+18
14322.0	1.8921353600040955e+18
14323.0	1.8917456001105915e+18
14324.0	1.8913380815339515e+18
14325.0	1.8908791273684987e+18
14326.0	1.8904602237730808e+18
14327.0	1.8900041469001728e+18
14328.0	1.8895621645664253e+18
14329.0	1.8891395582394365e+18
14330.0	1.8886976497254392e+18
14331.0	1.8882497416790013e+18
14332.0	1.8878172703490043e+18
14333.0	1.8873791618744315e+18
14334.0	1.8869406306140155e+18
14335.0	1.8864551667695613e+18
14336.0	1.8859631514222587e+18
14337.0	1.885615980491571e+18
14338.0	1.8851769996017661e+18
14339.0	1.8847165220651003e+18
14340.0	1.884305391353856e+18
14341.0	1.883857542027673e+18
14342.0	1.883420352944537e+18
14343.0	1.8829404339699707e+18
14344.0	1.8825112325193725e+18
14345.0	1.882100413864345e+18
14346.0	1.8816592737468408e+18
14347.0	1.8811806281629693e+18
14348.0	1.8807841406058493e+18
14349.0	1.88035151995863e+18
14350.0	1.8798626167848955e+18
14351.0	1.8794105429557243e+18
14352.0	1.879021091762995e+18
14353.0	1.878597037562265e+18
14354.0	1.878154025107456e+18
14355.0	1.877710187213619e+18
14356.0	1.8772781101481981e+18
14357.0	1.8768535106879483e+18
14358.0	1.8764165262868475e+18
14359.0	1.875946636732006e+18
14360.0	1.8755385577963515e+18
14361.0	1.8751057140121597e+18
14362.0	1.874668972880691e+18
14363.0	1.8742340856315904e+18
14364.0	1.8736230258704381e+18
14365.0	1.873332414290329e+18
14366.0	1.8728952956715005e+18
14367.0	1.872488424695398e+18
14368.0	1.8720520593735675e+18
14369.0	1.8716204084494333e+18
14370.0	1.8711851940446203e+18
14371.0	1.8707501725777917e+18
14372.0	1.870300717672038e+18
14373.0	1.8698785978843133e+18
14374.0	1.8694418148098043e+18
14375.0	1.8690053555355645e+18
14376.0	1.868572407732633e+18
14377.0	1.8681398139289597e+18
14378.0	1.867701208848793e+18
14379.0	1.8672721986584576e+18
14380.0	1.8668359943979005e+18
14381.0	1.8663790081998845e+18
14382.0	1.8659656360525824e+18
14383.0	1.8654760416575488e+18
14384.0	1.8650532944019453e+18
14385.0	1.8646684435218427e+18
14386.0	1.8641967923593213e+18
14387.0	1.8637977982861307e+18
14388.0	1.8633584633970688e+18
14389.0	1.8629337313968125e+18
14390.0	1.8624974734491645e+18
14391.0	1.8620624234610683e+18
14392.0	1.8616131614932995e+18
14393.0	1.8612031783436283e+18
14394.0	1.860693379147366e+18
14395.0	1.8602726585794555e+18
14396.0	1.859903194084147e+18
14397.0	1.8594732762464253e+18
14398.0	1.8590246803341307e+18
14399.0	1.8586032014360576e+18
14400.0	1.8581175966629888e+18
14401.0	1.8577319874527227e+18
14402.0	1.857305015694131e+18
14403.0	1.8445478857277274e+18
14404.0	1.8268900823138258e+18
14405.0	1.853251756071315e+18
14406.0	1.855582665021849e+18
14407.0	1.8367017220309074e+18
14408.0	1.8546063065481206e+18
14409.0	1.8542452407271424e+18
14410.0	1.8538351216820221e+18
14411.0	1.8534178823864315e+18
14412.0	1.8529814885433344e+18
14413.0	1.852557657479577e+18
14414.0	1.852125310300979e+18
14415.0	1.851697491292979e+18
14416.0	1.8512519941324797e+18
14417.0	1.850773544842035e+18
14418.0	1.8503026000003072e+18
14419.0	1.8499757076905981e+18
14420.0	1.8495362687827963e+18
14421.0	1.8491176319451136e+18
14422.0	1.848677844071219e+18
14423.0	1.8482380729745405e+18
14424.0	1.7852604809739996e+18
14425.0	1.8473850740146176e+18
14426.0	1.8469709938687997e+18
14427.0	1.846543228547891e+18
14428.0	1.8460569073876984e+18
14429.0	1.8456770192080893e+18
14430.0	1.8452582481526781e+18
14431.0	1.8445461727739904e+18
14432.0	1.8443366874218496e+18
14433.0	1.829930541672031e+18
14434.0	1.8435088492527613e+18
14435.0	1.8430553007063037e+18
14436.0	1.8426879769837568e+18
14437.0	1.8422584819318784e+18
14438.0	1.8413996277235712e+18
14439.0	1.841291300595302e+18
14440.0	1.840975108793958e+18
14441.0	1.840535218579046e+18
14442.0	1.840101329574297e+18
14443.0	1.8395963672494075e+18
14444.0	1.8392578466512893e+18
14445.0	1.8388390688849917e+18
14446.0	1.8234454883434552e+18
14447.0	1.837938967891148e+18
14448.0	1.837559896761958e+18
14449.0	1.8371334065094656e+18
14450.0	1.8366947527753725e+18
14451.0	1.8362692003692536e+18
14452.0	1.8358386986844155e+18
14453.0	1.8351364530765821e+18
14454.0	1.8349971870842875e+18
14455.0	1.8345564747857915e+18
14456.0	1.834082635874303e+18
14457.0	1.8336223714082813e+18
14458.0	1.8332638657904635e+18
14459.0	1.8328271011708928e+18
14460.0	1.8324367289090043e+18
14461.0	1.8319501460242427e+18
14462.0	1.8312903920713723e+18
14463.0	1.831145190300057e+18
14464.0	1.8307369737912315e+18
14465.0	1.8302782545068027e+18
14466.0	1.829881959887667e+18
14467.0	1.829247328138035e+18
14468.0	1.829013398382182e+18
14469.0	1.828561151747686e+18
14470.0	1.8281344635240443e+18
14471.0	1.8277323203674107e+18
14472.0	1.82732087927767e+18
14473.0	1.8269180734210045e+18
14474.0	1.8264970626072576e+18
14475.0	1.8260503574872067e+18
14476.0	1.8247014911311877e+18
14477.0	1.8252243715227645e+18
14478.0	1.82479385306071e+18
14479.0	1.8243639033462781e+18
14480.0	1.82392148983808e+18
14481.0	1.823534395844198e+18
14482.0	1.823103660956057e+18
14483.0	1.822664634767769e+18
14484.0	1.822244826880409e+18
14485.0	1.8217481457893376e+18
14486.0	1.820801610494771e+18
14487.0	1.8209806451998715e+18
14488.0	1.8204884436254715e+18
14489.0	1.8201094261833723e+18
14490.0	1.8196971898535933e+18
14491.0	1.8192911627714555e+18
14492.0	1.8188720662380544e+18
14493.0	1.8184294816022523e+18
14494.0	1.8179844055498752e+18
14495.0	1.8176057655951352e+18
14496.0	1.8169092141744125e+18
14497.0	1.8167559677280253e+18
14498.0	1.8163355910930427e+18
14499.0	1.815919658742579e+18
14500.0	1.8154982133989376e+18
14501.0	1.8146286368718843e+18
14502.0	1.8138008909774853e+18
14503.0	1.814165391094579e+18
14504.0	1.8137897190293496e+18
14505.0	1.8129497257672694e+18
14506.0	1.8120238130266107e+18
14507.0	1.8120468179451904e+18
14508.0	1.8121207752687613e+18
14509.0	1.8116991923519485e+18
14510.0	1.8112754686623741e+18
14511.0	1.8108601369362427e+18
14512.0	1.810403150738227e+18
14513.0	1.810019360178176e+18
14514.0	1.8094688661667835e+18
14515.0	1.8091699850969085e+18
14516.0	1.8045003221696543e+18
14517.0	1.8083379861782523e+18
14518.0	1.8079179501207547e+18
14519.0	1.8074953370828792e+18
14520.0	1.8070775357505533e+18
14521.0	1.8066512686350333e+18
14522.0	1.806230120248115e+18
14523.0	1.8048169686335478e+18
14524.0	1.8043561706520568e+18
14525.0	1.8049690608074747e+18
14526.0	1.804555692015616e+18
14527.0	1.8040621734297592e+18
14528.0	1.8034488772657147e+18
14529.0	1.8032802058469376e+18
14530.0	1.8028458504355837e+18
14531.0	1.802460001311129e+18
14532.0	1.8005372065284093e+18
14533.0	1.8016210264260603e+18
14534.0	1.8012099208806397e+18
14535.0	1.8007657323429885e+18
14536.0	1.8003633559830523e+18
14537.0	1.799922491011891e+18
14538.0	1.7995333703303165e+18
14539.0	1.7991150002503677e+18
14540.0	1.7986995259179005e+18
14541.0	1.798230490323353e+18
14542.0	1.797855628597657e+18
14543.0	1.7967956038254584e+18
14544.0	1.7970230156328955e+18
14545.0	1.7965875009159165e+18
14546.0	1.740126107467758e+18
14547.0	1.7445834983472916e+18
14548.0	1.795326610925158e+18
14549.0	1.7946928515907581e+18
14550.0	1.7945027959324672e+18
14551.0	1.7941048907005947e+18
14552.0	1.79367656334295e+18
14553.0	1.793247939028582e+18
14554.0	1.7928519967309816e+18
14555.0	1.7924310429597693e+18
14556.0	1.791989756880486e+18
14557.0	1.7915993426755581e+18
14558.0	1.79118149772247e+18
14559.0	1.787541041499335e+18
14560.0	1.790257626768998e+18
14561.0	1.7899040922402813e+18
14562.0	1.7894450743214075e+18
14563.0	1.7890800104898555e+18
14564.0	1.788634048600473e+18
14565.0	1.7882520515248125e+18
14566.0	1.7878356829667325e+18
14567.0	1.7874142309122043e+18
14568.0	1.7869097232498688e+18
14569.0	1.7865844801404923e+18
14570.0	1.7852348890087416e+18
14571.0	1.7857471410339835e+18
14572.0	1.7852280590041085e+18
14573.0	1.7848177872863232e+18
14574.0	1.7844203081957368e+18
14575.0	1.7840717866991613e+18
14576.0	1.7836512104153085e+18
14577.0	1.7832303254306813e+18
14578.0	1.7828288751730685e+18
14579.0	1.7824170784063485e+18
14580.0	1.782002900952678e+18
14581.0	1.7815527833468925e+18
14582.0	1.7811676891971581e+18
14583.0	1.7807559645724664e+18
14584.0	1.780311777712537e+18
14585.0	1.77992487665664e+18
14586.0	1.779502654527897e+18
14587.0	1.7790742432841725e+18
14588.0	1.778671289788006e+18
14589.0	1.7782793673113597e+18
14590.0	1.7778827035934717e+18
14591.0	1.7774735190392832e+18
14592.0	1.7770691176693755e+18
14593.0	1.7764475822145528e+18
14594.0	1.776282507830886e+18
14595.0	1.7758727377518587e+18
14596.0	1.7752746266460155e+18
14597.0	1.7749289102999547e+18
14598.0	1.774676203483955e+18
14599.0	1.774298476209766e+18
14600.0	1.7738951116718075e+18
14601.0	1.7734985184182264e+18
14602.0	1.773061718566502e+18
14603.0	1.77269732582359e+18
14604.0	1.7722081642807293e+18
14605.0	1.7718639713058808e+18
14606.0	1.7713736957558781e+18
14607.0	1.771096759284531e+18
14608.0	1.7707024359882747e+18
14609.0	1.7702208342589435e+18
14610.0	1.7698360119001085e+18
14611.0	1.7695049722626048e+18
14612.0	1.7691181601259517e+18
14613.0	1.7687249340596221e+18
14614.0	1.7683203481403387e+18
14615.0	1.7679125829386235e+18
14616.0	1.767531008648806e+18
14617.0	1.7671308569477115e+18
14618.0	1.7666841451167744e+18
14619.0	1.7662333027352568e+18
14620.0	1.7655345014898685e+18
14621.0	1.76554066879447e+18
14622.0	1.765135562781491e+18
14623.0	1.7647437510344704e+18
14624.0	1.7642243250716672e+18
14625.0	1.7639401509093376e+18
14626.0	1.763516249381273e+18
14627.0	1.7630928444588027e+18
14628.0	1.7627524028694528e+18
14629.0	1.7623539322454013e+18
14630.0	1.7619515105869821e+18
14631.0	1.7615482483900413e+18
14632.0	1.7549528898994207e+18
14633.0	1.7599685778735076e+18
14634.0	1.7603382789275648e+18
14635.0	1.759394458186545e+18
14636.0	1.7581066978066422e+18
14637.0	1.759165259605606e+18
14638.0	1.7587533386874877e+18
14639.0	1.7583432196423675e+18
14640.0	1.7579579979857915e+18
14641.0	1.7347606950707062e+18
14642.0	1.7571581777674237e+18
14643.0	1.7567686846316541e+18
14644.0	1.7563403388190712e+18
14645.0	1.755907681261977e+18
14646.0	1.7555093867986941e+18
14647.0	1.755110218242457e+18
14648.0	1.754755675403059e+18
