# Flux units: erg / (cm m2 s)
# Wavelength units: Angstrom
wave	flux
14000.0	1.697243771541913e+18
14001.0	1.6968686212481021e+18
14002.0	1.6967711473008637e+18
14003.0	1.6964769957281787e+18
14004.0	1.6961810557042685e+18
14005.0	1.6958839395975165e+18
14006.0	1.695578827469619e+18
14007.0	1.6952784515497981e+18
14008.0	1.6949081213501437e+18
14009.0	1.6946739080593403e+18
14010.0	1.6943657709993981e+18
14011.0	1.6934196098367488e+18
14012.0	1.693771290483097e+18
14013.0	1.6935088998580221e+18
14014.0	1.693210557336781e+18
14015.0	1.692920236002508e+18
14016.0	1.692626188448563e+18
14017.0	1.692331161105203e+18
14018.0	1.6920287064883197e+18
14019.0	1.691739854838169e+18
14020.0	1.6914434937061376e+18
14021.0	1.6911473523556347e+18
14022.0	1.6908521991831547e+18
14023.0	1.6905453053149181e+18
14024.0	1.6902510597898237e+18
14025.0	1.6899659779801085e+18
14026.0	1.6896697426771965e+18
14027.0	1.6893750592667648e+18
14028.0	1.6890723311812603e+18
14029.0	1.6887737302908928e+18
14030.0	1.688243258209075e+18
14031.0	1.6881230360346621e+18
14032.0	1.6878949413945341e+18
14033.0	1.6875630628962307e+18
14034.0	1.6873107419561981e+18
14035.0	1.687016981292646e+18
14036.0	1.6867227609333752e+18
14037.0	1.6864266783031293e+18
14038.0	1.6861340618457088e+18
14039.0	1.6858352847945725e+18
14040.0	1.6855433813688323e+18
14041.0	1.6852496928473085e+18
14042.0	1.6849453323386877e+18
14043.0	1.6846225991008256e+18
14044.0	1.684351053148979e+18
14045.0	1.6840661424668672e+18
14046.0	1.68377615164375e+18
14047.0	1.6834795405312e+18
14048.0	1.6831927759667197e+18
14049.0	1.6828996511596544e+18
14050.0	1.6826057915105277e+18
14051.0	1.6823032362303485e+18
14052.0	1.6820132957388795e+18
14053.0	1.6817253752242176e+18
14054.0	1.6814321833082875e+18
14055.0	1.6811388940845053e+18
14056.0	1.6808456317042685e+18
14057.0	1.68055245153239e+18
14058.0	1.6802592965263357e+18
14059.0	1.67996000609239e+18
14060.0	1.679672911016755e+18
14061.0	1.679372795143782e+18
14062.0	1.6790854551207933e+18
14063.0	1.6787788884082685e+18
14064.0	1.6784374116646907e+18
14065.0	1.678199071178752e+18
14066.0	1.6779138853502976e+18
14067.0	1.6776239566028797e+18
14068.0	1.6773314475196416e+18
14069.0	1.677038497195622e+18
14070.0	1.676746615580262e+18
14071.0	1.6764514305310712e+18
14072.0	1.6761622332702715e+18
14073.0	1.675870153683763e+18
14074.0	1.6755779952443387e+18
14075.0	1.675267054711603e+18
14076.0	1.6749917338861563e+18
14077.0	1.6746444539035643e+18
14078.0	1.6743997783408635e+18
14079.0	1.6741084419850235e+18
14080.0	1.673825908634419e+18
14081.0	1.6735345974444032e+18
14082.0	1.6732422846545915e+18
14083.0	1.6729478126370813e+18
14084.0	1.672646431762022e+18
14085.0	1.67214070104064e+18
14086.0	1.6720448528056315e+18
14087.0	1.671777942398566e+18
14088.0	1.6714822305447933e+18
14089.0	1.6712041498673147e+18
14090.0	1.6709133168279547e+18
14091.0	1.6706228579205112e+18
14092.0	1.670332170842931e+18
14093.0	1.670041346192179e+18
14094.0	1.6697503638355963e+18
14095.0	1.6694587405893624e+18
14096.0	1.669161594283622e+18
14097.0	1.668857201898291e+18
14098.0	1.6685846358917115e+18
14099.0	1.668296057710182e+18
14100.0	1.667994356390297e+18
14101.0	1.667716903180697e+18
14102.0	1.667424377320243e+18
14103.0	1.6671193071353853e+18
14104.0	1.666843357164339e+18
14105.0	1.6665568174145533e+18
14106.0	1.6662668349800443e+18
14107.0	1.665971549267558e+18
14108.0	1.6656744683929597e+18
14109.0	1.6653931748786176e+18
14110.0	1.6651055999746048e+18
14111.0	1.6648111631892477e+18
14112.0	1.664518097102438e+18
14113.0	1.6642366458822653e+18
14114.0	1.6639317854126075e+18
14115.0	1.6636503224483837e+18
14116.0	1.6633164474613757e+18
14117.0	1.662603284919091e+18
14118.0	1.6627652370628605e+18
14119.0	1.6624851632521213e+18
14120.0	1.6622049619345405e+18
14121.0	1.6619089011146752e+18
14122.0	1.6616268811468797e+18
14123.0	1.6613348116267005e+18
14124.0	1.6610132762820603e+18
14125.0	1.6603354968883197e+18
14126.0	1.6604498168381437e+18
14127.0	1.6601845388541947e+18
14128.0	1.6598984470560763e+18
14129.0	1.6595993696927741e+18
14130.0	1.659299411525632e+18
14131.0	1.6590297748209661e+18
14132.0	1.6587029714305021e+18
14133.0	1.6579539509444603e+18
14134.0	1.6581262395310077e+18
14135.0	1.6578661859721213e+18
14136.0	1.6575920915611643e+18
14137.0	1.6573057564934141e+18
14138.0	1.657017753770393e+18
14139.0	1.6567316166737915e+18
14140.0	1.6564429244071933e+18
14141.0	1.6561478836420603e+18
14142.0	1.655852670071603e+18
14143.0	1.6555794061328381e+18
14144.0	1.6552950004449277e+18
14145.0	1.655005717620326e+18
14146.0	1.6547200167313405e+18
14147.0	1.6544335239577597e+18
14148.0	1.654146888577843e+18
14149.0	1.6538601324019707e+18
14150.0	1.6535727403696123e+18
14151.0	1.6532838736199677e+18
14152.0	1.6529969983258616e+18
14153.0	1.652712134619955e+18
14154.0	1.6523977010708475e+18
14155.0	1.6521294669414397e+18
14156.0	1.65185078731735e+18
14157.0	1.6515639858429952e+18
14158.0	1.6512744161279997e+18
14159.0	1.6509893393514493e+18
14160.0	1.6506824152842235e+18
14161.0	1.6503624116994043e+18
14162.0	1.6500340648050685e+18
14163.0	1.6498278677872637e+18
14164.0	1.6495375514861568e+18
14165.0	1.6492591000322043e+18
14166.0	1.6489848999247872e+18
14167.0	1.648685535671091e+18
14168.0	1.6484125586227197e+18
14169.0	1.6481299027984381e+18
14170.0	1.6478410561814525e+18
14171.0	1.6475524427677693e+18
14172.0	1.6472717096124413e+18
14173.0	1.6469723235483643e+18
14174.0	1.646692759764992e+18
14175.0	1.646415489427046e+18
14176.0	1.6461306055884795e+18
14177.0	1.6458453576843261e+18
14178.0	1.645559611496857e+18
14179.0	1.645271202765209e+18
14180.0	1.6449894344556541e+18
14181.0	1.644704265404416e+18
14182.0	1.644418307824025e+18
14183.0	1.6441333753315323e+18
14184.0	1.6438432200916992e+18
14185.0	1.6435569621991421e+18
14186.0	1.6431856824090621e+18
14187.0	1.642953007588966e+18
14188.0	1.6427033559039995e+18
14189.0	1.6424237451444221e+18
14190.0	1.6421392589258747e+18
14191.0	1.6418537593634808e+18
14192.0	1.6415603459883005e+18
14193.0	1.641275606433792e+18
14194.0	1.6410008224792576e+18
14195.0	1.6407184250241021e+18
14196.0	1.640434301193421e+18
14197.0	1.6401500129460216e+18
14198.0	1.639861028755865e+18
14199.0	1.6395752456585213e+18
14200.0	1.6392507743010813e+18
14201.0	1.639000065651507e+18
14202.0	1.6387264997228541e+18
14203.0	1.638441139411353e+18
14204.0	1.6381583292366848e+18
14205.0	1.6378693098143744e+18
14206.0	1.637478989561856e+18
14207.0	1.6372965759254528e+18
14208.0	1.6370198911123453e+18
14209.0	1.6366161339875325e+18
14210.0	1.6363535403581435e+18
14211.0	1.636164363825971e+18
14212.0	1.6358928933715965e+18
14213.0	1.6356117776957437e+18
14214.0	1.6353274575716347e+18
14215.0	1.6350325946449912e+18
14216.0	1.6347618808430587e+18
14217.0	1.6344810805788672e+18
14218.0	1.6341853217488893e+18
14219.0	1.6339153964761085e+18
14220.0	1.633632673542963e+18
14221.0	1.6333495345348603e+18
14222.0	1.633058379372953e+18
14223.0	1.6327832447746043e+18
14224.0	1.632496725157478e+18
14225.0	1.632047037048422e+18
14226.0	1.6319143108149248e+18
14227.0	1.6316430970519547e+18
14228.0	1.630873660371763e+18
14229.0	1.6309324611583995e+18
14230.0	1.6308028890415104e+18
14231.0	1.6305248637288448e+18
14232.0	1.6302438134841341e+18
14233.0	1.6299609429114883e+18
14234.0	1.62967979032576e+18
14235.0	1.629395263841894e+18
14236.0	1.6291147135582205e+18
14237.0	1.628829178763673e+18
14238.0	1.6285408086196221e+18
14239.0	1.6282109719085053e+18
14240.0	1.6261568350126077e+18
14241.0	1.6276016553000957e+18
14242.0	1.6273889051017208e+18
14243.0	1.6270034670190592e+18
14244.0	1.626854775586816e+18
14245.0	1.6265739468013565e+18
14246.0	1.626296651297587e+18
14247.0	1.62601531080704e+18
14248.0	1.6257214025039867e+18
14249.0	1.6254550826549248e+18
14250.0	1.6251671990501376e+18
14251.0	1.6248851975372797e+18
14252.0	1.6246040063639547e+18
14253.0	1.6243211542462461e+18
14254.0	1.6240365203881981e+18
14255.0	1.623713080829542e+18
14256.0	1.623321232172646e+18
14257.0	1.6231293410869243e+18
14258.0	1.6229123663855608e+18
14259.0	1.6226149382225915e+18
14260.0	1.622344106980147e+18
14261.0	1.6220515760865277e+18
14262.0	1.6218001309171707e+18
14263.0	1.6213005926662144e+18
14264.0	1.6211185984602107e+18
14265.0	1.6209598977409021e+18
14266.0	1.6206963293552635e+18
14267.0	1.6204193693958141e+18
14268.0	1.6201293047529472e+18
14269.0	1.6198373996494843e+18
14270.0	1.6195660449579005e+18
14271.0	1.6192828203859965e+18
14272.0	1.6189989314363387e+18
14273.0	1.618686823209369e+18
14274.0	1.618046366410342e+18
14275.0	1.6180578386706432e+18
14276.0	1.6178631424344061e+18
14277.0	1.617600662890086e+18
14278.0	1.6173291001610237e+18
14279.0	1.6170494642356221e+18
14280.0	1.6167680952238077e+18
14281.0	1.6164949839577088e+18
14282.0	1.616216554314137e+18
14283.0	1.6159375391457277e+18
14284.0	1.6156582639304704e+18
14285.0	1.6153785189531648e+18
14286.0	1.6150976733904893e+18
14287.0	1.6148132995792893e+18
14288.0	1.6144827129266176e+18
14289.0	1.613072082927615e+18
14290.0	1.613925247981977e+18
14291.0	1.6136828239216635e+18
14292.0	1.6134062632599547e+18
14293.0	1.6131233524219904e+18
14294.0	1.6127291817983997e+18
14295.0	1.6125185287520253e+18
14296.0	1.6113883198521344e+18
14297.0	1.6119186996592635e+18
14298.0	1.6115575700848637e+18
14299.0	1.6114325127167997e+18
14300.0	1.6111764739457021e+18
14301.0	1.6109053256138747e+18
14302.0	1.6106283824316413e+18
14303.0	1.6103139170058237e+18
14304.0	1.6100587825266685e+18
14305.0	1.6097972173406203e+18
14306.0	1.6095184521527296e+18
14307.0	1.6092391433830397e+18
14308.0	1.6089633511178235e+18
14309.0	1.608682886397952e+18
14310.0	1.608395214186086e+18
14311.0	1.608097457189683e+18
14312.0	1.6078021479890941e+18
14313.0	1.6073906985107453e+18
14314.0	1.6072828428222456e+18
14315.0	1.607000737290649e+18
14316.0	1.6066876039757824e+18
14317.0	1.6064505821790203e+18
14318.0	1.6061794372026363e+18
14319.0	1.605904149931622e+18
14320.0	1.6056272621142008e+18
14321.0	1.6053461112061947e+18
14322.0	1.6050397474979837e+18
14323.0	1.6047729662754816e+18
14324.0	1.6045203433455616e+18
14325.0	1.6042350451097597e+18
14326.0	1.603969258776166e+18
14327.0	1.6036849554292739e+18
14328.0	1.6034079703039997e+18
14329.0	1.6031403871305728e+18
14330.0	1.602864349918003e+18
14331.0	1.6025879268294653e+18
14332.0	1.6023119768584192e+18
14333.0	1.6020358423379965e+18
14334.0	1.601759467903385e+18
14335.0	1.601469926709657e+18
14336.0	1.601181694138777e+18
14337.0	1.6009133023035387e+18
14338.0	1.600638536803942e+18
14339.0	1.6003534969372672e+18
14340.0	1.6000893614817277e+18
14341.0	1.599811903238963e+18
14342.0	1.599535616045875e+18
14343.0	1.5992618940891133e+18
14344.0	1.5989800184053757e+18
14345.0	1.5987095831052285e+18
14346.0	1.5984332153815037e+18
14347.0	1.5981514453942267e+18
14348.0	1.5978835317096443e+18
14349.0	1.5976091017543672e+18
14350.0	1.5973198860386301e+18
14351.0	1.5970388743815165e+18
14352.0	1.5967714120040443e+18
14353.0	1.5965067816206333e+18
14354.0	1.596232100007116e+18
14355.0	1.5959549118775296e+18
14356.0	1.5956794970996733e+18
14357.0	1.595408868861542e+18
14358.0	1.595135985765581e+18
14359.0	1.594845041996595e+18
14360.0	1.594585339081523e+18
14361.0	1.59431119601664e+18
14362.0	1.594036886857318e+18
14363.0	1.593760280897126e+18
14364.0	1.5934385240932347e+18
14365.0	1.5931769085755392e+18
14366.0	1.5929130130341885e+18
14367.0	1.5926503271301112e+18
14368.0	1.5923763484819453e+18
14369.0	1.5921028026859515e+18
14370.0	1.5918288391372797e+18
14371.0	1.5915548806217728e+18
14372.0	1.5912746876928e+18
14373.0	1.591006621335552e+18
14374.0	1.5907324531048448e+18
14375.0	1.5904533708275707e+18
14376.0	1.5901853027926016e+18
14377.0	1.5899107973398525e+18
14378.0	1.5896351678136315e+18
14379.0	1.5893638265438205e+18
14380.0	1.5890892288163837e+18
14381.0	1.5888041319071744e+18
14382.0	1.5885415298891768e+18
14383.0	1.588268885029683e+18
14384.0	1.5879765386854395e+18
14385.0	1.5877233470078976e+18
14386.0	1.587430027585126e+18
14387.0	1.587176272193126e+18
14388.0	1.5869001477390333e+18
14389.0	1.586629056449741e+18
14390.0	1.5863550727684093e+18
14391.0	1.5860839395360765e+18
14392.0	1.585810544735027e+18
14393.0	1.585538091135795e+18
14394.0	1.5852206846640125e+18
14395.0	1.584980508750643e+18
14396.0	1.5847099509768187e+18
14397.0	1.584430445913702e+18
14398.0	1.5841565528293376e+18
14399.0	1.5838818393391104e+18
14400.0	1.5835870032560125e+18
14401.0	1.583318750671667e+18
14402.0	1.5830322075664381e+18
14403.0	1.5825227590139896e+18
14404.0	1.579601926239026e+18
14405.0	1.5799670102032356e+18
14406.0	1.5818881541079037e+18
14407.0	1.5814518340845565e+18
14408.0	1.5813952126582781e+18
14409.0	1.5811306544168957e+18
14410.0	1.5808809272344576e+18
14411.0	1.5806139195195395e+18
14412.0	1.5803409475043328e+18
14413.0	1.580074079040307e+18
14414.0	1.5798007328931835e+18
14415.0	1.5795299788259323e+18
14416.0	1.5792575923355648e+18
14417.0	1.578986767804006e+18
14418.0	1.5787129569279997e+18
14419.0	1.578441558615654e+18
14420.0	1.578165534824857e+18
14421.0	1.577897030582272e+18
14422.0	1.5776142002749435e+18
14423.0	1.5772995771432952e+18
14424.0	1.57618601459712e+18
14425.0	1.576750235726643e+18
14426.0	1.5765345696481275e+18
14427.0	1.5762688470679547e+18
14428.0	1.5759737039618043e+18
14429.0	1.5757273389334525e+18
14430.0	1.575452890523238e+18
14431.0	1.5751131451883515e+18
14432.0	1.5749034551541757e+18
14433.0	1.5744480376258557e+18
14434.0	1.57433397772288e+18
14435.0	1.5740748267782141e+18
14436.0	1.5738191520727035e+18
14437.0	1.5735503760392192e+18
14438.0	1.5732711410892797e+18
14439.0	1.5730039001710592e+18
14440.0	1.5727385584336896e+18
14441.0	1.572454449702502e+18
14442.0	1.5721754697662464e+18
14443.0	1.5718626736734203e+18
14444.0	1.571638670996275e+18
14445.0	1.5713583287500797e+18
14446.0	1.570104362716365e+18
14447.0	1.5707483678965757e+18
14448.0	1.5705667344007163e+18
14449.0	1.5703044477943805e+18
14450.0	1.5700296990719997e+18
14451.0	1.5697633993555965e+18
14452.0	1.5694973747855357e+18
14453.0	1.5692265821306877e+18
14454.0	1.5689573581455357e+18
14455.0	1.5686790090326013e+18
14456.0	1.5684180058832893e+18
14457.0	1.5681456898572288e+18
14458.0	1.5678769272455163e+18
14459.0	1.567605132990873e+18
14460.0	1.567332684424806e+18
14461.0	1.5670465473282048e+18
14462.0	1.5667831953686525e+18
14463.0	1.5665203416924157e+18
14464.0	1.566254894258585e+18
14465.0	1.565961709053542e+18
14466.0	1.565718439421542e+18
14467.0	1.5654315003740157e+18
14468.0	1.5651779546972163e+18
14469.0	1.564885017794969e+18
14470.0	1.5646137201459195e+18
14471.0	1.5643664860577787e+18
14472.0	1.564103192818483e+18
14473.0	1.5638395069923325e+18
14474.0	1.5635622131662843e+18
14475.0	1.5632876691259392e+18
14476.0	1.563010794730291e+18
14477.0	1.5627516806955003e+18
14478.0	1.562480378013286e+18
14479.0	1.5622119928889341e+18
14480.0	1.5619248139272192e+18
14481.0	1.5616768282198013e+18
14482.0	1.561401908369817e+18
14483.0	1.5611282988204032e+18
14484.0	1.5608461664452603e+18
14485.0	1.560534499459072e+18
14486.0	1.560030344118272e+18
14487.0	1.5600484148576256e+18
14488.0	1.559794937967411e+18
14489.0	1.5595233450393597e+18
14490.0	1.5592583036141565e+18
14491.0	1.558993312520601e+18
14492.0	1.5587273416376315e+18
14493.0	1.5584514302541821e+18
14494.0	1.558163952658022e+18
14495.0	1.5579044191928315e+18
14496.0	1.5575254000730107e+18
14497.0	1.5573761952579581e+18
14498.0	1.5571176751366141e+18
14499.0	1.5568515163488256e+18
14500.0	1.5565823829606397e+18
14501.0	1.556284184723456e+18
14502.0	1.5558020981325827e+18
14503.0	1.5557587760054272e+18
14504.0	1.5555014973980667e+18
14505.0	1.5552369139908603e+18
14506.0	1.5549427842285565e+18
14507.0	1.5544618032562173e+18
14508.0	1.554428886358425e+18
14509.0	1.5541734448562173e+18
14510.0	1.553904084975616e+18
14511.0	1.5536386341863421e+18
14512.0	1.553359650894643e+18
14513.0	1.5530952973352957e+18
14514.0	1.552795646191206e+18
14515.0	1.5524894871650301e+18
14516.0	1.5492620558008328e+18
14517.0	1.5518216784707581e+18
14518.0	1.5517469896605693e+18
14519.0	1.5514957911162875e+18
14520.0	1.5512367727116288e+18
14521.0	1.5509739005804541e+18
14522.0	1.550707503556198e+18
14523.0	1.550428025336627e+18
14524.0	1.550149585626726e+18
14525.0	1.5498885254348797e+18
14526.0	1.549622646826598e+18
14527.0	1.5493074398478333e+18
14528.0	1.5489529842499581e+18
14529.0	1.5488133625806843e+18
14530.0	1.5485439406243835e+18
14531.0	1.548293983594086e+18
14532.0	1.548020142519091e+18
14533.0	1.5477638906773504e+18
14534.0	1.547500208206643e+18
14535.0	1.5472212869906432e+18
14536.0	1.5469622836854784e+18
14537.0	1.5466888033206267e+18
14538.0	1.5464352341557248e+18
14539.0	1.5461701121998843e+18
14540.0	1.5459038024171515e+18
14541.0	1.5456120919293955e+18
14542.0	1.5453670674006013e+18
14543.0	1.5450827690868733e+18
14544.0	1.5448299901288443e+18
14545.0	1.5445364844789757e+18
14546.0	1.5427930230358006e+18
14547.0	1.5424874361126904e+18
14548.0	1.5437112820105216e+18
14549.0	1.5433741103005693e+18
14550.0	1.5432193253834747e+18
14551.0	1.5429776260988925e+18
14552.0	1.5427120964567035e+18
14553.0	1.542438845939712e+18
14554.0	1.5421846593732605e+18
14555.0	1.541918180140646e+18
14556.0	1.5416495198699515e+18
14557.0	1.5413736118419453e+18
14558.0	1.5410327558553597e+18
14559.0	1.538588818800638e+18
14560.0	1.5404957305929725e+18
14561.0	1.5403055658827776e+18
14562.0	1.54002851364864e+18
14563.0	1.539794546982912e+18
14564.0	1.5395271852687357e+18
14565.0	1.5392706951905277e+18
14566.0	1.539006497659289e+18
14567.0	1.5387389430071293e+18
14568.0	1.5384671068094464e+18
14569.0	1.5381795621044221e+18
14570.0	1.537327762715443e+18
14571.0	1.537658047378227e+18
14572.0	1.537373354799923e+18
14573.0	1.5370958965571584e+18
14574.0	1.5368833778843648e+18
14575.0	1.5366232874156032e+18
14576.0	1.536356982666035e+18
14577.0	1.5360879985950715e+18
14578.0	1.5358320437100541e+18
14579.0	1.5355708123906043e+18
14580.0	1.535294865775001e+18
14581.0	1.535025260947046e+18
14582.0	1.5347631471460355e+18
14583.0	1.5344983657676797e+18
14584.0	1.5342249927770112e+18
14585.0	1.5339696938811392e+18
14586.0	1.5337044561625085e+18
14587.0	1.5334426678394875e+18
14588.0	1.5331794970738685e+18
14589.0	1.53291606458368e+18
14590.0	1.532652259639296e+18
14591.0	1.5323835876245504e+18
14592.0	1.5321038527135741e+18
14593.0	1.531743949553664e+18
14594.0	1.5315855357247488e+18
14595.0	1.5313245124427776e+18
14596.0	1.5310215142440957e+18
14597.0	1.5307522181169147e+18
14598.0	1.5305366661234685e+18
14599.0	1.5302828335562747e+18
14600.0	1.5300205251395581e+18
14601.0	1.5297574751698941e+18
14602.0	1.529489808110387e+18
14603.0	1.52922847444992e+18
14604.0	1.528927226114867e+18
14605.0	1.5286905365069821e+18
14606.0	1.5283339636244477e+18
14607.0	1.5281736791359485e+18
14608.0	1.5279092551122944e+18
14609.0	1.5276463561375741e+18
14610.0	1.527381162039705e+18
14611.0	1.527115840434995e+18
14612.0	1.5268675225387003e+18
14613.0	1.5266061486129147e+18
14614.0	1.5263351831527421e+18
14615.0	1.526075104428032e+18
14616.0	1.5258190774009853e+18
14617.0	1.5255441843945467e+18
14618.0	1.5252787419938813e+18
14619.0	1.524969187259187e+18
14620.0	1.5246691217178621e+18
14621.0	1.5245008495968253e+18
14622.0	1.5242396686090235e+18
14623.0	1.523978677203763e+18
14624.0	1.5236666864173056e+18
14625.0	1.523447963530035e+18
14626.0	1.5231896313135104e+18
14627.0	1.5229290945708032e+18
14628.0	1.522673597703782e+18
14629.0	1.5224120190959613e+18
14630.0	1.522145380479795e+18
14631.0	1.5218815537250301e+18
14632.0	1.5215401189244925e+18
14633.0	1.5213394634211323e+18
14634.0	1.5210999502077947e+18
14635.0	1.5208327394885632e+18
14636.0	1.5205522546360315e+18
14637.0	1.520316788087193e+18
14638.0	1.5200499095568381e+18
14639.0	1.519779096769331e+18
14640.0	1.5195097251446781e+18
14641.0	1.5189786239172603e+18
14642.0	1.5189854354669565e+18
14643.0	1.518742008129126e+18
14644.0	1.5184685982285821e+18
14645.0	1.518185214273126e+18
14646.0	1.5179309438205955e+18
14647.0	1.5176745544056824e+18
14648.0	1.5174195273007101e+18
