# Flux units: erg / (cm m2 s)
# Wavelength units: Angstrom
wave	flux
14000.0	2.334370281449062e+18
14001.0	2.333963420539289e+18
14002.0	2.333515056152576e+18
14003.0	2.3330214704578555e+18
14004.0	2.332531649570406e+18
14005.0	2.332041385764454e+18
14006.0	2.3315465937879035e+18
14007.0	2.331053803333222e+18
14008.0	2.3305071093612544e+18
14009.0	2.330074730305945e+18
14010.0	2.329577908286259e+18
14011.0	2.3287249730797563e+18
14012.0	2.328606532645682e+18
14013.0	2.328121451321753e+18
14014.0	2.3276281843941376e+18
14015.0	2.3271418061914107e+18
14016.0	2.326654042190643e+18
14017.0	2.326165144050073e+18
14018.0	2.3256761033031675e+18
14019.0	2.3251872823377915e+18
14020.0	2.324697932890112e+18
14021.0	2.3242086203523067e+18
14022.0	2.3237185478066176e+18
14023.0	2.3232190665981947e+18
14024.0	2.322731975363788e+18
14025.0	2.322255213861273e+18
14026.0	2.3217666713976827e+18
14027.0	2.321279632172646e+18
14028.0	2.3207908917379067e+18
14029.0	2.3202976600424443e+18
14030.0	2.3189365463187456e+18
14031.0	2.3192520804532214e+18
14032.0	2.3188368829448187e+18
14033.0	2.318320901344461e+18
14034.0	2.3178659787440123e+18
14035.0	2.317380934329958e+18
14036.0	2.3168947742310395e+18
14037.0	2.316408427905024e+18
14038.0	2.3159220731903995e+18
14039.0	2.315432440207769e+18
14040.0	2.314945481513369e+18
14041.0	2.3144616064712704e+18
14042.0	2.313969899824742e+18
14043.0	2.3134668786237435e+18
14044.0	2.3129989587140603e+18
14045.0	2.312517818358169e+18
14046.0	2.312029894973849e+18
14047.0	2.3115409834115067e+18
14048.0	2.3110625005666304e+18
14049.0	2.310578293335654e+18
14050.0	2.3100932875091963e+18
14051.0	2.3096027888222203e+18
14052.0	2.309119660366233e+18
14053.0	2.308638699526553e+18
14054.0	2.308154311101645e+18
14055.0	2.307669842146099e+18
14056.0	2.307185457076633e+18
14057.0	2.306701233068441e+18
14058.0	2.306217101334937e+18
14059.0	2.3057330820087805e+18
14060.0	2.305249139857817e+18
14061.0	2.3047612835823613e+18
14062.0	2.3042812840771581e+18
14063.0	2.3037861951438843e+18
14064.0	2.303180056140185e+18
14065.0	2.302825634096742e+18
14066.0	2.3023481595625467e+18
14067.0	2.301856702896537e+18
14068.0	2.301382155986534e+18
14069.0	2.3008977491066877e+18
14070.0	2.3004159510839288e+18
14071.0	2.299932349510451e+18
14072.0	2.2994516571062264e+18
14073.0	2.2989692500705277e+18
14074.0	2.298486890011033e+18
14075.0	2.2979910863683576e+18
14076.0	2.297511348587724e+18
14077.0	2.2968394563190784e+18
14078.0	2.2965413100912632e+18
14079.0	2.2960690650152955e+18
14080.0	2.2955956639891448e+18
14081.0	2.2951145840312317e+18
14082.0	2.2946315696603133e+18
14083.0	2.2941505299677181e+18
14084.0	2.2936663160258555e+18
14085.0	2.2929391092760573e+18
14086.0	2.2926856760066043e+18
14087.0	2.2922269818879992e+18
14088.0	2.2917376827719677e+18
14089.0	2.2912597619638267e+18
14090.0	2.2907855975743483e+18
14091.0	2.2903072439140352e+18
14092.0	2.2898274306359286e+18
14093.0	2.2893473136902141e+18
14094.0	2.2888668746219515e+18
14095.0	2.288384868561715e+18
14096.0	2.2878756230135805e+18
14097.0	2.2874010979139581e+18
14098.0	2.286932817294131e+18
14099.0	2.2864679827144701e+18
14100.0	2.285983334242713e+18
14101.0	2.2855121998184443e+18
14102.0	2.2850333663297533e+18
14103.0	2.2845463891804155e+18
14104.0	2.2840762748108792e+18
14105.0	2.2835975554072573e+18
14106.0	2.283119272211251e+18
14107.0	2.2826403581919224e+18
14108.0	2.28215355384791e+18
14109.0	2.2816810285924352e+18
14110.0	2.2812030859739136e+18
14111.0	2.2807222845177848e+18
14112.0	2.2802436288675837e+18
14113.0	2.2797674327572477e+18
14114.0	2.2792829017260027e+18
14115.0	2.2788099117416445e+18
14116.0	2.278280260065689e+18
14117.0	2.2763046287966205e+18
14118.0	2.27736269398999e+18
14119.0	2.2768762201571323e+18
14120.0	2.276409639069286e+18
14121.0	2.2759396824055803e+18
14122.0	2.2754679624564733e+18
14123.0	2.274983511955865e+18
14124.0	2.2745017088999421e+18
14125.0	2.273738214709657e+18
14126.0	2.273564021909094e+18
14127.0	2.273097284793139e+18
14128.0	2.2726217278947323e+18
14129.0	2.2721383662354427e+18
14130.0	2.2716551337607165e+18
14131.0	2.2711955756154875e+18
14132.0	2.2707099926528e+18
14133.0	2.2698838070394875e+18
14134.0	2.2697624071045117e+18
14135.0	2.2692779062722555e+18
14136.0	2.268798957020774e+18
14137.0	2.2683373822541821e+18
14138.0	2.2678566076415995e+18
14139.0	2.2673934205845501e+18
14140.0	2.266913491543654e+18
14141.0	2.2664143911780342e+18
14142.0	2.2658823336493056e+18
14143.0	2.265488934777651e+18
14144.0	2.26502423609344e+18
14145.0	2.2645521017470973e+18
14146.0	2.2640780313100283e+18
14147.0	2.263604148777779e+18
14148.0	2.2631290113097728e+18
14149.0	2.2626554592886784e+18
14150.0	2.262186539456921e+18
14151.0	2.261706165819801e+18
14152.0	2.261240715516313e+18
14153.0	2.2607677691527165e+18
14154.0	2.2602755709337595e+18
14155.0	2.2598006935126013e+18
14156.0	2.2593460208926715e+18
14157.0	2.2588770238857213e+18
14158.0	2.2584022269951995e+18
14159.0	2.257932438103654e+18
14160.0	2.2574520359452672e+18
14161.0	2.256949424108339e+18
14162.0	2.2564438007611387e+18
14163.0	2.2560366949040123e+18
14164.0	2.2555263974244347e+18
14165.0	2.2550567645609981e+18
14166.0	2.2546245767659515e+18
14167.0	2.2541471810846715e+18
14168.0	2.2536856516165627e+18
14169.0	2.253217013642035e+18
14170.0	2.2527437669662715e+18
14171.0	2.2522739092881403e+18
14172.0	2.251804705921433e+18
14173.0	2.25130889389015e+18
14174.0	2.25085809009623e+18
14175.0	2.250393720245452e+18
14176.0	2.249923802169344e+18
14177.0	2.2494536877998075e+18
14178.0	2.2489827815456765e+18
14179.0	2.2485088319045627e+18
14180.0	2.2480440409456637e+18
14181.0	2.2475743376179195e+18
14182.0	2.247104132651417e+18
14183.0	2.2466347296358395e+18
14184.0	2.2461608236154877e+18
14185.0	2.2456879628156923e+18
14186.0	2.2449343470501885e+18
14187.0	2.244721719325491e+18
14188.0	2.2442865166647296e+18
14189.0	2.2438174038949883e+18
14190.0	2.2433493816442877e+18
14191.0	2.242879718581862e+18
14192.0	2.2424065943797757e+18
14193.0	2.241899001387417e+18
14194.0	2.2414757558484987e+18
14195.0	2.2410109330128893e+18
14196.0	2.2404661700984827e+18
14197.0	2.2398667856019448e+18
14198.0	2.2393954263629821e+18
14199.0	2.2389278621302781e+18
14200.0	2.2382939031470077e+18
14201.0	2.2379743911346168e+18
14202.0	2.237526223041331e+18
14203.0	2.2370539662213117e+18
14204.0	2.2365898782277627e+18
14205.0	2.2361217788018683e+18
14206.0	2.2355728652042237e+18
14207.0	2.2351875848273915e+18
14208.0	2.2347221362016253e+18
14209.0	2.2341664731299837e+18
14210.0	2.2337223735115773e+18
14211.0	2.2333183412404221e+18
14212.0	2.2328556860211195e+18
14213.0	2.232388871729971e+18
14214.0	2.23184900105175e+18
14215.0	2.2312385150713853e+18
14216.0	2.2307792790487037e+18
14217.0	2.2303127935909885e+18
14218.0	2.229837089053081e+18
14219.0	2.2293799451492347e+18
14220.0	2.2289137683922944e+18
14221.0	2.2284451740385277e+18
14222.0	2.227961767080755e+18
14223.0	2.2275144781135872e+18
14224.0	2.2270459273805821e+18
14225.0	2.2260856733564928e+18
14226.0	2.2261002863116285e+18
14227.0	2.2256479692128253e+18
14228.0	2.2240873005711357e+18
14229.0	2.2244874640162806e+18
14230.0	2.2242549351579643e+18
14231.0	2.22377899238359e+18
14232.0	2.2233275829321723e+18
14233.0	2.2228604079308795e+18
14234.0	2.2222854628048893e+18
14235.0	2.221710385138892e+18
14236.0	2.2212467836846077e+18
14237.0	2.2207808099319803e+18
14238.0	2.2203156783955965e+18
14239.0	2.2198422975021048e+18
14240.0	2.2184401232199677e+18
14241.0	2.2189045350137853e+18
14242.0	2.218450268402483e+18
14243.0	2.2178912582762493e+18
14244.0	2.2175291153580027e+18
14245.0	2.2170572729352187e+18
14246.0	2.216591903162368e+18
14247.0	2.2161350495043576e+18
14248.0	2.2156659988103165e+18
14249.0	2.215210074610073e+18
14250.0	2.2147464748335101e+18
14251.0	2.2142845309681661e+18
14252.0	2.2138208271728637e+18
14253.0	2.213356276128153e+18
14254.0	2.2128902805651456e+18
14255.0	2.2123999395839995e+18
14256.0	2.2114412542296064e+18
14257.0	2.211253126273433e+18
14258.0	2.2108051813171195e+18
14259.0	2.2103308642549755e+18
14260.0	2.2098650482081792e+18
14261.0	2.2094011850293243e+18
14262.0	2.208966948736204e+18
14263.0	2.2077497382273027e+18
14264.0	2.207788211739033e+18
14265.0	2.2075796860436475e+18
14266.0	2.2071306572791803e+18
14267.0	2.2066706176278523e+18
14268.0	2.2062091334582267e+18
14269.0	2.2057428845592573e+18
14270.0	2.205284297814835e+18
14271.0	2.2048202651860987e+18
14272.0	2.2043536186671101e+18
14273.0	2.203862344872755e+18
14274.0	2.2021867271356416e+18
14275.0	2.2027873179140096e+18
14276.0	2.2024899702816763e+18
14277.0	2.2020412250521592e+18
14278.0	2.2015912601190392e+18
14279.0	2.2011304822702077e+18
14280.0	2.2006667365318648e+18
14281.0	2.2002107183792128e+18
14282.0	2.1996337750867963e+18
14283.0	2.1990513255120893e+18
14284.0	2.1985900678348795e+18
14285.0	2.1981286558072827e+18
14286.0	2.197667114595123e+18
14287.0	2.197205841818419e+18
14288.0	2.196740025771622e+18
14289.0	2.1956746121576433e+18
14290.0	2.1958183325007872e+18
14291.0	2.1953620543012861e+18
14292.0	2.1949025615871995e+18
14293.0	2.1944397302071293e+18
14294.0	2.1938900129808381e+18
14295.0	2.1935044473913336e+18
14296.0	2.1925703272366077e+18
14297.0	2.1925845861924861e+18
14298.0	2.1919178092969981e+18
14299.0	2.1916634063044605e+18
14300.0	2.1912144110944248e+18
14301.0	2.190757681587814e+18
14302.0	2.190300208850534e+18
14303.0	2.1898145151582203e+18
14304.0	2.189369742773452e+18
14305.0	2.1889190648086523e+18
14306.0	2.1884453785698301e+18
14307.0	2.1879884712247293e+18
14308.0	2.1875354394165245e+18
14309.0	2.187069490829721e+18
14310.0	2.186379393603993e+18
14311.0	2.185875263429017e+18
14312.0	2.1854166062202877e+18
14313.0	2.184951251546931e+18
14314.0	2.1845327355052027e+18
14315.0	2.1840799369003008e+18
14316.0	2.1835902871404544e+18
14317.0	2.1831490446819323e+18
14318.0	2.1827097198591995e+18
14319.0	2.182254362728857e+18
14320.0	2.181796671887769e+18
14321.0	2.1813390850654205e+18
14322.0	2.1808555405344765e+18
14323.0	2.1804084898037755e+18
14324.0	2.179966109850009e+18
14325.0	2.1795005605609467e+18
14326.0	2.1790512063184893e+18
14327.0	2.1785883850047485e+18
14328.0	2.1781319474216957e+18
14329.0	2.1776787746848765e+18
14330.0	2.177221437843046e+18
14331.0	2.176763981882982e+18
14332.0	2.1763069084434424e+18
14333.0	2.1758497527955453e+18
14334.0	2.1753925384273915e+18
14335.0	2.1749270445031421e+18
14336.0	2.1744220352020477e+18
14337.0	2.174018871990681e+18
14338.0	2.1735628756484093e+18
14339.0	2.173099195341209e+18
14340.0	2.1726509114851325e+18
14341.0	2.172192987440742e+18
14342.0	2.171533495212441e+18
14343.0	2.171006534601932e+18
14344.0	2.1705470016225277e+18
14345.0	2.170093968136601e+18
14346.0	2.1696343865032701e+18
14347.0	2.1691663944515584e+18
14348.0	2.1687210801627133e+18
14349.0	2.168266719599001e+18
14350.0	2.1677658408484861e+18
14351.0	2.167305569671577e+18
14352.0	2.1668926471536632e+18
14353.0	2.1664425362587643e+18
14354.0	2.1659816896233467e+18
14355.0	2.165515521255014e+18
14356.0	2.1650625464893437e+18
14357.0	2.1646202302889984e+18
14358.0	2.1641650761629693e+18
14359.0	2.1636968441970685e+18
14360.0	2.163250390735257e+18
14361.0	2.1627963975925757e+18
14362.0	2.1623427852926973e+18
14363.0	2.16188558770176e+18
14364.0	2.161294293178777e+18
14365.0	2.1609305111265277e+18
14366.0	2.160497868668928e+18
14367.0	2.1600677646041085e+18
14368.0	2.1596130903064573e+18
14369.0	2.1591588404723712e+18
14370.0	2.1587043993780224e+18
14371.0	2.1582501059231744e+18
14372.0	2.1577917070835704e+18
14373.0	2.1573409955643387e+18
14374.0	2.1568868883365883e+18
14375.0	2.1564326468911101e+18
14376.0	2.155978467521331e+18
14377.0	2.15552396099584e+18
14378.0	2.1550508200165373e+18
14379.0	2.154361851897446e+18
14380.0	2.1539065601982461e+18
14381.0	2.153443847936409e+18
14382.0	2.152997313943961e+18
14383.0	2.1525415860371453e+18
14384.0	2.1520751492333565e+18
14385.0	2.1516358646759421e+18
14386.0	2.1511698858901507e+18
14387.0	2.1507274639933432e+18
14388.0	2.1502725900468221e+18
14389.0	2.149819306580377e+18
14390.0	2.1493646004060155e+18
14391.0	2.1489121222459387e+18
14392.0	2.1484577147060221e+18
14393.0	2.148004889257574e+18
14394.0	2.1475222238527483e+18
14395.0	2.1470881234550784e+18
14396.0	2.146644013770342e+18
14397.0	2.146190924919603e+18
14398.0	2.1457370123075576e+18
14399.0	2.1452835224813565e+18
14400.0	2.1448178725289976e+18
14401.0	2.1443698101321725e+18
14402.0	2.1439126645506043e+18
14403.0	2.1427429083971574e+18
14404.0	2.1403005534339057e+18
14405.0	2.141523699721828e+18
14406.0	2.1420934707544061e+18
14407.0	2.1407228661596157e+18
14408.0	2.1411691870814203e+18
14409.0	2.1407413546516477e+18
14410.0	2.140293158037094e+18
14411.0	2.1398510398078973e+18
14412.0	2.1393984005865467e+18
14413.0	2.1389487963635712e+18
14414.0	2.1384950045474808e+18
14415.0	2.1380436001292288e+18
14416.0	2.1375891825229821e+18
14417.0	2.1371270926958592e+18
14418.0	2.1366728764162045e+18
14419.0	2.1361794920480763e+18
14420.0	2.1354952483930104e+18
14421.0	2.1350436694917115e+18
14422.0	2.1345805411549184e+18
14423.0	2.134075879142195e+18
14424.0	2.129833174551755e+18
14425.0	2.133169538701721e+18
14426.0	2.1327766985113595e+18
14427.0	2.132332523395481e+18
14428.0	2.1318654507352061e+18
14429.0	2.1314285753860093e+18
14430.0	2.1309746711625725e+18
14431.0	2.1302919928217595e+18
14432.0	2.130062163417497e+18
14433.0	2.128913212689612e+18
14434.0	2.1291517377249277e+18
14435.0	2.1286944830914555e+18
14436.0	2.128269338371686e+18
14437.0	2.1278205813981176e+18
14438.0	2.1273337133006843e+18
14439.0	2.126909591991091e+18
14440.0	2.1264684334186496e+18
14441.0	2.126014405043814e+18
14442.0	2.1255607306682365e+18
14443.0	2.125083479271014e+18
14444.0	2.1246606347075581e+18
14445.0	2.124207243866931e+18
14446.0	2.1226375088177152e+18
14447.0	2.1232801500102653e+18
14448.0	2.1228612464148477e+18
14449.0	2.122412719289139e+18
14450.0	2.1219579711717373e+18
14451.0	2.1215109456068603e+18
14452.0	2.1210587040055293e+18
14453.0	2.1206006507765755e+18
14454.0	2.120159352953241e+18
14455.0	2.1197026637119488e+18
14456.0	2.1192553177022456e+18
14457.0	2.1188030928781304e+18
14458.0	2.1183529954050045e+18
14459.0	2.1178992337879037e+18
14460.0	2.117444205490995e+18
14461.0	2.1169713950228477e+18
14462.0	2.116511727825715e+18
14463.0	2.1160850278580221e+18
14464.0	2.1156493235585021e+18
14465.0	2.1151918743093245e+18
14466.0	2.114756017337139e+18
14467.0	2.114290256655155e+18
14468.0	2.1138569850519547e+18
14469.0	2.113180777683353e+18
14470.0	2.1126859236311037e+18
14471.0	2.1122533885476861e+18
14472.0	2.1118062237319165e+18
14473.0	2.111360471557734e+18
14474.0	2.1109131708465147e+18
14475.0	2.1104606188666877e+18
14476.0	2.109970457401753e+18
14477.0	2.109563975657062e+18
14478.0	2.1091137758429176e+18
14479.0	2.1086659969810427e+18
14480.0	2.108203871921766e+18
14481.0	2.1077683974701053e+18
14482.0	2.1073158740115448e+18
14483.0	2.1068625519575037e+18
14484.0	2.1064092332589053e+18
14485.0	2.10594023121879e+18
14486.0	2.10531231203328e+18
14487.0	2.1050692252729344e+18
14488.0	2.1046034008375293e+18
14489.0	2.1041525685223424e+18
14490.0	2.103719820368281e+18
14491.0	2.1032765193453565e+18
14492.0	2.102828963620454e+18
14493.0	2.1023724085968893e+18
14494.0	2.101914600315289e+18
14495.0	2.101478479940812e+18
14496.0	2.1009389901053947e+18
14497.0	2.100582667203379e+18
14498.0	2.1001361315332093e+18
14499.0	2.0996876446728187e+18
14500.0	2.0992382233214973e+18
14501.0	2.098762423153459e+18
14502.0	2.0981846678437888e+18
14503.0	2.0978759217709053e+18
14504.0	2.0974392041275387e+18
14505.0	2.096970784256819e+18
14506.0	2.0965017520177147e+18
14507.0	2.0959269327208445e+18
14508.0	2.0956500281262075e+18
14509.0	2.095204286018355e+18
14510.0	2.0947544905351163e+18
14511.0	2.0943076209983483e+18
14512.0	2.093849378186854e+18
14513.0	2.0934103519985661e+18
14514.0	2.0929398131654648e+18
14515.0	2.0925068687179773e+18
14516.0	2.090538923091559e+18
14517.0	2.0915951193030648e+18
14518.0	2.0911703017390075e+18
14519.0	2.0907246435172347e+18
14520.0	2.0902773461614587e+18
14521.0	2.0898293374517243e+18
14522.0	2.089377808882073e+18
14523.0	2.0888683334860797e+18
14524.0	2.0884320168181752e+18
14525.0	2.0878701226885115e+18
14526.0	2.0873388469780477e+18
14527.0	2.0868721048289275e+18
14528.0	2.0863576029790203e+18
14529.0	2.0859854339964925e+18
14530.0	2.0855325280174077e+18
14531.0	2.0850943641780221e+18
14532.0	2.0845874087198715e+18
14533.0	2.0841978367311864e+18
14534.0	2.083753352914534e+18
14535.0	2.083296383493734e+18
14536.0	2.0828535304224765e+18
14537.0	2.0824004080173056e+18
14538.0	2.0819608600575997e+18
14539.0	2.081512945300275e+18
14540.0	2.0810646647996408e+18
14541.0	2.0805973337702397e+18
14542.0	2.0801646174928893e+18
14543.0	2.0796794086621181e+18
14544.0	2.0792656456056827e+18
14545.0	2.0788016062660605e+18
14546.0	2.0741788306243558e+18
14547.0	2.0740418916319199e+18
14548.0	2.0774502182944763e+18
14549.0	2.0769421236633597e+18
14550.0	2.076576571614822e+18
14551.0	2.0761372954460155e+18
14552.0	2.075689640735539e+18
14553.0	2.0752389241831421e+18
14554.0	2.07479576241111e+18
14555.0	2.0743478023553021e+18
14556.0	2.073899006794137e+18
14557.0	2.0734511306244093e+18
14558.0	2.0729942618669053e+18
14559.0	2.0714253572898793e+18
14560.0	2.0720949208809467e+18
14561.0	2.0716549383913467e+18
14562.0	2.0711915617517565e+18
14563.0	2.070760226239283e+18
14564.0	2.0703038675091453e+18
14565.0	2.0698706412044283e+18
14566.0	2.069423890785894e+18
14567.0	2.0689740214829053e+18
14568.0	2.0685156712972283e+18
14569.0	2.068075217367859e+18
14570.0	2.067314368944537e+18
14571.0	2.0671797284306936e+18
14572.0	2.0667072300187645e+18
14573.0	2.066247936953548e+18
14574.0	2.065813833200435e+18
14575.0	2.065383311382937e+18
14576.0	2.06493453427671e+18
14577.0	2.064495831888691e+18
14578.0	2.064053797545574e+18
14579.0	2.0636081762336765e+18
14580.0	2.0631611154366461e+18
14581.0	2.062709385540403e+18
14582.0	2.0622611520159736e+18
14583.0	2.0618184163852283e+18
14584.0	2.061356804708761e+18
14585.0	2.0609226539794427e+18
14586.0	2.0604743298580477e+18
14587.0	2.0600284166225915e+18
14588.0	2.0595816343273467e+18
14589.0	2.0591391771983867e+18
14590.0	2.0584939070160893e+18
14591.0	2.0580076680642555e+18
14592.0	2.0575588456595448e+18
14593.0	2.057039580758016e+18
14594.0	2.056677471394201e+18
14595.0	2.05623105987543e+18
14596.0	2.0556683788943352e+18
14597.0	2.0552013012008955e+18
14598.0	2.054889454698496e+18
14599.0	2.0544620450545661e+18
14600.0	2.0540176098918392e+18
14601.0	2.0535746108588027e+18
14602.0	2.053129523062374e+18
14603.0	2.0526861767409664e+18
14604.0	2.0522118009585661e+18
14605.0	2.0517846563946493e+18
14606.0	2.051308977022566e+18
14607.0	2.0509088420986877e+18
14608.0	2.0504696816926715e+18
14609.0	2.0500222064984056e+18
14610.0	2.0495752228765693e+18
14611.0	2.049135057515315e+18
14612.0	2.0486978030010365e+18
14613.0	2.0482564733009917e+18
14614.0	2.0478116975607803e+18
14615.0	2.0473700138614776e+18
14616.0	2.046927749670502e+18
14617.0	2.0464834738913277e+18
14618.0	2.046028418750873e+18
14619.0	2.0454597617254392e+18
14620.0	2.0448233549463547e+18
14621.0	2.0447051493933053e+18
14622.0	2.044263472404889e+18
14623.0	2.0438225285808125e+18
14624.0	2.043338376714649e+18
14625.0	2.042931869804134e+18
14626.0	2.0424909914111997e+18
14627.0	2.042045059720806e+18
14628.0	2.0416048792600573e+18
14629.0	2.0411500069912573e+18
14630.0	2.0406845415882747e+18
14631.0	2.04024073724887e+18
14632.0	2.0394991423586307e+18
14633.0	2.039296661494169e+18
14634.0	2.0389041753030653e+18
14635.0	2.0384392014725115e+18
14636.0	2.0379478572138493e+18
14637.0	2.037576233490841e+18
14638.0	2.0371233375780861e+18
14639.0	2.0366713728008187e+18
14640.0	2.0362238405640184e+18
14641.0	2.0346059666489334e+18
14642.0	2.0353315795632125e+18
14643.0	2.0349025643397117e+18
14644.0	2.034448764135014e+18
14645.0	2.0339986498846717e+18
14646.0	2.0335537298604027e+18
14647.0	2.0331010134638587e+18
14648.0	2.0326681512247296e+18
