# Flux units: erg / (cm m2 s)
# Wavelength units: Angstrom
wave	flux
14000.0	1.600021106733875e+18
14001.0	1.5995948446515197e+18
14002.0	1.5993860068999163e+18
14003.0	1.5990672632840192e+18
14004.0	1.5987484273934333e+18
14005.0	1.5984294790955005e+18
14006.0	1.5981042494078968e+18
14007.0	1.5977849437552637e+18
14008.0	1.5973960965423104e+18
14009.0	1.597154227807846e+18
14010.0	1.5968259798990843e+18
14011.0	1.5960007572979712e+18
14012.0	1.5961986378498043e+18
14013.0	1.5958803656736765e+18
14014.0	1.5955577750421504e+18
14015.0	1.5952419489841147e+18
14016.0	1.5949256917516285e+18
14017.0	1.594607610835763e+18
14018.0	1.5942893587922944e+18
14019.0	1.5939716721410043e+18
14020.0	1.5936532170932221e+18
14021.0	1.5933349700829181e+18
14022.0	1.593017634075443e+18
14023.0	1.5926915621715965e+18
14024.0	1.5923722732961792e+18
14025.0	1.5920654868021248e+18
14026.0	1.591746659300147e+18
14027.0	1.5914308533747712e+18
14028.0	1.5911090529501184e+18
14029.0	1.590793822483251e+18
14030.0	1.5903041240694781e+18
14031.0	1.5901489381769213e+18
14032.0	1.589844596123238e+18
14033.0	1.5894973312401405e+18
14034.0	1.589211418958233e+18
14035.0	1.588894784238387e+18
14036.0	1.5885781159641085e+18
14037.0	1.5882615131209725e+18
14038.0	1.5879449807421437e+18
14039.0	1.5876254737629181e+18
14040.0	1.5873036028739581e+18
14041.0	1.586992650597171e+18
14042.0	1.5866709206368253e+18
14043.0	1.5863289338658813e+18
14044.0	1.5860369515872253e+18
14045.0	1.5857282592014328e+18
14046.0	1.585412220072755e+18
14047.0	1.5850932784857085e+18
14048.0	1.5847825325686781e+18
14049.0	1.5844679983562755e+18
14050.0	1.5841523501367296e+18
14051.0	1.5838298702348285e+18
14052.0	1.5835185606033405e+18
14053.0	1.5832056873353216e+18
14054.0	1.5828904820342781e+18
14055.0	1.5825747448954877e+18
14056.0	1.5822599539916795e+18
14057.0	1.5819448493539323e+18
14058.0	1.581629776592896e+18
14059.0	1.5813147927511035e+18
14060.0	1.580999870985011e+18
14061.0	1.5806792634204157e+18
14062.0	1.5803702539452416e+18
14063.0	1.580043618326937e+18
14064.0	1.5797071697149947e+18
14065.0	1.5794145683570685e+18
14066.0	1.5791070503763963e+18
14067.0	1.5787902965383165e+18
14068.0	1.578478334273126e+18
14069.0	1.5781631658819581e+18
14070.0	1.5778497892974587e+18
14071.0	1.577533313961164e+18
14072.0	1.577221603354214e+18
14073.0	1.5769075472924672e+18
14074.0	1.5765936371924992e+18
14075.0	1.576267035128627e+18
14076.0	1.5759630755954688e+18
14077.0	1.5756121079807997e+18
14078.0	1.575335983526707e+18
14079.0	1.5750175486115837e+18
14080.0	1.574711684864409e+18
14081.0	1.5743981975502848e+18
14082.0	1.5740784909221888e+18
14083.0	1.5737657971703803e+18
14084.0	1.5734537040429053e+18
14085.0	1.5729431364501504e+18
14086.0	1.5728245433434107e+18
14087.0	1.5725145691783163e+18
14088.0	1.5721933022691325e+18
14089.0	1.5718864536993787e+18
14090.0	1.5715738790658048e+18
14091.0	1.571263361318912e+18
14092.0	1.570950732998246e+18
14093.0	1.570638116421632e+18
14094.0	1.5703257045270525e+18
14095.0	1.5700132993433597e+18
14096.0	1.5696919670030333e+18
14097.0	1.5693784360681472e+18
14098.0	1.5690728374009853e+18
14099.0	1.5687643564081147e+18
14100.0	1.5684423328464888e+18
14101.0	1.5681403714797565e+18
14102.0	1.567824266919936e+18
14103.0	1.5674991714500605e+18
14104.0	1.567197996934758e+18
14105.0	1.566887846608896e+18
14106.0	1.5665766980386813e+18
14107.0	1.566263334875955e+18
14108.0	1.5659453445570557e+18
14109.0	1.5656385295417341e+18
14110.0	1.565324748626329e+18
14111.0	1.565003050542694e+18
14112.0	1.5647027752861693e+18
14113.0	1.5643972839931901e+18
14114.0	1.5640766143528957e+18
14115.0	1.5637741228261376e+18
14116.0	1.5634436519362557e+18
14117.0	1.5628585834381312e+18
14118.0	1.5628423883915264e+18
14119.0	1.5625243427078141e+18
14120.0	1.5622175109152768e+18
14121.0	1.561901320791654e+18
14122.0	1.561592051269632e+18
14123.0	1.5612844779241467e+18
14124.0	1.5609731615817725e+18
14125.0	1.5603029134802941e+18
14126.0	1.5603544665096187e+18
14127.0	1.5600443749040125e+18
14128.0	1.5597331877462013e+18
14129.0	1.5594155933695995e+18
14130.0	1.5590987908775933e+18
14131.0	1.5588045151535104e+18
14132.0	1.5584907459821563e+18
14133.0	1.557761366582885e+18
14134.0	1.5578751211405312e+18
14135.0	1.557555946350182e+18
14136.0	1.5572445712875515e+18
14137.0	1.5569465542443005e+18
14138.0	1.5566338453929981e+18
14139.0	1.5563277769637885e+18
14140.0	1.5560082867617792e+18
14141.0	1.555709291606835e+18
14142.0	1.5553744905175037e+18
14143.0	1.55508312899584e+18
14144.0	1.554782743009689e+18
14145.0	1.5544725222195197e+18
14146.0	1.5541637090377725e+18
14147.0	1.5538557229727744e+18
14148.0	1.5535467722178557e+18
14149.0	1.5532380445999104e+18
14150.0	1.552926028647628e+18
14151.0	1.5526155712987133e+18
14152.0	1.552307786560307e+18
14153.0	1.5520007551188987e+18
14154.0	1.5516739517284347e+18
14155.0	1.551318643847987e+18
14156.0	1.5510716983279613e+18
14157.0	1.5507681632583677e+18
14158.0	1.5504569878446075e+18
14159.0	1.5501516743901181e+18
14160.0	1.54984217837568e+18
14161.0	1.5494878586732544e+18
14162.0	1.5491467845828603e+18
14163.0	1.5489201076174848e+18
14164.0	1.5485973005598715e+18
14165.0	1.5481935786672128e+18
14166.0	1.547997946262323e+18
14167.0	1.5476811504812024e+18
14168.0	1.547381081584435e+18
14169.0	1.547077182449254e+18
14170.0	1.5467673190137853e+18
14171.0	1.5464605442637821e+18
14172.0	1.5461560042389496e+18
14173.0	1.5457895780974587e+18
14174.0	1.5455395774463997e+18
14175.0	1.5452354786623488e+18
14176.0	1.5449284891639803e+18
14177.0	1.5446196793376768e+18
14178.0	1.544309698461696e+18
14179.0	1.5439920436871165e+18
14180.0	1.5436980431093752e+18
14181.0	1.5433916760457213e+18
14182.0	1.543084705002291e+18
14183.0	1.5427791382118397e+18
14184.0	1.5424690113740797e+18
14185.0	1.5421668688134141e+18
14186.0	1.5417941780594685e+18
14187.0	1.5415362048753664e+18
14188.0	1.5412459321950205e+18
14189.0	1.5409415834304512e+18
14190.0	1.5406367917473787e+18
14191.0	1.540331119260467e+18
14192.0	1.5400196401790976e+18
14193.0	1.5397120215351293e+18
14194.0	1.5394139390607357e+18
14195.0	1.539109714447565e+18
14196.0	1.538804104036352e+18
14197.0	1.5384976933519357e+18
14198.0	1.538189302956032e+18
14199.0	1.537886415486976e+18
14200.0	1.5375500507611139e+18
14201.0	1.5372780652462077e+18
14202.0	1.5369724883894272e+18
14203.0	1.5366546792644603e+18
14204.0	1.5363617272627197e+18
14205.0	1.5360571402616832e+18
14206.0	1.5356568140775421e+18
14207.0	1.5354499359047677e+18
14208.0	1.5351456576045053e+18
14209.0	1.534729518894284e+18
14210.0	1.5344637828923384e+18
14211.0	1.534222563436134e+18
14212.0	1.5339229458464765e+18
14213.0	1.533619033289523e+18
14214.0	1.5333146492927995e+18
14215.0	1.5330002073550848e+18
14216.0	1.532707535532851e+18
14217.0	1.5324035525115901e+18
14218.0	1.5320910852521981e+18
14219.0	1.5317959102693373e+18
14220.0	1.5314923584225277e+18
14221.0	1.5311877076680701e+18
14222.0	1.5308752555081725e+18
14223.0	1.5305814596124672e+18
14224.0	1.5302782282104824e+18
14225.0	1.5298717112336381e+18
14226.0	1.5296715372363776e+18
14227.0	1.5293683997868032e+18
14228.0	1.528775732887552e+18
14229.0	1.5287225105252347e+18
14230.0	1.5284591602434043e+18
14231.0	1.5281521321574397e+18
14232.0	1.5278532896751613e+18
14233.0	1.527545605600051e+18
14234.0	1.5272477831725053e+18
14235.0	1.5269430720200701e+18
14236.0	1.526642348811878e+18
14237.0	1.526338879173427e+18
14238.0	1.5260371442991101e+18
14239.0	1.5257305910083581e+18
14240.0	1.524105690795213e+18
14241.0	1.5251301562580987e+18
14242.0	1.5248282603225085e+18
14243.0	1.5244049862623232e+18
14244.0	1.5242240926416893e+18
14245.0	1.523904763500953e+18
14246.0	1.5235926871506944e+18
14247.0	1.5233101571555328e+18
14248.0	1.522997872767795e+18
14249.0	1.5227067058618368e+18
14250.0	1.522406640320512e+18
14251.0	1.522107010986803e+18
14252.0	1.5218053834866688e+18
14253.0	1.5215033969541115e+18
14254.0	1.5212005564612603e+18
14255.0	1.520873904065741e+18
14256.0	1.5204994533818365e+18
14257.0	1.520292622185267e+18
14258.0	1.5199976468512765e+18
14259.0	1.5195554246033405e+18
14260.0	1.519215009857536e+18
14261.0	1.5189064701444093e+18
14262.0	1.5186339024601085e+18
14263.0	1.5181826037383168e+18
14264.0	1.518004922954547e+18
14265.0	1.5177280754024443e+18
14266.0	1.5174296842272765e+18
14267.0	1.517130803157401e+18
14268.0	1.5168304456925181e+18
14269.0	1.516523238090342e+18
14270.0	1.5162298079379453e+18
14271.0	1.5159279002583037e+18
14272.0	1.5156294100975616e+18
14273.0	1.5153287942635515e+18
14274.0	1.5148071570636797e+18
14275.0	1.5147097837797376e+18
14276.0	1.514413100525158e+18
14277.0	1.5141131977228285e+18
14278.0	1.5138296963268605e+18
14279.0	1.5135295502548992e+18
14280.0	1.5132241797578755e+18
14281.0	1.5129306120323067e+18
14282.0	1.512631373607731e+18
14283.0	1.5123319489560573e+18
14284.0	1.512032593090969e+18
14285.0	1.5117332674248701e+18
14286.0	1.511429079721574e+18
14287.0	1.5111304435990525e+18
14288.0	1.5108312521506813e+18
14289.0	1.5096849757110252e+18
14290.0	1.5102309667176448e+18
14291.0	1.5099335771422715e+18
14292.0	1.5096338588893181e+18
14293.0	1.509334924132352e+18
14294.0	1.5089299808583677e+18
14295.0	1.5087299108798464e+18
14296.0	1.5077566025039875e+18
14297.0	1.5081422301691904e+18
14298.0	1.5077154798698493e+18
14299.0	1.5075338782507003e+18
14300.0	1.5072396780240893e+18
14301.0	1.506945058367078e+18
14302.0	1.506646935627366e+18
14303.0	1.5063262525652992e+18
14304.0	1.5060400550707197e+18
14305.0	1.5057544280014843e+18
14306.0	1.50543225847808e+18
14307.0	1.5051534597357565e+18
14308.0	1.504862927008563e+18
14309.0	1.5045640878817277e+18
14310.0	1.5041533279469563e+18
14311.0	1.5039153213276157e+18
14312.0	1.5036468741275643e+18
14313.0	1.5032660262912e+18
14314.0	1.503076426973184e+18
14315.0	1.502780055774822e+18
14316.0	1.502442218009395e+18
14317.0	1.5021779869237243e+18
14318.0	1.5018885900140541e+18
14319.0	1.5015918664941565e+18
14320.0	1.5012944332980227e+18
14321.0	1.5009957116116987e+18
14322.0	1.5006676599963643e+18
14323.0	1.500391986849382e+18
14324.0	1.5001075660619776e+18
14325.0	1.4998040360255485e+18
14326.0	1.4995142901497853e+18
14327.0	1.4992128656539643e+18
14328.0	1.498915910608486e+18
14329.0	1.498624822555443e+18
14330.0	1.4983284899446781e+18
14331.0	1.4980319157420032e+18
14332.0	1.4977359136423936e+18
14333.0	1.4974398008131581e+18
14334.0	1.4971434967236605e+18
14335.0	1.4968278887694336e+18
14336.0	1.4965319990771707e+18
14337.0	1.4962491217936381e+18
14338.0	1.4959532170018813e+18
14339.0	1.495651342876672e+18
14340.0	1.4953639676215293e+18
14341.0	1.495067495759872e+18
14342.0	1.4947708057944064e+18
14343.0	1.494471564014387e+18
14344.0	1.4941765165383675e+18
14345.0	1.4938864552509437e+18
14346.0	1.493589208281907e+18
14347.0	1.4932848293183483e+18
14348.0	1.4930005326823421e+18
14349.0	1.4927054986280957e+18
14350.0	1.4924025172066304e+18
14351.0	1.4921027201007613e+18
14352.0	1.4918125833158656e+18
14353.0	1.4915238088409085e+18
14354.0	1.4912288335069184e+18
14355.0	1.4909329706582013e+18
14356.0	1.4906392754257915e+18
14357.0	1.4903466690347003e+18
14358.0	1.4900520695103488e+18
14359.0	1.489746771155353e+18
14360.0	1.4894621003874304e+18
14361.0	1.4891685527945213e+18
14362.0	1.488874458264371e+18
14363.0	1.488579974502809e+18
14364.0	1.4882600464154621e+18
14365.0	1.4879884383879165e+18
14366.0	1.4876917501001725e+18
14367.0	1.4874038547513341e+18
14368.0	1.4871095219847165e+18
14369.0	1.4868160700219387e+18
14370.0	1.4865222573490173e+18
14371.0	1.4862285520502781e+18
14372.0	1.4859306423812093e+18
14373.0	1.4856410340786176e+18
14374.0	1.4853472868368381e+18
14375.0	1.485051979313971e+18
14376.0	1.4847607603986432e+18
14377.0	1.4844668789391357e+18
14378.0	1.4841719237378045e+18
14379.0	1.4838808423956477e+18
14380.0	1.4835872377602045e+18
14381.0	1.483285355246387e+18
14382.0	1.4830002734366715e+18
14383.0	1.4827004410986499e+18
14384.0	1.4824014341996541e+18
14385.0	1.482122689144422e+18
14386.0	1.4818167968759805e+18
14387.0	1.4815368639938557e+18
14388.0	1.481242662089523e+18
14389.0	1.4809516092686336e+18
14390.0	1.480655479662182e+18
14391.0	1.4803620478320637e+18
14392.0	1.4800664735514621e+18
14393.0	1.4797775648587773e+18
14394.0	1.479456539541504e+18
14395.0	1.4791844432969725e+18
14396.0	1.478900730508083e+18
14397.0	1.4786086525992957e+18
14398.0	1.4783153465982976e+18
14399.0	1.4780245236252672e+18
14400.0	1.4777162137599997e+18
14401.0	1.4774359721771005e+18
14402.0	1.477148232856371e+18
14403.0	1.4748137956573143e+18
14404.0	1.4698494946181094e+18
14405.0	1.474977368480149e+18
14406.0	1.4759817331605504e+18
14407.0	1.4725872896442378e+18
14408.0	1.4753903983722493e+18
14409.0	1.4750909921755136e+18
14410.0	1.4748138325671936e+18
14411.0	1.4745242645299197e+18
14412.0	1.4742307555246075e+18
14413.0	1.4739428400431101e+18
14414.0	1.4736497102028797e+18
14415.0	1.4733596069724157e+18
14416.0	1.473068916539392e+18
14417.0	1.4727723440144384e+18
14418.0	1.4724718993080315e+18
14419.0	1.472195529906585e+18
14420.0	1.4719017860202493e+18
14421.0	1.471614860394496e+18
14422.0	1.4713217708195837e+18
14423.0	1.4710284966952957e+18
14424.0	1.4584536780242857e+18
14425.0	1.4704497213308928e+18
14426.0	1.4701628326150141e+18
14427.0	1.4698718989123581e+18
14428.0	1.4695642349699067e+18
14429.0	1.4692897077067773e+18
14430.0	1.4690024213708797e+18
14431.0	1.468667123675955e+18
14432.0	1.4684138078470141e+18
14433.0	1.4657937838440428e+18
14434.0	1.4678295731765248e+18
14435.0	1.4675385086115837e+18
14436.0	1.4672626223939581e+18
14437.0	1.4669730812002301e+18
14438.0	1.4666252727353344e+18
14439.0	1.466380993114931e+18
14440.0	1.4661036808339453e+18
14441.0	1.4658068214185981e+18
14442.0	1.4655111733182464e+18
14443.0	1.465188683350016e+18
14444.0	1.4649426605768701e+18
14445.0	1.464657410994995e+18
14446.0	1.4614592927825935e+18
14447.0	1.4640717804601341e+18
14448.0	1.463790339306291e+18
14449.0	1.463501388670566e+18
14450.0	1.4632079736176635e+18
14451.0	1.4629206688268285e+18
14452.0	1.4626335083200507e+18
14453.0	1.4623080034861053e+18
14454.0	1.462056048289382e+18
14455.0	1.4617569407270907e+18
14456.0	1.4614675840827392e+18
14457.0	1.461174637114163e+18
14458.0	1.4608969876111357e+18
14459.0	1.46060634750976e+18
14460.0	1.4603204822040576e+18
14461.0	1.4600195811573757e+18
14462.0	1.4597013794455547e+18
14463.0	1.459453913831833e+18
14464.0	1.4591686608945147e+18
14465.0	1.4588592286334976e+18
14466.0	1.4585901774536696e+18
14467.0	1.4582654225612797e+18
14468.0	1.4580115144966141e+18
14469.0	1.4577110362357757e+18
14470.0	1.457414485521203e+18
14471.0	1.4571415688708093e+18
14472.0	1.4568591043067901e+18
14473.0	1.456575921677926e+18
14474.0	1.4562897107615741e+18
14475.0	1.4559986831065085e+18
14476.0	1.4555624234811392e+18
14477.0	1.4554279993933821e+18
14478.0	1.4551381125890045e+18
14479.0	1.4548492559056893e+18
14480.0	1.4545519401500672e+18
14481.0	1.4542792952905725e+18
14482.0	1.4539894823059453e+18
14483.0	1.4536960857079803e+18
14484.0	1.4534122521231357e+18
14485.0	1.453097103864627e+18
14486.0	1.452594924879872e+18
14487.0	1.452557229830963e+18
14488.0	1.4522661887541245e+18
14489.0	1.451979875496755e+18
14490.0	1.4516940353568765e+18
14491.0	1.4514094954512381e+18
14492.0	1.451123985822515e+18
14493.0	1.4508323994861565e+18
14494.0	1.4505346542338045e+18
14495.0	1.4502648145248253e+18
14496.0	1.4498660821762045e+18
14497.0	1.449691401158656e+18
14498.0	1.449405386535731e+18
14499.0	1.449119787987763e+18
14500.0	1.4488334025883645e+18
14501.0	1.4484827805843453e+18
14502.0	1.4480184342216704e+18
14503.0	1.4479599421358077e+18
14504.0	1.4476852202569725e+18
14505.0	1.447347714680422e+18
14506.0	1.4469871068774397e+18
14507.0	1.4466272372719616e+18
14508.0	1.4465466395262973e+18
14509.0	1.4462610057461757e+18
14510.0	1.4459724107874301e+18
14511.0	1.4456897885175803e+18
14512.0	1.4453914124419072e+18
14513.0	1.4451188950892541e+18
14514.0	1.4447993780436992e+18
14515.0	1.4445466477395965e+18
14516.0	1.4421082773651476e+18
14517.0	1.443977311236915e+18
14518.0	1.443692367000371e+18
14519.0	1.4434072851906557e+18
14520.0	1.443121245401907e+18
14521.0	1.4428347291402237e+18
14522.0	1.4425521186144253e+18
14523.0	1.442130851109273e+18
14524.0	1.441837196142182e+18
14525.0	1.4416928667860987e+18
14526.0	1.4414107042119677e+18
14527.0	1.4411137978204157e+18
14528.0	1.4407201472905213e+18
14529.0	1.4405498719698941e+18
14530.0	1.4402582084583421e+18
14531.0	1.4399875433103357e+18
14532.0	1.4394906776698877e+18
14533.0	1.4394156617039867e+18
14534.0	1.4391322190282747e+18
14535.0	1.4388389432262653e+18
14536.0	1.4385605202935808e+18
14537.0	1.4382672713351165e+18
14538.0	1.4379949603422203e+18
14539.0	1.437710975762432e+18
14540.0	1.4374268552871936e+18
14541.0	1.4371253334835197e+18
14542.0	1.4368573258465277e+18
14543.0	1.4364791707533307e+18
14544.0	1.4362905847791613e+18
14545.0	1.4360016794419197e+18
14546.0	1.4190206915706775e+18
14547.0	1.4205316610654075e+18
14548.0	1.435144492888883e+18
14549.0	1.4347710136057853e+18
14550.0	1.434487846076416e+18
14551.0	1.4341765465112573e+18
14552.0	1.433891830444851e+18
14553.0	1.4336008782872576e+18
14554.0	1.433326042323353e+18
14555.0	1.4330421936390141e+18
14556.0	1.4327554643066877e+18
14557.0	1.4324758350921725e+18
14558.0	1.4321923336962045e+18
14559.0	1.4303481217155036e+18
14560.0	1.431622502265651e+18
14561.0	1.431336640315392e+18
14562.0	1.4310405727846395e+18
14563.0	1.4307765564473341e+18
14564.0	1.430489436205875e+18
14565.0	1.4302106022313981e+18
14566.0	1.4299276360286208e+18
14567.0	1.4296445708402685e+18
14568.0	1.4293518470086653e+18
14569.0	1.4290788917706747e+18
14570.0	1.428355676320563e+18
14571.0	1.4285105400905725e+18
14572.0	1.4281973514108925e+18
14573.0	1.427908773229363e+18
14574.0	1.4276546218950656e+18
14575.0	1.427381918315315e+18
14576.0	1.427098437052006e+18
14577.0	1.426812113728307e+18
14578.0	1.4265329794416637e+18
14579.0	1.4262525365321725e+18
14580.0	1.4259703454367741e+18
14581.0	1.425684285515366e+18
14582.0	1.425405434763673e+18
14583.0	1.4251232705118203e+18
14584.0	1.4248323451977725e+18
14585.0	1.4245586685394941e+18
14586.0	1.4242735162654715e+18
14587.0	1.4239912647720957e+18
14588.0	1.423711810040627e+18
14589.0	1.4234386081775613e+18
14590.0	1.4231654818119677e+18
14591.0	1.4228917414002685e+18
14592.0	1.4226132446478336e+18
14593.0	1.4222481959157757e+18
14594.0	1.4220727448240125e+18
14595.0	1.4217926911459325e+18
14596.0	1.421493135631974e+18
14597.0	1.4212243881197565e+18
14598.0	1.4209773201260541e+18
14599.0	1.420707819316838e+18
14600.0	1.4204344580702208e+18
14601.0	1.4201621856649213e+18
14602.0	1.4198843499347965e+18
14603.0	1.419616332231475e+18
14604.0	1.4193083797209085e+18
14605.0	1.4188693484994557e+18
14606.0	1.418518926144307e+18
14607.0	1.4183056860512253e+18
14608.0	1.4180356299161597e+18
14609.0	1.4177554772525053e+18
14610.0	1.417480944956211e+18
14611.0	1.4172175728639995e+18
14612.0	1.4169478791167997e+18
14613.0	1.4166755731570685e+18
14614.0	1.4163994940014587e+18
14615.0	1.4161284010344445e+18
14616.0	1.415857764407705e+18
14617.0	1.4155849601646587e+18
14618.0	1.4153081059016701e+18
14619.0	1.4150271898746877e+18
14620.0	1.4147069547642877e+18
14621.0	1.4145005228654592e+18
14622.0	1.4142255812050941e+18
14623.0	1.4139528994357245e+18
14624.0	1.4136295773175808e+18
14625.0	1.4134037492793341e+18
14626.0	1.4131288394956797e+18
14627.0	1.4128517671288832e+18
14628.0	1.4125888413106173e+18
14629.0	1.412316352479232e+18
14630.0	1.4120432999333885e+18
14631.0	1.411770643329843e+18
14632.0	1.4104331670257667e+18
14633.0	1.4111230075600888e+18
14634.0	1.4109508397694973e+18
14635.0	1.410607062869606e+18
14636.0	1.4101798746849275e+18
14637.0	1.4101364938375165e+18
14638.0	1.4098616209637373e+18
14639.0	1.4095824732553213e+18
14640.0	1.4093158379945981e+18
14641.0	1.4050221742882783e+18
14642.0	1.4087695785525245e+18
14643.0	1.4085009484808187e+18
14644.0	1.4082198344826877e+18
14645.0	1.4079352325013504e+18
14646.0	1.4076750967341053e+18
14647.0	1.407401902420787e+18
