# Flux units: erg / (cm m2 s)
# Wavelength units: Angstrom
wave	flux
14000.0	2.167085679090073e+18
14001.0	2.1665203271761915e+18
14002.0	2.1660330513924093e+18
14003.0	2.165506842401177e+18
14004.0	2.1649737379741693e+18
14005.0	2.164440650324377e+18
14006.0	2.1639057121476605e+18
14007.0	2.1633737334718456e+18
14008.0	2.1627530922426365e+18
14009.0	2.1623285481471995e+18
14010.0	2.1617859025174525e+18
14011.0	2.1607368483667965e+18
14012.0	2.1607455892963325e+18
14013.0	2.1602204674686979e+18
14014.0	2.1596862624563195e+18
14015.0	2.1591646722326525e+18
14016.0	2.1586407331987453e+18
14017.0	2.1581130293575675e+18
14018.0	2.1575846208733176e+18
14019.0	2.157062275674931e+18
14020.0	2.1565340886499328e+18
14021.0	2.1560092688121848e+18
14022.0	2.1554725237293048e+18
14023.0	2.1549154547269627e+18
14024.0	2.15440075826135e+18
14025.0	2.1538959385427965e+18
14026.0	2.1533703167541243e+18
14027.0	2.1528455237599227e+18
14028.0	2.1523160499224573e+18
14029.0	2.151791552207257e+18
14030.0	2.1503005006233605e+18
14031.0	2.1507260261859325e+18
14032.0	2.1502246323748861e+18
14033.0	2.1496455868973053e+18
14034.0	2.1491769958989821e+18
14035.0	2.1486506895998968e+18
14036.0	2.1481295557165048e+18
14037.0	2.1476020347469821e+18
14038.0	2.1470851035561981e+18
14039.0	2.1465578476666877e+18
14040.0	2.1460267766382587e+18
14041.0	2.1455105081475067e+18
14042.0	2.144973494629171e+18
14043.0	2.1444232371765243e+18
14044.0	2.143929597794713e+18
14045.0	2.1434133326594043e+18
14046.0	2.142888485978112e+18
14047.0	2.1423617401159675e+18
14048.0	2.1418490770489344e+18
14049.0	2.1413306174537725e+18
14050.0	2.1408094667931645e+18
14051.0	2.140275337278259e+18
14052.0	2.1397621440511995e+18
14053.0	2.1392448135626747e+18
14054.0	2.1387263069913083e+18
14055.0	2.138201923361177e+18
14056.0	2.1376855491739643e+18
14057.0	2.1371633885249536e+18
14058.0	2.1366450883133437e+18
14059.0	2.1361258502553595e+18
14060.0	2.135606233032294e+18
14061.0	2.1350803830734843e+18
14062.0	2.1345674415046656e+18
14063.0	2.134031761775001e+18
14064.0	2.1333973313519616e+18
14065.0	2.1329909922136061e+18
14066.0	2.1324763494350843e+18
14067.0	2.1319295145345021e+18
14068.0	2.131442935005183e+18
14069.0	2.1309213431037947e+18
14070.0	2.1304060946677757e+18
14071.0	2.1298858432659448e+18
14072.0	2.1293693466050555e+18
14073.0	2.1288526553284605e+18
14074.0	2.1283357157490688e+18
14075.0	2.1277986770649088e+18
14076.0	2.1272657102110717e+18
14077.0	2.126542766551859e+18
14078.0	2.1262465127940093e+18
14079.0	2.1257392721231867e+18
14080.0	2.1252340732395515e+18
14081.0	2.1247174943703037e+18
14082.0	2.124170776910233e+18
14083.0	2.1236834742829053e+18
14084.0	2.123169324754534e+18
14085.0	2.1222609005838333e+18
14086.0	2.1221177607323643e+18
14087.0	2.121622487249715e+18
14088.0	2.1210933254684667e+18
14089.0	2.1205489685626872e+18
14090.0	2.120059192973721e+18
14091.0	2.1195504322871296e+18
14092.0	2.1190340295786493e+18
14093.0	2.1185209219153915e+18
14094.0	2.1180065794490365e+18
14095.0	2.1174924349538296e+18
14096.0	2.1169262190133243e+18
14097.0	2.1164257714372603e+18
14098.0	2.1159183965487101e+18
14099.0	2.1154359341481981e+18
14100.0	2.1149062422069245e+18
14101.0	2.114410103019929e+18
14102.0	2.1138939469365243e+18
14103.0	2.113371715823206e+18
14104.0	2.112867807107481e+18
14105.0	2.11234891801559e+18
14106.0	2.1118454287302653e+18
14107.0	2.1113067022581752e+18
14108.0	2.110803551872614e+18
14109.0	2.11030349185024e+18
14110.0	2.109764460032819e+18
14111.0	2.1092156017999864e+18
14112.0	2.1087621606277115e+18
14113.0	2.1082396275245053e+18
14114.0	2.1077303433887744e+18
14115.0	2.1072343350640635e+18
14116.0	2.106589786302054e+18
14117.0	2.1046765444661253e+18
14118.0	2.1056921565921275e+18
14119.0	2.1051513765887997e+18
14120.0	2.1046468102062077e+18
14121.0	2.1041351957151736e+18
14122.0	2.1036231215284221e+18
14123.0	2.1030820798005243e+18
14124.0	2.1025687305453565e+18
14125.0	2.1016645006786555e+18
14126.0	2.1015985242767355e+18
14127.0	2.1011044772085752e+18
14128.0	2.1005939062603768e+18
14129.0	2.1000739786588155e+18
14130.0	2.0995514942095355e+18
14131.0	2.0990651411726333e+18
14132.0	2.0985532129476605e+18
14133.0	2.0975187096764393e+18
14134.0	2.0975421155704827e+18
14135.0	2.0970140979953661e+18
14136.0	2.0963974715539456e+18
14137.0	2.096016311661363e+18
14138.0	2.0954866314641405e+18
14139.0	2.09500261884887e+18
14140.0	2.0944412666232827e+18
14141.0	2.0939847954857981e+18
14142.0	2.0933095444185083e+18
14143.0	2.092871630559641e+18
14144.0	2.0924674657484797e+18
14145.0	2.0919598694006781e+18
14146.0	2.091450712771788e+18
14147.0	2.0909454853668861e+18
14148.0	2.0904212913192955e+18
14149.0	2.089908564498841e+18
14150.0	2.0894172806381565e+18
14151.0	2.0888872783183872e+18
14152.0	2.088404732031795e+18
14153.0	2.08790111691735e+18
14154.0	2.0873685040627704e+18
14155.0	2.0864154172653568e+18
14156.0	2.086365723151564e+18
14157.0	2.0858781218897912e+18
14158.0	2.085363232486195e+18
14159.0	2.0848697575211005e+18
14160.0	2.0843650770534397e+18
14161.0	2.0837944218615803e+18
14162.0	2.0832508568403963e+18
14163.0	2.0828525774766077e+18
14164.0	2.082282623572377e+18
14165.0	2.0812926101225475e+18
14166.0	2.0813351202324475e+18
14167.0	2.080824061067264e+18
14168.0	2.0803194560970747e+18
14169.0	2.0798327691935744e+18
14170.0	2.0793198578237435e+18
14171.0	2.0788161319796733e+18
14172.0	2.0783244991528957e+18
14173.0	2.0775744720338947e+18
14174.0	2.077312826317209e+18
14175.0	2.076817296143155e+18
14176.0	2.076305817547571e+18
14177.0	2.0758097253367803e+18
14178.0	2.0753049022627837e+18
14179.0	2.0747565070811133e+18
14180.0	2.074308245035417e+18
14181.0	2.0738068763901947e+18
14182.0	2.0733049171869693e+18
14183.0	2.0728045518192637e+18
14184.0	2.0722901254668288e+18
14185.0	2.0717900469895165e+18
14186.0	2.0709712064413693e+18
14187.0	2.0707661452410875e+18
14188.0	2.0702849914634237e+18
14189.0	2.0697808579330043e+18
14190.0	2.069286471965081e+18
14191.0	2.0687856737452027e+18
14192.0	2.0682795756027901e+18
14193.0	2.067738703324774e+18
14194.0	2.0672868912201725e+18
14195.0	2.0667915120410621e+18
14196.0	2.06629206270935e+18
14197.0	2.0657913701859325e+18
14198.0	2.065289266698649e+18
14199.0	2.0647804087042043e+18
14200.0	2.064120659784499e+18
14201.0	2.0637959250247677e+18
14202.0	2.063298059462246e+18
14203.0	2.062742151443251e+18
14204.0	2.0622975518638072e+18
14205.0	2.0618030417444861e+18
14206.0	2.061183980929024e+18
14207.0	2.0608105251340288e+18
14208.0	2.0603130387365883e+18
14209.0	2.0596726138142712e+18
14210.0	2.0592352586366968e+18
14211.0	2.058812637210214e+18
14212.0	2.0583223499161597e+18
14213.0	2.0578175637520381e+18
14214.0	2.0573293333446653e+18
14215.0	2.0568177171759101e+18
14216.0	2.056335680916685e+18
14217.0	2.0558410885890045e+18
14218.0	2.0553325527171067e+18
14219.0	2.0548465218027515e+18
14220.0	2.054352308640153e+18
14221.0	2.0538508812746747e+18
14222.0	2.053302120349696e+18
14223.0	2.0528637971267584e+18
14224.0	2.0523677468590077e+18
14225.0	2.0513912424235008e+18
14226.0	2.0513715845595133e+18
14227.0	2.05087602418647e+18
14228.0	2.0493268915585024e+18
14229.0	2.0497588058849267e+18
14230.0	2.049393107874611e+18
14231.0	2.048847979216896e+18
14232.0	2.048406018693529e+18
14233.0	2.0479031400988667e+18
14234.0	2.047418437940019e+18
14235.0	2.0469221343363072e+18
14236.0	2.0464275134873597e+18
14237.0	2.0459353756663803e+18
14238.0	2.0454439894646781e+18
14239.0	2.0449414464143352e+18
14240.0	2.0431741713907722e+18
14241.0	2.0439627357749245e+18
14242.0	2.0434732168773627e+18
14243.0	2.0428289935933437e+18
14244.0	2.0424898455273464e+18
14245.0	2.041976721086873e+18
14246.0	2.0414700726517755e+18
14247.0	2.0410071506747387e+18
14248.0	2.0405094746947581e+18
14249.0	2.0400254184587261e+18
14250.0	2.0395368374075387e+18
14251.0	2.039046385696768e+18
14252.0	2.038556408781209e+18
14253.0	2.0380653413466107e+18
14254.0	2.0375726280671227e+18
14255.0	2.037056497149542e+18
14256.0	2.036215854609203e+18
14257.0	2.036096023343923e+18
14258.0	2.0356133596168187e+18
14259.0	2.0350963797721083e+18
14260.0	2.0346209772240893e+18
14261.0	2.0341191287504893e+18
14262.0	2.0336569734922237e+18
14263.0	2.0326034884788224e+18
14264.0	2.0325907830931453e+18
14265.0	2.032166264163532e+18
14266.0	2.0316939184242683e+18
14267.0	2.0312049078763515e+18
14268.0	2.0307155416514555e+18
14269.0	2.0302190551760893e+18
14270.0	2.0297407518474237e+18
14271.0	2.0292414820319227e+18
14272.0	2.0287626535763965e+18
14273.0	2.0282676703395837e+18
14274.0	2.0269581398441987e+18
14275.0	2.027216547558195e+18
14276.0	2.026741903340339e+18
14277.0	2.0262817814806525e+18
14278.0	2.0258264344166392e+18
14279.0	2.0253384187576317e+18
14280.0	2.0248441066094587e+18
14281.0	2.0243649291878397e+18
14282.0	2.023878351336243e+18
14283.0	2.0233916258451453e+18
14284.0	2.0229049339084797e+18
14285.0	2.0224183510237181e+18
14286.0	2.021927278555955e+18
14287.0	2.0214420076494843e+18
14288.0	2.0209566025252861e+18
14289.0	2.0196509576331233e+18
14290.0	2.0199732093648893e+18
14291.0	2.0194990449754107e+18
14292.0	2.019013097947136e+18
14293.0	2.018528194461696e+18
14294.0	2.017907205944115e+18
14295.0	2.017541689127731e+18
14296.0	2.0164074067197955e+18
14297.0	2.0165904193028093e+18
14298.0	2.015831137871462e+18
14299.0	2.015597800351334e+18
14300.0	2.015126321994137e+18
14301.0	2.0146369339588603e+18
14302.0	2.0141640345714683e+18
14303.0	2.0136449558970363e+18
14304.0	2.0131841696595965e+18
14305.0	2.0127087033581568e+18
14306.0	2.0120998397345787e+18
14307.0	2.01171531768791e+18
14308.0	2.011261101408256e+18
14309.0	2.0107685424791547e+18
14310.0	2.009708257660108e+18
14311.0	2.0095301574459387e+18
14312.0	2.0092532847280125e+18
14313.0	2.0087889433985021e+18
14314.0	2.0083585843199992e+18
14315.0	2.0078830307770363e+18
14316.0	2.0073535099633661e+18
14317.0	2.0068082688983035e+18
14318.0	2.0064410777157627e+18
14319.0	2.0059603064586237e+18
14320.0	2.005478966453862e+18
14321.0	2.0049941015560187e+18
14322.0	2.0044695417651192e+18
14323.0	2.00402183168983e+18
14324.0	2.0035505278156792e+18
14325.0	2.0030627000614907e+18
14326.0	2.002593245036544e+18
14327.0	2.00210327315415e+18
14328.0	2.0016205003751416e+18
14329.0	2.0011416098439163e+18
14330.0	2.0006602849386493e+18
14331.0	2.0001729537900544e+18
14332.0	1.9996993766031355e+18
14333.0	1.9992209742888955e+18
14334.0	1.9987418656538624e+18
14335.0	1.9982354302894075e+18
14336.0	1.9977105919967227e+18
14337.0	1.997299687777894e+18
14338.0	1.9968209532747773e+18
14339.0	1.9963295586844672e+18
14340.0	1.9958665192669181e+18
14341.0	1.995381161118924e+18
14342.0	1.994904418071347e+18
14343.0	1.9944037356142587e+18
14344.0	1.9939338410262525e+18
14345.0	1.9934731655184381e+18
14346.0	1.9929938169692155e+18
14347.0	1.99248841843671e+18
14348.0	1.9920366516305915e+18
14349.0	1.9915638394847227e+18
14350.0	1.9910476481691643e+18
14351.0	1.990563189279948e+18
14352.0	1.9901225289908221e+18
14353.0	1.9896528206299133e+18
14354.0	1.9891713027866621e+18
14355.0	1.9886881139326968e+18
14356.0	1.9882140384624637e+18
14357.0	1.987745210905395e+18
14358.0	1.987268778236313e+18
14359.0	1.9867749207506944e+18
14360.0	1.9863129215205373e+18
14361.0	1.9858395590819837e+18
14362.0	1.985363445180006e+18
14363.0	1.9848883093897216e+18
14364.0	1.9842656095961088e+18
14365.0	1.9839200140460024e+18
14366.0	1.98343903978455e+18
14367.0	1.9829856120340477e+18
14368.0	1.982510258139955e+18
14369.0	1.982037227890278e+18
14370.0	1.9815623303364603e+18
14371.0	1.9810878656348155e+18
14372.0	1.9806055575846907e+18
14373.0	1.9801383221854205e+18
14374.0	1.979661921393049e+18
14375.0	1.9791882116661243e+18
14376.0	1.978714941502259e+18
14377.0	1.9782420723138555e+18
14378.0	1.977766223491891e+18
14379.0	1.9772952568397821e+18
14380.0	1.9768214615490552e+18
14381.0	1.9763351085121536e+18
14382.0	1.9758726076432381e+18
14383.0	1.975362139036057e+18
14384.0	1.9749032184250363e+18
14385.0	1.9744562599690235e+18
14386.0	1.9739640248401917e+18
14387.0	1.9735090619744253e+18
14388.0	1.9730335151423483e+18
14389.0	1.9725654190718973e+18
14390.0	1.9720917462548477e+18
14391.0	1.9716176892395515e+18
14392.0	1.9711259893039101e+18
14393.0	1.9706679696293888e+18
14394.0	1.9701569406631933e+18
14395.0	1.9696358520782843e+18
14396.0	1.9692491942920187e+18
14397.0	1.9687819538595837e+18
14398.0	1.9682941529489405e+18
14399.0	1.9678346803675133e+18
14400.0	1.967302939928166e+18
14401.0	1.9668908948586493e+18
14402.0	1.9664226679259133e+18
14403.0	1.9583649133363064e+18
14404.0	1.9462759628406753e+18
14405.0	1.9638673150574538e+18
14406.0	1.9645436432220155e+18
14407.0	1.9523223339139133e+18
14408.0	1.9635495982071803e+18
14409.0	1.963116584973107e+18
14410.0	1.962651335996211e+18
14411.0	1.962193167004467e+18
14412.0	1.961722561062502e+18
14413.0	1.9612572885975037e+18
14414.0	1.960787133962649e+18
14415.0	1.9603193700810747e+18
14416.0	1.9598398755700733e+18
14417.0	1.9593284758274043e+18
14418.0	1.9588426747609083e+18
14419.0	1.9584440850186237e+18
14420.0	1.95797084840919e+18
14421.0	1.9575078878445563e+18
14422.0	1.9570343375011837e+18
14423.0	1.9565605740871675e+18
14424.0	1.913915402564377e+18
14425.0	1.9556294973194237e+18
14426.0	1.9551683352723453e+18
14427.0	1.954702148449075e+18
14428.0	1.9541980686057472e+18
14429.0	1.9537655033233405e+18
14430.0	1.9533011217285115e+18
14431.0	1.9526134370664445e+18
14432.0	1.9523239629815803e+18
14433.0	1.9430355727548352e+18
14434.0	1.9514186409181181e+18
14435.0	1.9509244764094461e+18
14436.0	1.9505012610695163e+18
14437.0	1.9500351245778941e+18
14438.0	1.9492752425222144e+18
14439.0	1.949034257947033e+18
14440.0	1.948636302383513e+18
14441.0	1.948165521958502e+18
14442.0	1.9476964947525632e+18
14443.0	1.9471948929040381e+18
14444.0	1.94677055684608e+18
14445.0	1.946308774042009e+18
14446.0	1.9365511083065385e+18
14447.0	1.9453642771791872e+18
14448.0	1.9449150370217981e+18
14449.0	1.9444503853137915e+18
14450.0	1.943979016008499e+18
14451.0	1.9435169630912507e+18
14452.0	1.9430493132947448e+18
14453.0	1.9423968423313405e+18
14454.0	1.9421246101913597e+18
14455.0	1.9416549169299448e+18
14456.0	1.941156583283097e+18
14457.0	1.9406679217012733e+18
14458.0	1.9402233355436027e+18
14459.0	1.9397645139181568e+18
14460.0	1.9393381763383296e+18
14461.0	1.9388312946999293e+18
14462.0	1.938170789127782e+18
14463.0	1.9379369566797824e+18
14464.0	1.9374874547978237e+18
14465.0	1.9370108291907581e+18
14466.0	1.9365592888770552e+18
14467.0	1.93596182537175e+18
14468.0	1.9356252391866363e+18
14469.0	1.935149878581657e+18
14470.0	1.9346780915236861e+18
14471.0	1.9342236957278205e+18
14472.0	1.9337691019608061e+18
14473.0	1.9333195094818816e+18
14474.0	1.9328597953085435e+18
14475.0	1.9323886642397181e+18
14476.0	1.93134365507584e+18
14477.0	1.9314740861861883e+18
14478.0	1.931009140876902e+18
14479.0	1.93054361339822e+18
14480.0	1.9300751801057277e+18
14481.0	1.929632399176499e+18
14482.0	1.929168155154841e+18
14483.0	1.9286983964622843e+18
14484.0	1.9282452086259707e+18
14485.0	1.92774468051927e+18
14486.0	1.9270344154021883e+18
14487.0	1.9268670760943608e+18
14488.0	1.9263365872353277e+18
14489.0	1.925924817312153e+18
14490.0	1.92547241632727e+18
14491.0	1.9250278519799805e+18
14492.0	1.924568087474995e+18
14493.0	1.92409530049495e+18
14494.0	1.9236277295513597e+18
14495.0	1.9231913004761083e+18
14496.0	1.9225976135221245e+18
14497.0	1.9222706171936763e+18
14498.0	1.9218098963873787e+18
14499.0	1.9213549502988283e+18
14500.0	1.9208961102184445e+18
14501.0	1.920146972291891e+18
14502.0	1.9194740733902845e+18
14503.0	1.9194802507612155e+18
14504.0	1.9190555959361533e+18
14505.0	1.9183319996432374e+18
14506.0	1.917515568303308e+18
14507.0	1.9174473353658365e+18
14508.0	1.917229991565721e+18
14509.0	1.9167715725934584e+18
14510.0	1.916312638560665e+18
14511.0	1.9158576354295805e+18
14512.0	1.9153817983516672e+18
14513.0	1.9149426882772987e+18
14514.0	1.9143985880629245e+18
14515.0	1.91402121143255e+18
14516.0	1.911595606841755e+18
14517.0	1.9131139667001341e+18
14518.0	1.9126567472988155e+18
14519.0	1.9121988517756925e+18
14520.0	1.911743301707366e+18
14521.0	1.911281772239257e+18
14522.0	1.9108242827247616e+18
14523.0	1.9097129599369208e+18
14524.0	1.90923423214469e+18
14525.0	1.9094561678688253e+18
14526.0	1.909002969966182e+18
14527.0	1.9084935331577853e+18
14528.0	1.907935440745267e+18
14529.0	1.907627453002547e+18
14530.0	1.9071620211539965e+18
14531.0	1.9067244562612221e+18
14532.0	1.905241925825331e+18
14533.0	1.9058150825000952e+18
14534.0	1.9053613645037565e+18
14535.0	1.904892882557337e+18
14536.0	1.904445979466137e+18
14537.0	1.9039799637704696e+18
14538.0	1.9035383236919293e+18
14539.0	1.9030850452586496e+18
14540.0	1.9026316728729592e+18
14541.0	1.902151317690777e+18
14542.0	1.9017188128063483e+18
14543.0	1.9008484309729277e+18
14544.0	1.9008114506334208e+18
14545.0	1.9003454701699072e+18
14546.0	1.861805814264608e+18
14547.0	1.8652633216581391e+18
14548.0	1.8989822928486397e+18
14549.0	1.8984232726560768e+18
14550.0	1.8980800477265912e+18
14551.0	1.897636292041113e+18
14552.0	1.8971721503604733e+18
14553.0	1.896712359011942e+18
14554.0	1.8962749501472763e+18
14555.0	1.8958198916513787e+18
14556.0	1.895351220122419e+18
14557.0	1.8949156517183488e+18
14558.0	1.8944616451538941e+18
14559.0	1.892439098077998e+18
14560.0	1.8934442630316032e+18
14561.0	1.8930878948311037e+18
14562.0	1.8926109655564283e+18
14563.0	1.8921870841610237e+18
14564.0	1.8917089519599616e+18
14565.0	1.8912844665847805e+18
14566.0	1.8908320052019197e+18
14567.0	1.8903765910290427e+18
14568.0	1.8898391513694205e+18
14569.0	1.8894729080995837e+18
14570.0	1.8885664351191037e+18
14571.0	1.8885671766720512e+18
14572.0	1.8880504233197565e+18
14573.0	1.8876109441466363e+18
14574.0	1.8871402442522621e+18
14575.0	1.8867531435474941e+18
14576.0	1.8863014623051773e+18
14577.0	1.8858483466108925e+18
14578.0	1.885403963457536e+18
14579.0	1.884953657946931e+18
14580.0	1.8845036913360893e+18
14581.0	1.884018462372659e+18
14582.0	1.8835981310361597e+18
14583.0	1.8831495317684221e+18
14584.0	1.8826824742076413e+18
14585.0	1.8822467480977403e+18
14586.0	1.8817924915527675e+18
14587.0	1.8813313647378427e+18
14588.0	1.8808898689433592e+18
14589.0	1.880461523130777e+18
14590.0	1.8800298503962621e+18
14591.0	1.879590820852531e+18
14592.0	1.8791571801505787e+18
14593.0	1.8786162508300288e+18
14594.0	1.8782986648420347e+18
14595.0	1.8778612693991421e+18
14596.0	1.8772815947759613e+18
14597.0	1.876881636012851e+18
14598.0	1.8765640064040955e+18
14599.0	1.8761436985556987e+18
14600.0	1.875707489261977e+18
14601.0	1.8752774741164027e+18
14602.0	1.874811101066035e+18
14603.0	1.8744068456579064e+18
14604.0	1.87393117299671e+18
14605.0	1.873517107950387e+18
14606.0	1.8730398934630397e+18
14607.0	1.8726877715759096e+18
14608.0	1.8722500556881915e+18
14609.0	1.871751774050713e+18
14610.0	1.8713296777510907e+18
14611.0	1.870953905022566e+18
14612.0	1.8705318171115517e+18
14613.0	1.8701034696212475e+18
14614.0	1.8696688759734272e+18
14615.0	1.8692219040956413e+18
14616.0	1.8688094798610427e+18
14617.0	1.8683773742743547e+18
14618.0	1.8678995725844477e+18
14619.0	1.867450246863257e+18
14620.0	1.8667471942713341e+18
14621.0	1.866653124421222e+18
14622.0	1.866218305958707e+18
14623.0	1.8657901564395515e+18
14624.0	1.8652995101130747e+18
14625.0	1.8649235041812477e+18
14626.0	1.8644750072545275e+18
14627.0	1.864026857616179e+18
14628.0	1.8636330980343803e+18
14629.0	1.863201494086451e+18
14630.0	1.862767323224473e+18
14631.0	1.8623303874772987e+18
14632.0	1.857961087048092e+18
14633.0	1.8610619276066793e+18
14634.0	1.8610290039980032e+18
14635.0	1.8601920407011297e+18
14636.0	1.8586395257864184e+18
14637.0	1.8597483554799608e+18
14638.0	1.8593039169617917e+18
14639.0	1.858871571460915e+18
14640.0	1.858446797517619e+18
14641.0	1.8435174727417743e+18
14642.0	1.857582306164736e+18
14643.0	1.857154577753702e+18
14644.0	1.8567088524230656e+18
14645.0	1.856264299819827e+18
14646.0	1.8558132645003261e+18
14647.0	1.8553852022226941e+18
14648.0	1.8549879596908541e+18
