# Flux units: erg / (cm m2 s)
# Wavelength units: Angstrom
wave	flux
14000.0	1.9725647865708534e+18
14001.0	1.972218845410099e+18
14002.0	1.9718712852479992e+18
14003.0	1.9714631408812027e+18
14004.0	1.9710501747425277e+18
14005.0	1.9706431829704701e+18
14006.0	1.970227722059776e+18
14007.0	1.9698166131589117e+18
14008.0	1.9693402157219835e+18
14009.0	1.96900207764439e+18
14010.0	1.96858373776343e+18
14011.0	1.9677359363850237e+18
14012.0	1.9677743947972605e+18
14013.0	1.9673652689633277e+18
14014.0	1.966951720655257e+18
14015.0	1.9665450577166333e+18
14016.0	1.966137690134937e+18
14017.0	1.965728745494937e+18
14018.0	1.9653196364382205e+18
14019.0	1.9649110155984896e+18
14020.0	1.9645017438027768e+18
14021.0	1.964092485428838e+18
14022.0	1.9636681913139197e+18
14023.0	1.963223236057497e+18
14024.0	1.9628293825232893e+18
14025.0	1.962456351191859e+18
14026.0	1.962050407995801e+18
14027.0	1.9616438692085755e+18
14028.0	1.9612357734957048e+18
14029.0	1.9608266258513915e+18
14030.0	1.95639521281311e+18
14031.0	1.9598816776814584e+18
14032.0	1.959596379445657e+18
14033.0	1.9591251896565752e+18
14034.0	1.9587807634784253e+18
14035.0	1.9583823834513405e+18
14036.0	1.957964176110387e+18
14037.0	1.957567238923878e+18
14038.0	1.9571625489858555e+18
14039.0	1.956752659788595e+18
14040.0	1.9563426044968955e+18
14041.0	1.9559393624326141e+18
14042.0	1.9555268190797824e+18
14043.0	1.9551008724090875e+18
14044.0	1.9547149930856443e+18
14045.0	1.9543141098979328e+18
14046.0	1.9539074805137405e+18
14047.0	1.9534844899885053e+18
14048.0	1.9530912790216696e+18
14049.0	1.952692957714841e+18
14050.0	1.9522874876362747e+18
14051.0	1.9518754526330877e+18
14052.0	1.9514414512209917e+18
14053.0	1.9510316811419643e+18
14054.0	1.9506263486365693e+18
14055.0	1.9502210144534528e+18
14056.0	1.9498157591232507e+18
14057.0	1.9494106480771064e+18
14058.0	1.9490056024621053e+18
14059.0	1.9485952300810237e+18
14060.0	1.9481953954693115e+18
14061.0	1.9477862125928445e+18
14062.0	1.9473863729479675e+18
14063.0	1.946969636968857e+18
14064.0	1.945893628542976e+18
14065.0	1.9461667532308477e+18
14066.0	1.9457682406637565e+18
14067.0	1.9453020521627643e+18
14068.0	1.9449605015994365e+18
14069.0	1.944545075920896e+18
14070.0	1.9441107054100475e+18
14071.0	1.9437077485584381e+18
14072.0	1.9433060399316987e+18
14073.0	1.942902329783091e+18
14074.0	1.9424986380894205e+18
14075.0	1.9420438849388544e+18
14076.0	1.941534525305651e+18
14077.0	1.9402555444428803e+18
14078.0	1.9407247192883197e+18
14079.0	1.9403857658380283e+18
14080.0	1.9399907982966781e+18
14081.0	1.9395880830369787e+18
14082.0	1.9391807322324987e+18
14083.0	1.9387815401881597e+18
14084.0	1.9383794154864637e+18
14085.0	1.937297120637747e+18
14086.0	1.9374980697423864e+18
14087.0	1.937172724291993e+18
14088.0	1.936748581172019e+18
14089.0	1.936301694858035e+18
14090.0	1.9359124449918968e+18
14091.0	1.935526444872499e+18
14092.0	1.9351248436199421e+18
14093.0	1.9347230225858555e+18
14094.0	1.9343211612864507e+18
14095.0	1.9339188033814525e+18
14096.0	1.9333144444403707e+18
14097.0	1.9326839365304317e+18
14098.0	1.932243880221081e+18
14099.0	1.9319305623568381e+18
14100.0	1.9315170727690237e+18
14101.0	1.9311296247758843e+18
14102.0	1.9307285788491773e+18
14103.0	1.93031746659287e+18
14104.0	1.9299272738471933e+18
14105.0	1.9295261188685821e+18
14106.0	1.929126017499136e+18
14107.0	1.9287240756690941e+18
14108.0	1.9283089217814525e+18
14109.0	1.9279202440183805e+18
14110.0	1.9275159047241725e+18
14111.0	1.9271124328120317e+18
14112.0	1.926684246383001e+18
14113.0	1.9262490286227456e+18
14114.0	1.9258734823866365e+18
14115.0	1.9254774578806781e+18
14116.0	1.9249349531795446e+18
14117.0	1.9179208571879427e+18
14118.0	1.9242808128831483e+18
14119.0	1.9237674686611453e+18
14120.0	1.9233876811448315e+18
14121.0	1.923060235186995e+18
14122.0	1.9225471812108283e+18
14123.0	1.9221636708302843e+18
14124.0	1.921748065635532e+18
14125.0	1.9211471946776568e+18
14126.0	1.9210651775795197e+18
14127.0	1.9206912486670333e+18
14128.0	1.9202963012583421e+18
14129.0	1.91988999735214e+18
14130.0	1.9194853996888061e+18
14131.0	1.9190977705017336e+18
14132.0	1.9186985985900541e+18
14133.0	1.9179061922234363e+18
14134.0	1.9179075092348925e+18
14135.0	1.9174659580755965e+18
14136.0	1.9168761651134461e+18
14137.0	1.9166641212358653e+18
14138.0	1.9161935589146621e+18
14139.0	1.9158805950496765e+18
14140.0	1.9154736854859773e+18
14141.0	1.9150407662043133e+18
14142.0	1.9141265589272573e+18
14143.0	1.9142821155962875e+18
14144.0	1.913894758200115e+18
14145.0	1.91349814984704e+18
14146.0	1.9130876449259515e+18
14147.0	1.912695204033331e+18
14148.0	1.9122814745313277e+18
14149.0	1.9118847319605243e+18
14150.0	1.9115147020730368e+18
14151.0	1.911076719427584e+18
14152.0	1.910721909830451e+18
14153.0	1.9103254776381437e+18
14154.0	1.9099104831340541e+18
14155.0	1.9090258557665277e+18
14156.0	1.909043054090649e+18
14157.0	1.9087401531998205e+18
14158.0	1.908339870636441e+18
14159.0	1.907949313825177e+18
14160.0	1.9075475112460288e+18
14161.0	1.907115642218086e+18
14162.0	1.9066838117777405e+18
14163.0	1.9063638602022907e+18
14164.0	1.905729889474969e+18
14165.0	1.905442906806681e+18
14166.0	1.9051416031068155e+18
14167.0	1.9047381932703741e+18
14168.0	1.9043295137103872e+18
14169.0	1.9039537846026237e+18
14170.0	1.9035479605247997e+18
14171.0	1.9031658057433083e+18
14172.0	1.9027752791310333e+18
14173.0	1.9023303171637245e+18
14174.0	1.9019763313278968e+18
14175.0	1.901590723795353e+18
14176.0	1.9011936708460536e+18
14177.0	1.9008016762273787e+18
14178.0	1.9004077941719037e+18
14179.0	1.9000050906562555e+18
14180.0	1.8996213286174717e+18
14181.0	1.8992274633392125e+18
14182.0	1.8988330695786493e+18
14183.0	1.8984398871330813e+18
14184.0	1.8980422469812224e+18
14185.0	1.8976509972709373e+18
14186.0	1.895995629633536e+18
14187.0	1.8968435903954941e+18
14188.0	1.8964715539529725e+18
14189.0	1.8960673975304187e+18
14190.0	1.8956762853933053e+18
14191.0	1.8952775127793656e+18
14192.0	1.8948937658400765e+18
14193.0	1.8942904537972733e+18
14194.0	1.8941027335274496e+18
14195.0	1.893722605433651e+18
14196.0	1.89330374042583e+18
14197.0	1.8929015066722307e+18
14198.0	1.8925056214171643e+18
14199.0	1.892114136825856e+18
14200.0	1.8909600690470912e+18
14201.0	1.8912781482852344e+18
14202.0	1.8909384901918715e+18
14203.0	1.8905368990056443e+18
14204.0	1.890149086946918e+18
14205.0	1.8897618000150525e+18
14206.0	1.8892795943059453e+18
14207.0	1.8889807417573373e+18
14208.0	1.8885896413642747e+18
14209.0	1.88810129351639e+18
14210.0	1.8877361021779965e+18
14211.0	1.887411914355507e+18
14212.0	1.887023679510937e+18
14213.0	1.8866202797408253e+18
14214.0	1.8862414602698747e+18
14215.0	1.8858385906597888e+18
14216.0	1.8854601218326525e+18
14217.0	1.8850698284236797e+18
14218.0	1.8846704568631293e+18
14219.0	1.8842885520621565e+18
14220.0	1.8838910880710653e+18
14221.0	1.8834910957535224e+18
14222.0	1.88301511271383e+18
14223.0	1.8827221036695552e+18
14224.0	1.8823359659769856e+18
14225.0	1.8796345926090765e+18
14226.0	1.8815411722125307e+18
14227.0	1.8811659296440315e+18
14228.0	1.8754636877922314e+18
14229.0	1.8791193290735575e+18
14230.0	1.8799973613174781e+18
14231.0	1.8795068827631613e+18
14232.0	1.8792037335695355e+18
14233.0	1.8787903664553984e+18
14234.0	1.8784051548651515e+18
14235.0	1.8780140511166461e+18
14236.0	1.8776265410478077e+18
14237.0	1.8772339692929021e+18
14238.0	1.8768454660128763e+18
14239.0	1.876442158517452e+18
14240.0	1.8749399953833981e+18
14241.0	1.875662358550937e+18
14242.0	1.8752834988146688e+18
14243.0	1.8747896765612027e+18
14244.0	1.8745160452014077e+18
14245.0	1.8741138198364155e+18
14246.0	1.8737217211990013e+18
14247.0	1.8733476043816955e+18
14248.0	1.8729515882643456e+18
14249.0	1.8725733861949437e+18
14250.0	1.8721851614167037e+18
14251.0	1.8717990488899581e+18
14252.0	1.8714110858362877e+18
14253.0	1.8710225926225917e+18
14254.0	1.8706334836850683e+18
14255.0	1.8702221415809021e+18
14256.0	1.8674850176434191e+18
14257.0	1.8693364975140854e+18
14258.0	1.8690845892935677e+18
14259.0	1.8686819193323515e+18
14260.0	1.868237527790387e+18
14261.0	1.8679087295889403e+18
14262.0	1.8675511785947133e+18
14263.0	1.8637383784202255e+18
14264.0	1.8660547029368822e+18
14265.0	1.8663824710172672e+18
14266.0	1.866007369377382e+18
14267.0	1.8656212753055744e+18
14268.0	1.8652325371445245e+18
14269.0	1.8646385331011584e+18
14270.0	1.863999485588275e+18
14271.0	1.8636114621366272e+18
14272.0	1.8632253143777275e+18
14273.0	1.8627977034072061e+18
14274.0	1.8572777376186383e+18
14275.0	1.86154364174336e+18
14276.0	1.8616291770236928e+18
14277.0	1.8612468544700408e+18
14278.0	1.8608750998847488e+18
14279.0	1.8604886836903933e+18
14280.0	1.8600990848581624e+18
14281.0	1.8597187084615677e+18
14282.0	1.8593334566060032e+18
14283.0	1.8589480118124541e+18
14284.0	1.8585624881659904e+18
14285.0	1.8581758421237755e+18
14286.0	1.857783149572915e+18
14287.0	1.857406583282073e+18
14288.0	1.8570218229989376e+18
14289.0	1.855913407702629e+18
14290.0	1.8562502606454784e+18
14291.0	1.8558668660277243e+18
14292.0	1.855482926150451e+18
14293.0	1.8550965804204032e+18
14294.0	1.8546100092796925e+18
14295.0	1.8543182870478845e+18
14296.0	1.8533596335702019e+18
14297.0	1.8535583630491643e+18
14298.0	1.8524219197358072e+18
14299.0	1.8527667066241021e+18
14300.0	1.8524039983136765e+18
14301.0	1.8520214761111544e+18
14302.0	1.8516389807521787e+18
14303.0	1.8512283047034875e+18
14304.0	1.8508577413005307e+18
14305.0	1.8504829181624312e+18
14306.0	1.85003983021015e+18
14307.0	1.849671733057945e+18
14308.0	1.8493095465189376e+18
14309.0	1.8488988033613824e+18
14310.0	1.8482836214382584e+18
14311.0	1.8472981428699133e+18
14312.0	1.8475827465289728e+18
14313.0	1.847304075293491e+18
14314.0	1.84698436363223e+18
14315.0	1.8466398502125565e+18
14316.0	1.8462287513780221e+18
14317.0	1.845784978915328e+18
14318.0	1.84550750725079e+18
14319.0	1.8451275871944696e+18
14320.0	1.8447459004973053e+18
14321.0	1.8443616334643197e+18
14322.0	1.8439192199561213e+18
14323.0	1.843551394594816e+18
14324.0	1.843182416638771e+18
14325.0	1.842795562559078e+18
14326.0	1.8424211739508733e+18
14327.0	1.842034470866124e+18
14328.0	1.841652903287193e+18
14329.0	1.8412761088262141e+18
14330.0	1.8408943868968955e+18
14331.0	1.8405019040612347e+18
14332.0	1.8401315184967677e+18
14333.0	1.8397501472112635e+18
14334.0	1.8393688128356347e+18
14335.0	1.838976618568089e+18
14336.0	1.838357369847808e+18
14337.0	1.8382246687801341e+18
14338.0	1.8378425089654781e+18
14339.0	1.8374487191846907e+18
14340.0	1.837080254611456e+18
14341.0	1.83668295335936e+18
14342.0	1.8363211241750525e+18
14343.0	1.835936311882547e+18
14344.0	1.8355533048184827e+18
14345.0	1.8351777787150333e+18
14346.0	1.8347864904171515e+18
14347.0	1.8343068532998141e+18
14348.0	1.8340303496806397e+18
14349.0	1.8336567563124733e+18
14350.0	1.8330830946435072e+18
14351.0	1.832685439392153e+18
14352.0	1.8325118891589627e+18
14353.0	1.8321372203712507e+18
14354.0	1.8317335236444155e+18
14355.0	1.8313071290220536e+18
14356.0	1.830944061679206e+18
14357.0	1.830619769837977e+18
14358.0	1.8302400292978688e+18
14359.0	1.8298497694433277e+18
14360.0	1.8294643145834493e+18
14361.0	1.8290944642121728e+18
14362.0	1.8287228404891643e+18
14363.0	1.8283430697500664e+18
14364.0	1.8273625605931005e+18
14365.0	1.8274476043010038e+18
14366.0	1.8270977976696832e+18
14367.0	1.8268285082533885e+18
14368.0	1.8264493180059645e+18
14369.0	1.8260709313871864e+18
14370.0	1.8256927427395581e+18
14371.0	1.825314981910937e+18
14372.0	1.8249309715693563e+18
14373.0	1.8245539220946941e+18
14374.0	1.824179048624947e+18
14375.0	1.8237999305195517e+18
14376.0	1.8234226830737405e+18
14377.0	1.8230268296953853e+18
14378.0	1.822630548498022e+18
14379.0	1.8222543529836541e+18
14380.0	1.821875041940275e+18
14381.0	1.821489722975846e+18
14382.0	1.821118926369587e+18
14383.0	1.8207356710027256e+18
14384.0	1.8203498336223227e+18
14385.0	1.8199865515311096e+18
14386.0	1.8195977496166392e+18
14387.0	1.8192310231629824e+18
14388.0	1.8188519721664507e+18
14389.0	1.8184758253060093e+18
14390.0	1.8180971668963323e+18
14391.0	1.8177169565941755e+18
14392.0	1.817341901930496e+18
14393.0	1.8169668170678264e+18
14394.0	1.8165610483548155e+18
14395.0	1.8161802525278208e+18
14396.0	1.8158339925999613e+18
14397.0	1.815458820495769e+18
14398.0	1.8150807308337147e+18
14399.0	1.8147033659473915e+18
14400.0	1.8143045346131965e+18
14401.0	1.8137824461062136e+18
14402.0	1.813296616518451e+18
14403.0	1.8112523832131558e+18
14404.0	1.8076228841897969e+18
14405.0	1.810920593634097e+18
14406.0	1.8117905812029437e+18
14407.0	1.8091137797455877e+18
14408.0	1.8109570555576315e+18
14409.0	1.8106485141667835e+18
14410.0	1.8102408445951992e+18
14411.0	1.8099075970760704e+18
14412.0	1.8095325357015037e+18
14413.0	1.8091593047212027e+18
14414.0	1.8087813526323197e+18
14415.0	1.8084062543478781e+18
14416.0	1.8080055959748605e+18
14417.0	1.8075863031480315e+18
14418.0	1.8071876563632128e+18
14419.0	1.8069018447446016e+18
14420.0	1.8065238540681213e+18
14421.0	1.8061513847734272e+18
14422.0	1.8057711308505085e+18
14423.0	1.805367506265702e+18
14424.0	1.7952503064690644e+18
14425.0	1.8046368400539643e+18
14426.0	1.804274380046336e+18
14427.0	1.8039006541381632e+18
14428.0	1.8035097735266304e+18
14429.0	1.8031463890943992e+18
14430.0	1.8027748425465853e+18
14431.0	1.8013434608091139e+18
14432.0	1.802017940124467e+18
14433.0	1.7998649350946806e+18
14434.0	1.8012610897117184e+18
14435.0	1.8007554814640123e+18
14436.0	1.8005259053957117e+18
14437.0	1.8001529680166907e+18
14438.0	1.7996334011252733e+18
14439.0	1.7993823334432765e+18
14440.0	1.7989783213047805e+18
14441.0	1.7985715073712128e+18
14442.0	1.7981725099425787e+18
14443.0	1.7977677864501243e+18
14444.0	1.7974292725628923e+18
14445.0	1.7970584742789115e+18
14446.0	1.7944269780156424e+18
14447.0	1.7962949733777405e+18
14448.0	1.795936618754867e+18
14449.0	1.7955626663542784e+18
14450.0	1.7951844978393085e+18
14451.0	1.79481301001175e+18
14452.0	1.7944377942867965e+18
14453.0	1.7940348894445565e+18
14454.0	1.7936895942066176e+18
14455.0	1.7933124138696704e+18
14456.0	1.7929256839413755e+18
14457.0	1.7925546658758653e+18
14458.0	1.7921785022382075e+18
14459.0	1.7918016406683643e+18
14460.0	1.7914063325495293e+18
14461.0	1.7908798685446141e+18
14462.0	1.78986189586432e+18
14463.0	1.790232766290329e+18
14464.0	1.7899269360975864e+18
14465.0	1.7895529132326907e+18
14466.0	1.789203732391526e+18
14467.0	1.7887995608694781e+18
14468.0	1.7884565976645627e+18
14469.0	1.787989618956697e+18
14470.0	1.7876929877114877e+18
14471.0	1.7873374315282427e+18
14472.0	1.7869675056594941e+18
14473.0	1.7865987474849787e+18
14474.0	1.7862295916904448e+18
14475.0	1.785852866016051e+18
14476.0	1.7853686067757056e+18
14477.0	1.785107830118809e+18
14478.0	1.7847408402628603e+18
14479.0	1.7843613580918781e+18
14480.0	1.7839811477897213e+18
14481.0	1.7836246285942784e+18
14482.0	1.7832493692485627e+18
14483.0	1.7828722979635195e+18
14484.0	1.7824998068584443e+18
14485.0	1.7821084967501821e+18
14486.0	1.7815321775702013e+18
14487.0	1.781378405996953e+18
14488.0	1.7808999617396733e+18
14489.0	1.7805437109796861e+18
14490.0	1.7802550019358715e+18
14491.0	1.7799039068143616e+18
14492.0	1.7795313754439677e+18
14493.0	1.7791440063037435e+18
14494.0	1.7787672873402365e+18
14495.0	1.7784170864443387e+18
14496.0	1.7779410010636285e+18
14497.0	1.7776735453970427e+18
14498.0	1.7773026229616635e+18
14499.0	1.776931408602726e+18
14500.0	1.7765595231551488e+18
14501.0	1.776133514408755e+18
14502.0	1.7755577354551296e+18
14503.0	1.7753997947437053e+18
14504.0	1.7750684984147965e+18
14505.0	1.7746499739844605e+18
14506.0	1.774226409678438e+18
14507.0	1.773767750791987e+18
14508.0	1.7735879795671037e+18
14509.0	1.7732167937294333e+18
14510.0	1.7728432355934205e+18
14511.0	1.772473997590528e+18
14512.0	1.7720904788213755e+18
14513.0	1.7717317634883581e+18
14514.0	1.7713313500626941e+18
14515.0	1.7709888348094461e+18
14516.0	1.7687901085106184e+18
14517.0	1.7702459682062333e+18
14518.0	1.7698762738630653e+18
14519.0	1.7694881279377405e+18
14520.0	1.7691029280915453e+18
14521.0	1.7687309151371261e+18
14522.0	1.7683490438905856e+18
14523.0	1.7677684834303997e+18
14524.0	1.7674971069284347e+18
14525.0	1.7672435008536576e+18
14526.0	1.7668739155623928e+18
14527.0	1.7664829510647803e+18
14528.0	1.7660224483622907e+18
14529.0	1.765755402059776e+18
14530.0	1.7653800185626621e+18
14531.0	1.765020861988864e+18
14532.0	1.7644897137852408e+18
14533.0	1.764279605998387e+18
14534.0	1.763910977008435e+18
14535.0	1.7635316122779648e+18
14536.0	1.763169128782233e+18
14537.0	1.7627888832479227e+18
14538.0	1.7624279164125181e+18
14539.0	1.7620573395877888e+18
14540.0	1.7616866050572285e+18
14541.0	1.7612996536696827e+18
14542.0	1.7609449715793912e+18
14543.0	1.7604934681755643e+18
14544.0	1.7602028498845693e+18
14545.0	1.7598218426646525e+18
14546.0	1.7478355217547213e+18
14547.0	1.748498954951059e+18
14548.0	1.7587086693498875e+18
14549.0	1.7582555519778813e+18
14550.0	1.7579745285767165e+18
14551.0	1.7576089563955197e+18
14552.0	1.7572367857352704e+18
14553.0	1.7568619256872957e+18
14554.0	1.7564971302911997e+18
14555.0	1.7561259343871995e+18
14556.0	1.7557526916628475e+18
14557.0	1.7553845542453243e+18
14558.0	1.7550119507329021e+18
14559.0	1.7532390972850158e+18
14560.0	1.7542119056998395e+18
14561.0	1.7538953179561984e+18
14562.0	1.7534888412446717e+18
14563.0	1.7531521711734781e+18
14564.0	1.7526868802535421e+18
14565.0	1.752419842339635e+18
14566.0	1.7520493896663037e+18
14567.0	1.7516716003164157e+18
14568.0	1.7511789457571837e+18
14569.0	1.75093006246871e+18
14570.0	1.750098977908326e+18
14571.0	1.7501912039423997e+18
14572.0	1.7497301308145661e+18
14573.0	1.7493965930495997e+18
14574.0	1.7488367675506688e+18
14575.0	1.748675937802649e+18
14576.0	1.7483041899282424e+18
14577.0	1.7479653706956797e+18
14578.0	1.7475945103359997e+18
14579.0	1.7472276949630976e+18
14580.0	1.7468553917628413e+18
14581.0	1.7464734349524987e+18
14582.0	1.7460990513774587e+18
14583.0	1.745743352587878e+18
14584.0	1.7453252173889539e+18
14585.0	1.745001722465484e+18
14586.0	1.74462921122775e+18
14587.0	1.744258421332377e+18
14588.0	1.743889268893286e+18
14589.0	1.7435277014335485e+18
14590.0	1.7431666809110523e+18
14591.0	1.7427924617527293e+18
14592.0	1.742434796673433e+18
14593.0	1.741987756009062e+18
14594.0	1.7417182904319997e+18
14595.0	1.7413516277317627e+18
14596.0	1.7404397122224123e+18
14597.0	1.7399722721411062e+18
14598.0	1.740207173297766e+18
14599.0	1.7399045777522685e+18
14600.0	1.7395235822764027e+18
14601.0	1.739169849776537e+18
14602.0	1.73876302577664e+18
14603.0	1.7384420424024061e+18
14604.0	1.7380001791868928e+18
14605.0	1.7375866174570493e+18
14606.0	1.7372896808665085e+18
14607.0	1.7369879845797885e+18
14608.0	1.736631163394457e+18
14609.0	1.7362455843831803e+18
14610.0	1.7356542059741181e+18
14611.0	1.7354735455567872e+18
14612.0	1.7351508626505725e+18
14613.0	1.7347947997954043e+18
14614.0	1.734431370064691e+18
14615.0	1.734062229369651e+18
14616.0	1.7337090068971515e+18
14617.0	1.7333455637446653e+18
14618.0	1.73292182831104e+18
14619.0	1.7321684390379507e+18
14620.0	1.7308366032338941e+18
14621.0	1.7318900379156477e+18
14622.0	1.7315243432607736e+18
14623.0	1.731162671782297e+18
14624.0	1.7307519688900603e+18
14625.0	1.730431383135846e+18
14626.0	1.7300659753713667e+18
14627.0	1.7296966903922685e+18
14628.0	1.7293393642127357e+18
14629.0	1.728973802097868e+18
14630.0	1.7285943098605565e+18
14631.0	1.7282428993273853e+18
14632.0	1.7271116871499779e+18
14633.0	1.7273570874884088e+18
14634.0	1.727124932762009e+18
14635.0	1.7259800001773548e+18
14636.0	1.724707837575167e+18
14637.0	1.7260495669035005e+18
14638.0	1.7256494219132925e+18
14639.0	1.725277576731033e+18
14640.0	1.7249465001836544e+18
14641.0	1.7215503353249772e+18
14642.0	1.724210389765325e+18
14643.0	1.7238422422814715e+18
14644.0	1.7234603811012605e+18
14645.0	1.7230880779010043e+18
14646.0	1.7226684830842877e+18
14647.0	1.722241469382656e+18
