# Flux units: erg / (cm m2 s)
# Wavelength units: Angstrom
wave	flux
14000.0	2.0444594755862518e+18
14001.0	2.0445496615108603e+18
14002.0	2.0442698259365883e+18
14003.0	2.043884594213683e+18
14004.0	2.0434905561300987e+18
14005.0	2.04309953291223e+18
14006.0	2.042698695023001e+18
14007.0	2.0423005918199805e+18
14008.0	2.041831963911782e+18
14009.0	2.0415087793668093e+18
14010.0	2.0411058460033021e+18
14011.0	2.04020127891456e+18
14012.0	2.0403232358531064e+18
14013.0	2.039939821102694e+18
14014.0	2.0395408790388733e+18
14015.0	2.0391502215643133e+18
14016.0	2.0387573645967355e+18
14017.0	2.038363162096435e+18
14018.0	2.0379630758264827e+18
14019.0	2.0375741648601083e+18
14020.0	2.0371789053951997e+18
14021.0	2.036783201334067e+18
14022.0	2.0363827879084027e+18
14023.0	2.0359751451803643e+18
14024.0	2.035582690865971e+18
14025.0	2.0352044955074555e+18
14026.0	2.0348110395932664e+18
14027.0	2.0344168974909437e+18
14028.0	2.0340115029098493e+18
14029.0	2.0335915792596987e+18
14030.0	2.030651714410907e+18
14031.0	2.0325337120374776e+18
14032.0	2.0324256214679547e+18
14033.0	2.03200606020567e+18
14034.0	2.0316585436643325e+18
14035.0	2.031272137536307e+18
14036.0	2.030871026178457e+18
14037.0	2.030490050835251e+18
14038.0	2.0300981031927805e+18
14039.0	2.0297019293695997e+18
14040.0	2.0293103994798075e+18
14041.0	2.0289200674832381e+18
14042.0	2.0285199577251837e+18
14043.0	2.0281041545592827e+18
14044.0	2.027732512381337e+18
14045.0	2.0273468998156283e+18
14046.0	2.0269558296215547e+18
14047.0	2.0265539616112637e+18
14048.0	2.0261756655894525e+18
14049.0	2.0257862513065976e+18
14050.0	2.0253950519279616e+18
14051.0	2.0249969856348163e+18
14052.0	2.02460781126615e+18
14053.0	2.0242213363515387e+18
14054.0	2.0238304037306363e+18
14055.0	2.0234393838682112e+18
14056.0	2.0230484059488248e+18
14057.0	2.022657558891724e+18
14058.0	2.0222667302895616e+18
14059.0	2.021865890722611e+18
14060.0	2.0214850781183997e+18
14061.0	2.021088765044326e+18
14062.0	2.0207025736646653e+18
14063.0	2.020290718177689e+18
14064.0	2.0194442623320064e+18
14065.0	2.019522536433254e+18
14066.0	2.0191424670597115e+18
14067.0	2.018736849341644e+18
14068.0	2.018363049613721e+18
14069.0	2.017969556789657e+18
14070.0	2.017581524949401e+18
14071.0	2.017191572117913e+18
14072.0	2.0168045385220093e+18
14073.0	2.0164148440596477e+18
14074.0	2.0160246697689083e+18
14075.0	2.0156164213833728e+18
14076.0	2.0152215343726587e+18
14077.0	2.0142658487844861e+18
14078.0	2.01440411821015e+18
14079.0	2.014064530581094e+18
14080.0	2.0136890715865083e+18
14081.0	2.0133016118493181e+18
14082.0	2.0129119962398715e+18
14083.0	2.0125210904625147e+18
14084.0	2.0121187711451133e+18
14085.0	2.0112921879117821e+18
14086.0	2.0112905705881597e+18
14087.0	2.0109609050046461e+18
14088.0	2.010565189199462e+18
14089.0	2.0101825596227581e+18
14090.0	2.0098021698043896e+18
14091.0	2.0094193087021048e+18
14092.0	2.009032427778867e+18
14093.0	2.0086443086970877e+18
14094.0	2.008254845760307e+18
14095.0	2.0078599084179448e+18
14096.0	2.0073969361092605e+18
14097.0	2.0070344106704893e+18
14098.0	2.0066624715358205e+18
14099.0	2.0063137269022712e+18
14100.0	2.0059223664623608e+18
14101.0	2.0055472010690555e+18
14102.0	2.005160793263308e+18
14103.0	2.004762072658739e+18
14104.0	2.0043852899418107e+18
14105.0	2.0040015245475837e+18
14106.0	2.0036149925904381e+18
14107.0	2.003223883808768e+18
14108.0	2.0028276311326712e+18
14109.0	2.002450397108633e+18
14110.0	2.0020650915659773e+18
14111.0	2.0016735767756797e+18
14112.0	2.0012853905850365e+18
14113.0	2.000897805018726e+18
14114.0	2.0004991330680832e+18
14115.0	2.0001017831620608e+18
14116.0	1.9995142282805243e+18
14117.0	1.9946489228820485e+18
14118.0	1.9988635558346747e+18
14119.0	1.998497208546099e+18
14120.0	1.9981401273139192e+18
14121.0	1.9977871011348477e+18
14122.0	1.997399114593075e+18
14123.0	1.997011081075097e+18
14124.0	1.996615835031961e+18
14125.0	1.9958813905911803e+18
14126.0	1.9958799695609848e+18
14127.0	1.9955098054557693e+18
14128.0	1.9951307712364536e+18
14129.0	1.9947375367815163e+18
14130.0	1.9943439701377021e+18
14131.0	1.993979012002611e+18
14132.0	1.993576509813555e+18
14133.0	1.9927501732052987e+18
14134.0	1.9928070681001981e+18
14135.0	1.992417304851251e+18
14136.0	1.9920276808531963e+18
14137.0	1.991652966767001e+18
14138.0	1.9912536472158203e+18
14139.0	1.9909002401939448e+18
14140.0	1.9905072137764861e+18
14141.0	1.9900395925012475e+18
14142.0	1.989515722253926e+18
14143.0	1.9893487201681403e+18
14144.0	1.9889878724509693e+18
14145.0	1.9886090563354621e+18
14146.0	1.988217487858073e+18
14147.0	1.9878429230891005e+18
14148.0	1.98745839936471e+18
14149.0	1.9870776974901245e+18
14150.0	1.9867022586281984e+18
14151.0	1.986309483868979e+18
14152.0	1.9859382997090301e+18
14153.0	1.9855560543305725e+18
14154.0	1.9851495004438528e+18
14155.0	1.9847269662588925e+18
14156.0	1.984400496735027e+18
14157.0	1.984027014096486e+18
14158.0	1.9836426027794427e+18
14159.0	1.9832634695745533e+18
14160.0	1.9828682604412925e+18
14161.0	1.9824510060462077e+18
14162.0	1.982024712087142e+18
14163.0	1.9817119059279864e+18
14164.0	1.981242840134451e+18
14165.0	1.980932850869862e+18
14166.0	1.9805868392447997e+18
14167.0	1.980197626288537e+18
14168.0	1.979829181847961e+18
14169.0	1.9794468307730427e+18
14170.0	1.979068063311462e+18
14171.0	1.9786888629977083e+18
14172.0	1.9783106491842563e+18
14173.0	1.9779102475026427e+18
14174.0	1.977541977545113e+18
14175.0	1.9771690955309048e+18
14176.0	1.9767897006014456e+18
14177.0	1.976410020459315e+18
14178.0	1.976029454480179e+18
14179.0	1.9756458333700093e+18
14180.0	1.9752698895138808e+18
14181.0	1.9748897194770427e+18
14182.0	1.974508556229017e+18
14183.0	1.9741275859189755e+18
14184.0	1.973738572611584e+18
14185.0	1.973333555517849e+18
14186.0	1.972195810292531e+18
14187.0	1.972507616529612e+18
14188.0	1.9722178069004288e+18
14189.0	1.971842691838771e+18
14190.0	1.97146556015575e+18
14191.0	1.9710833718198264e+18
14192.0	1.9706959003385856e+18
14193.0	1.9702033867079677e+18
14194.0	1.969949289060761e+18
14195.0	1.9695804151234552e+18
14196.0	1.9692032918290432e+18
14197.0	1.968824979030016e+18
14198.0	1.9684416347439101e+18
14199.0	1.9680597618196475e+18
14200.0	1.9671903178326016e+18
14201.0	1.967225600317849e+18
14202.0	1.9669273970475003e+18
14203.0	1.9665512988409848e+18
14204.0	1.9661765981765627e+18
14205.0	1.9657973106212861e+18
14206.0	1.9653172758839296e+18
14207.0	1.9650358682845181e+18
14208.0	1.9646612263403515e+18
14209.0	1.9641718886367232e+18
14210.0	1.9638199462658043e+18
14211.0	1.9635256537645053e+18
14212.0	1.963154358874931e+18
14213.0	1.9627768463491072e+18
14214.0	1.9624005803704315e+18
14215.0	1.962011213063782e+18
14216.0	1.9616484292558843e+18
14217.0	1.9612720106045435e+18
14218.0	1.9608837187174397e+18
14219.0	1.9605184703365123e+18
14220.0	1.96008104469463e+18
14221.0	1.9596836645896187e+18
14222.0	1.9592792447647741e+18
14223.0	1.9589288358313981e+18
14224.0	1.958535829546598e+18
14225.0	1.9565865720610824e+18
14226.0	1.9577056559890432e+18
14227.0	1.957395790875852e+18
14228.0	1.9531612215574538e+18
14229.0	1.9557480501608417e+18
14230.0	1.9562835285639165e+18
14231.0	1.9558991306686461e+18
14232.0	1.9555494364446717e+18
14233.0	1.9551732946173947e+18
14234.0	1.9548006038634493e+18
14235.0	1.954423527545241e+18
14236.0	1.9540502412001275e+18
14237.0	1.9536710106873848e+18
14238.0	1.9532402086903805e+18
14239.0	1.952817924485939e+18
14240.0	1.9510987983945728e+18
14241.0	1.9520420570988541e+18
14242.0	1.9516982902652925e+18
14243.0	1.951213324704153e+18
14244.0	1.9509663657623547e+18
14245.0	1.9505855967789053e+18
14246.0	1.9502111477727227e+18
14247.0	1.9498407487864832e+18
14248.0	1.9494572065292288e+18
14249.0	1.949091630992588e+18
14250.0	1.948719480464998e+18
14251.0	1.9483462108971005e+18
14252.0	1.9479701110128637e+18
14253.0	1.9475913485844477e+18
14254.0	1.9472064071073787e+18
14255.0	1.946763768784486e+18
14256.0	1.9448691815350277e+18
14257.0	1.9456839301201912e+18
14258.0	1.9456238374879224e+18
14259.0	1.9452327488389115e+18
14260.0	1.9448228629970944e+18
14261.0	1.9444714759520253e+18
14262.0	1.944083546452787e+18
14263.0	1.9414433830797317e+18
14264.0	1.9424315644575736e+18
14265.0	1.9429800435253243e+18
14266.0	1.9426584964366333e+18
14267.0	1.9422966454419453e+18
14268.0	1.9419250770837501e+18
14269.0	1.9415456737656827e+18
14270.0	1.9411782409912315e+18
14271.0	1.9407969032601597e+18
14272.0	1.9403988705214461e+18
14273.0	1.939885410536652e+18
14274.0	1.9358010543439877e+18
14275.0	1.9386000258105341e+18
14276.0	1.9388692095303675e+18
14277.0	1.938548281520947e+18
14278.0	1.9381971360677883e+18
14279.0	1.9378295439097853e+18
14280.0	1.937456782691532e+18
14281.0	1.937012753537433e+18
14282.0	1.936634043118387e+18
14283.0	1.936262434494873e+18
14284.0	1.9358904316067837e+18
14285.0	1.9355177240756224e+18
14286.0	1.9351444075315197e+18
14287.0	1.934772245259878e+18
14288.0	1.9343875520856061e+18
14289.0	1.933150042823064e+18
14290.0	1.9336451602776061e+18
14291.0	1.9332848141991933e+18
14292.0	1.9329127660126205e+18
14293.0	1.9325393605492733e+18
14294.0	1.932055399943372e+18
14295.0	1.931771240880537e+18
14296.0	1.930725849196135e+18
14297.0	1.9310070504357888e+18
14298.0	1.9301622169468925e+18
14299.0	1.930268287539609e+18
14300.0	1.9299324059975677e+18
14301.0	1.9295674898055165e+18
14302.0	1.929198464873267e+18
14303.0	1.928793236386611e+18
14304.0	1.928438950238617e+18
14305.0	1.9280769784479741e+18
14306.0	1.9276208998973437e+18
14307.0	1.9272157871734781e+18
14308.0	1.926851614212096e+18
14309.0	1.9264593763237883e+18
14310.0	1.9260223785009147e+18
14311.0	1.9255862312828925e+18
14312.0	1.9252750021820416e+18
14313.0	1.9249021872766979e+18
14314.0	1.9246202277068792e+18
14315.0	1.9242705200611325e+18
14316.0	1.923866890443161e+18
14317.0	1.9235044790894587e+18
14318.0	1.9231781941149693e+18
14319.0	1.922818121505177e+18
14320.0	1.9224515594682365e+18
14321.0	1.922081225913139e+18
14322.0	1.9216848943841275e+18
14323.0	1.921328093331456e+18
14324.0	1.9209805046480893e+18
14325.0	1.920603111240499e+18
14326.0	1.9202447750725627e+18
14327.0	1.9198697589964797e+18
14328.0	1.919502567813939e+18
14329.0	1.9191398494371837e+18
14330.0	1.9187715979345917e+18
14331.0	1.9184004573954043e+18
14332.0	1.9180348768255997e+18
14333.0	1.9176664206409725e+18
14334.0	1.9172142058831864e+18
14335.0	1.9168200000274427e+18
14336.0	1.9163011344236541e+18
14337.0	1.9160949843820541e+18
14338.0	1.915729736001126e+18
14339.0	1.9153529314738173e+18
14340.0	1.9149931155554304e+18
14341.0	1.9146213509038075e+18
14342.0	1.9142573725581312e+18
14343.0	1.9138907216019456e+18
14344.0	1.9135164017803261e+18
14345.0	1.9131523965911035e+18
14346.0	1.912778244541644e+18
14347.0	1.9123820069650427e+18
14348.0	1.912039845711052e+18
14349.0	1.9116779443847163e+18
14350.0	1.9111692860391421e+18
14351.0	1.9107975348092925e+18
14352.0	1.9105705004892152e+18
14353.0	1.9102131373998075e+18
14354.0	1.909830710827417e+18
14355.0	1.9094309198364664e+18
14356.0	1.909071998143692e+18
14357.0	1.908747506653593e+18
14358.0	1.9083830283468797e+18
14359.0	1.9080011453562875e+18
14360.0	1.9076390057934843e+18
14361.0	1.9072754351341565e+18
14362.0	1.9069139230392315e+18
14363.0	1.906538464044646e+18
14364.0	1.9057729968537597e+18
14365.0	1.905647533477068e+18
14366.0	1.905289799611187e+18
14367.0	1.9049901434339325e+18
14368.0	1.9046258882641915e+18
14369.0	1.9042607824895997e+18
14370.0	1.9038952992276475e+18
14371.0	1.9035299652829181e+18
14372.0	1.9031587240804347e+18
14373.0	1.9027945175646203e+18
14374.0	1.9024315341078525e+18
14375.0	1.9020642925936635e+18
14376.0	1.901699878040371e+18
14377.0	1.9013334116335608e+18
14378.0	1.900965849674547e+18
14379.0	1.9006022723043325e+18
14380.0	1.9002356800684027e+18
14381.0	1.8998595785064445e+18
14382.0	1.8995039132712955e+18
14383.0	1.8991381666070525e+18
14384.0	1.8987564044124155e+18
14385.0	1.8984092552921083e+18
14386.0	1.898026021735628e+18
14387.0	1.8976783407775741e+18
14388.0	1.8973121813938173e+18
14389.0	1.8969475856465917e+18
14390.0	1.8965814866608125e+18
14391.0	1.896218216313651e+18
14392.0	1.895852669298278e+18
14393.0	1.8954884762042365e+18
14394.0	1.8950857475227645e+18
14395.0	1.894746963522355e+18
14396.0	1.8943936286425088e+18
14397.0	1.89402936508416e+18
14398.0	1.8936641385136125e+18
14399.0	1.8932987559149565e+18
14400.0	1.892916792393728e+18
14401.0	1.8925588186136573e+18
14402.0	1.8921773080772603e+18
14403.0	1.891260397990707e+18
14404.0	1.888605200554392e+18
14405.0	1.8894374813302756e+18
14406.0	1.89061037817856e+18
14407.0	1.889701995950899e+18
14408.0	1.889872123632025e+18
14409.0	1.8895349905096704e+18
14410.0	1.8891605968683005e+18
14411.0	1.8888245609758715e+18
14412.0	1.8884624415457277e+18
14413.0	1.8881022263295997e+18
14414.0	1.8877361692868605e+18
14415.0	1.887372664058675e+18
14416.0	1.8870035854393344e+18
14417.0	1.886618098702745e+18
14418.0	1.8862473071296512e+18
14419.0	1.8859108367073275e+18
14420.0	1.8855453719003133e+18
14421.0	1.885182264292147e+18
14422.0	1.8848011480203261e+18
14423.0	1.8843547750891515e+18
14424.0	1.881681795481599e+18
14425.0	1.8836458773151741e+18
14426.0	1.8833578225827837e+18
14427.0	1.8830062543437821e+18
14428.0	1.8826233361989627e+18
14429.0	1.8822787858694136e+18
14430.0	1.881888926990336e+18
14431.0	1.8808203978473472e+18
14432.0	1.8811695333900283e+18
14433.0	1.880380875053465e+18
14434.0	1.8804366156759037e+18
14435.0	1.8800397221101568e+18
14436.0	1.8797374386208768e+18
14437.0	1.8793838285946875e+18
14438.0	1.87894391153623e+18
14439.0	1.8786432822804477e+18
14440.0	1.878300760316313e+18
14441.0	1.8779326983962621e+18
14442.0	1.8775657068625917e+18
14443.0	1.877151378413977e+18
14444.0	1.8767493174657021e+18
14445.0	1.8763828795801597e+18
14446.0	1.8749774471626757e+18
14447.0	1.875619964203827e+18
14448.0	1.8753049367412733e+18
14449.0	1.8749459328401405e+18
14450.0	1.8745782618292221e+18
14451.0	1.874217724490547e+18
14452.0	1.873857341502259e+18
14453.0	1.873490623437209e+18
14454.0	1.8731302186385403e+18
14455.0	1.8727597777092605e+18
14456.0	1.8723942726369275e+18
14457.0	1.8720348878929915e+18
14458.0	1.871666270647091e+18
14459.0	1.8712920296783864e+18
14460.0	1.870907747545907e+18
14461.0	1.8704787272892408e+18
14462.0	1.870045197316915e+18
14463.0	1.869788613286297e+18
14464.0	1.869473416373862e+18
14465.0	1.8691113573416955e+18
14466.0	1.8687774789992443e+18
14467.0	1.86840383529943e+18
14468.0	1.8680594762301437e+18
14469.0	1.8676509174661115e+18
14470.0	1.8673112744722427e+18
14471.0	1.8669838201257981e+18
14472.0	1.8666298393231352e+18
14473.0	1.8662739324960765e+18
14474.0	1.8659187504447488e+18
14475.0	1.865556456531558e+18
14476.0	1.8651720871575552e+18
14477.0	1.8648356754554875e+18
14478.0	1.8644776261779453e+18
14479.0	1.8641158590693376e+18
14480.0	1.8637421365166077e+18
14481.0	1.8634014969561088e+18
14482.0	1.8630371243458555e+18
14483.0	1.8626725839634427e+18
14484.0	1.8623052921176061e+18
14485.0	1.8619179212996605e+18
14486.0	1.8613286215876605e+18
14487.0	1.861235232892518e+18
14488.0	1.8608496773693437e+18
14489.0	1.8604552701870075e+18
14490.0	1.860146752284262e+18
14491.0	1.8598047890014203e+18
14492.0	1.8594470299697147e+18
14493.0	1.8590037004255227e+18
14494.0	1.8586099240665083e+18
14495.0	1.8582647160700925e+18
14496.0	1.8577921857814525e+18
14497.0	1.8575501257867261e+18
14498.0	1.8571948078399483e+18
14499.0	1.856835671398809e+18
14500.0	1.8564752716333053e+18
14501.0	1.856092190749491e+18
14502.0	1.8555474982993915e+18
14503.0	1.8553731947692027e+18
14504.0	1.855031018415718e+18
14505.0	1.854663521887846e+18
14506.0	1.8542865999200253e+18
14507.0	1.8537351076642813e+18
14508.0	1.853597069764198e+18
14509.0	1.8532430319190008e+18
14510.0	1.8528814275493883e+18
14511.0	1.8525240929812475e+18
14512.0	1.852152841712435e+18
14513.0	1.8518031172894723e+18
14514.0	1.8514161256366077e+18
14515.0	1.8510640322707456e+18
14516.0	1.8484820204060685e+18
14517.0	1.8503030211084283e+18
14518.0	1.8500064116735992e+18
14519.0	1.849650746438451e+18
14520.0	1.8492963210395645e+18
14521.0	1.8489371141341181e+18
14522.0	1.8485715033653245e+18
14523.0	1.8481494389424128e+18
14524.0	1.8478231539679232e+18
14525.0	1.8474974880727035e+18
14526.0	1.8471407524511741e+18
14527.0	1.8467585490157565e+18
14528.0	1.8463122381602816e+18
14529.0	1.846061056393216e+18
14530.0	1.8456980695810043e+18
14531.0	1.845353975591731e+18
14532.0	1.8449652844068861e+18
14533.0	1.8446390195650552e+18
14534.0	1.8442845002137597e+18
14535.0	1.8439153964285947e+18
14536.0	1.8435642123878397e+18
14537.0	1.8431979758288893e+18
14538.0	1.8428530446565376e+18
14539.0	1.8424956597567483e+18
14540.0	1.842137640678195e+18
14541.0	1.8417560076681213e+18
14542.0	1.8414176112214016e+18
14543.0	1.8410329667010555e+18
14544.0	1.840698105213747e+18
14545.0	1.8403139908534272e+18
14546.0	1.837021405170891e+18
14547.0	1.8367992496652262e+18
14548.0	1.839231628895846e+18
14549.0	1.838756469617459e+18
14550.0	1.8384510806654976e+18
14551.0	1.8381089579991037e+18
14552.0	1.837751571421593e+18
14553.0	1.8373887976800256e+18
14554.0	1.8370383770025981e+18
14555.0	1.8366803747012605e+18
14556.0	1.8363214194540541e+18
14557.0	1.835960932447027e+18
14558.0	1.8355788615516155e+18
14559.0	1.833577312839268e+18
14560.0	1.8348567567532027e+18
14561.0	1.834521581531955e+18
14562.0	1.8341387288182781e+18
14563.0	1.8337990052937725e+18
14564.0	1.8334160435281917e+18
14565.0	1.833101586490982e+18
14566.0	1.8327477315174397e+18
14567.0	1.8323863217635325e+18
14568.0	1.8320151912906747e+18
14569.0	1.831662735536947e+18
14570.0	1.8308486613958653e+18
14571.0	1.8309496904351744e+18
14572.0	1.830560136901427e+18
14573.0	1.8301819599978493e+18
14574.0	1.8298107087290365e+18
14575.0	1.829496610724249e+18
14576.0	1.8291367897726976e+18
14577.0	1.8288141186105341e+18
14578.0	1.8284621208748032e+18
14579.0	1.8281105207590912e+18
14580.0	1.8277524429602813e+18
14581.0	1.8273896927068155e+18
14582.0	1.827025417404416e+18
14583.0	1.82668414198743e+18
14584.0	1.8262860555616256e+18
14585.0	1.8259575224401917e+18
14586.0	1.8256045415596027e+18
14587.0	1.82525073859543e+18
14588.0	1.8248948217020416e+18
14589.0	1.824540557364428e+18
14590.0	1.8241861722308605e+18
14591.0	1.823827071021875e+18
14592.0	1.823461721977651e+18
14593.0	1.823013711590195e+18
14594.0	1.8227624056717312e+18
14595.0	1.8223991470686205e+18
14596.0	1.8216462896332792e+18
14597.0	1.8212071661371387e+18
14598.0	1.8212880054747133e+18
14599.0	1.8209895757119485e+18
14600.0	1.820632424015462e+18
14601.0	1.8202784532791293e+18
14602.0	1.8199137233141752e+18
14603.0	1.8195647672877056e+18
14604.0	1.8191608793006077e+18
14605.0	1.8188066350956541e+18
14606.0	1.8184243175751677e+18
14607.0	1.8181447185596413e+18
14608.0	1.8177908166098941e+18
14609.0	1.817425781299609e+18
14610.0	1.8170434621014008e+18
14611.0	1.8167091878166525e+18
14612.0	1.8163832434196477e+18
14613.0	1.8160366999568381e+18
14614.0	1.8156316342091768e+18
14615.0	1.8152370525437947e+18
14616.0	1.8148878649917437e+18
14617.0	1.8145201218387965e+18
14618.0	1.8141358699053053e+18
14619.0	1.8133393178886136e+18
14620.0	1.8124688739794941e+18
14621.0	1.8130930602344443e+18
14622.0	1.8127590678069245e+18
14623.0	1.812412430391705e+18
14624.0	1.8120096983547907e+18
14625.0	1.8117029370265597e+18
14626.0	1.8113496122130432e+18
14627.0	1.8109961515040765e+18
14628.0	1.8106491517009915e+18
14629.0	1.8102936945033216e+18
14630.0	1.8099313569693693e+18
14631.0	1.809581578859315e+18
14632.0	1.8090370659254264e+18
14633.0	1.8088292784275453e+18
14634.0	1.8085123031302141e+18
14635.0	1.8080971173658616e+18
14636.0	1.8075916819234808e+18
14637.0	1.8074630610747387e+18
14638.0	1.80708294304727e+18
14639.0	1.806718966379315e+18
14640.0	1.8063783284965376e+18
14641.0	1.8053049943588854e+18
14642.0	1.8056653404372987e+18
14643.0	1.8053273734873085e+18
14644.0	1.8049589374353405e+18
14645.0	1.804598468883251e+18
14646.0	1.8042345173811197e+18
14647.0	1.803853669544755e+18
14648.0	1.8035236784832512e+18
