# Flux units: erg / (cm m2 s)
# Wavelength units: Angstrom
wave	flux
14000.0	2.4305669389680635e+18
14001.0	2.4302520725667835e+18
14002.0	2.429769645398425e+18
14003.0	2.4292490500636667e+18
14004.0	2.428726183093862e+18
14005.0	2.428202544372121e+18
14006.0	2.4276747767775227e+18
14007.0	2.4271485057105915e+18
14008.0	2.4265734683099126e+18
14009.0	2.4261024647479296e+18
14010.0	2.425572437262336e+18
14011.0	2.424732928861798e+18
14012.0	2.424533224626585e+18
14013.0	2.4240131879731195e+18
14014.0	2.4234864806985723e+18
14015.0	2.422966073268633e+18
14016.0	2.4224444595568635e+18
14017.0	2.421921803979981e+18
14018.0	2.421399014185369e+18
14019.0	2.4208764777267195e+18
14020.0	2.420353392653107e+18
14021.0	2.4198300810870784e+18
14022.0	2.4193031657750523e+18
14023.0	2.4187644544024576e+18
14024.0	2.4182475802542075e+18
14025.0	2.417740777468723e+18
14026.0	2.4172196117086203e+18
14027.0	2.4166986892181504e+18
14028.0	2.416175273633382e+18
14029.0	2.4156431775170555e+18
14030.0	2.4131180454477834e+18
14031.0	2.4144703813320694e+18
14032.0	2.414083644692889e+18
14033.0	2.4135366084657147e+18
14034.0	2.413047542552985e+18
14035.0	2.4125311314558976e+18
14036.0	2.412003328629145e+18
14037.0	2.4114927711027195e+18
14038.0	2.4109731773677563e+18
14039.0	2.410450538568089e+18
14040.0	2.4099299499442176e+18
14041.0	2.409412696630886e+18
14042.0	2.4088883549437947e+18
14043.0	2.40835420529623e+18
14044.0	2.4078508519063547e+18
14045.0	2.407335407176909e+18
14046.0	2.406814023312998e+18
14047.0	2.4062873630146555e+18
14048.0	2.4057792566394875e+18
14049.0	2.4052622465957883e+18
14050.0	2.4047440873127936e+18
14051.0	2.4042208663437307e+18
14052.0	2.403704282441318e+18
14053.0	2.403189688316722e+18
14054.0	2.4026720323502075e+18
14055.0	2.4021542924976123e+18
14056.0	2.401636665052365e+18
14057.0	2.4011191869243387e+18
14058.0	2.400601814492774e+18
14059.0	2.4000803500982267e+18
14060.0	2.3995672608899067e+18
14061.0	2.3990468199055355e+18
14062.0	2.398533066319462e+18
14063.0	2.3980045286506496e+18
14064.0	2.397208109173965e+18
14065.0	2.396978137163366e+18
14066.0	2.3964672021495803e+18
14067.0	2.3959270999457787e+18
14068.0	2.3954347708645376e+18
14069.0	2.3949156368252923e+18
14070.0	2.3944013396574203e+18
14071.0	2.3938858328522747e+18
14072.0	2.3933718963945467e+18
14073.0	2.392856356034969e+18
14074.0	2.3923406395146235e+18
14075.0	2.391812234385817e+18
14076.0	2.391280128203161e+18
14077.0	2.390330415303885e+18
14078.0	2.390241912134041e+18
14079.0	2.3897589564833787e+18
14080.0	2.389250962515558e+18
14081.0	2.3887372340953083e+18
14082.0	2.388220995803545e+18
14083.0	2.387707126454681e+18
14084.0	2.3871874303787003e+18
14085.0	2.3862997042593787e+18
14086.0	2.3861198575370235e+18
14087.0	2.3856504796872704e+18
14088.0	2.385126493677158e+18
14089.0	2.384604275985613e+18
14090.0	2.384108955526758e+18
14091.0	2.38360002035712e+18
14092.0	2.383087629080985e+18
14093.0	2.3825744157212667e+18
14094.0	2.3820603014250496e+18
14095.0	2.381542430710169e+18
14096.0	2.3809631453183995e+18
14097.0	2.380472790915481e+18
14098.0	2.3799739573075963e+18
14099.0	2.3794955533156347e+18
14100.0	2.3789813484224507e+18
14101.0	2.3784771612049403e+18
14102.0	2.377965868836454e+18
14103.0	2.3774474629283835e+18
14104.0	2.376943460260249e+18
14105.0	2.3764319749537787e+18
14106.0	2.375921001352397e+18
14107.0	2.3754091956011003e+18
14108.0	2.374890534679347e+18
14109.0	2.374384287219712e+18
14110.0	2.3738726274301947e+18
14111.0	2.3733593301843963e+18
14112.0	2.3728487441367035e+18
14113.0	2.3723305445883894e+18
14114.0	2.3718202722746363e+18
14115.0	2.37130658915287e+18
14116.0	2.3706919742996475e+18
14117.0	2.3667783464124416e+18
14118.0	2.3697472526221307e+18
14119.0	2.3692154534625275e+18
14120.0	2.3687234364375035e+18
14121.0	2.3682417977982976e+18
14122.0	2.3677349060935675e+18
14123.0	2.3672017882447867e+18
14124.0	2.3666896654041083e+18
14125.0	2.3659472853401595e+18
14126.0	2.365704374740582e+18
14127.0	2.3652128291553275e+18
14128.0	2.3647054106460155e+18
14129.0	2.364190725924454e+18
14130.0	2.3636760277811195e+18
14131.0	2.3631803701002235e+18
14132.0	2.3626657659092987e+18
14133.0	2.361843984315186e+18
14134.0	2.3616518147276795e+18
14135.0	2.361120455131136e+18
14136.0	2.360584894519705e+18
14137.0	2.360117261500415e+18
14138.0	2.359596077285376e+18
14139.0	2.359116398224998e+18
14140.0	2.358600141478297e+18
14141.0	2.35803279139799e+18
14142.0	2.3573915259371515e+18
14143.0	2.357075144553267e+18
14144.0	2.356587011453747e+18
14145.0	2.3560849415208955e+18
14146.0	2.35557492925399e+18
14147.0	2.3550718224891904e+18
14148.0	2.354560689504255e+18
14149.0	2.354053705524838e+18
14150.0	2.3535603698106363e+18
14151.0	2.3530374877413376e+18
14152.0	2.3525504048955387e+18
14153.0	2.352045308352921e+18
14154.0	2.351522786993766e+18
14155.0	2.35098510238679e+18
14156.0	2.350521819699609e+18
14157.0	2.3500255613943803e+18
14158.0	2.3495187082772475e+18
14159.0	2.3490171248836603e+18
14160.0	2.348505669776179e+18
14161.0	2.3479732045611003e+18
14162.0	2.3474377798451195e+18
14163.0	2.346986343550157e+18
14164.0	2.3464013807484923e+18
14165.0	2.3459353415647227e+18
14166.0	2.3454822594248704e+18
14167.0	2.344974773806694e+18
14168.0	2.3444778142138363e+18
14169.0	2.343976214043033e+18
14170.0	2.3434738102435835e+18
14171.0	2.3429741964951547e+18
14172.0	2.3424730878967803e+18
14173.0	2.3419437314998267e+18
14174.0	2.341448957978214e+18
14175.0	2.3409428497694715e+18
14176.0	2.340440130558361e+18
14177.0	2.3399387803680763e+18
14178.0	2.339436161820262e+18
14179.0	2.338930088843673e+18
14180.0	2.33843364766679e+18
14181.0	2.337931982064845e+18
14182.0	2.3374297628147707e+18
14183.0	2.336927949573325e+18
14184.0	2.336421155176448e+18
14185.0	2.3359082471620603e+18
14186.0	2.3347675139145723e+18
14187.0	2.3347824573808635e+18
14188.0	2.3341593381568507e+18
14189.0	2.3336563723206656e+18
14190.0	2.333156760249958e+18
14191.0	2.3326531635904507e+18
14192.0	2.332149565253222e+18
14193.0	2.33154911708119e+18
14194.0	2.3311540656537595e+18
14195.0	2.3306600940830715e+18
14196.0	2.3301606917275643e+18
14197.0	2.329660745790259e+18
14198.0	2.32915781854167e+18
14199.0	2.328657126018253e+18
14200.0	2.3277756494118907e+18
14201.0	2.3276183093247995e+18
14202.0	2.3271607996776443e+18
14203.0	2.326657063767245e+18
14204.0	2.3261620838858747e+18
14205.0	2.3255783206551547e+18
14206.0	2.324818319481241e+18
14207.0	2.324392379521433e+18
14208.0	2.3238943075991547e+18
14209.0	2.3233157033623547e+18
14210.0	2.322837312792166e+18
14211.0	2.3223938641297403e+18
14212.0	2.3218983406665723e+18
14213.0	2.3213967086190587e+18
14214.0	2.320900802635366e+18
14215.0	2.320396992905215e+18
14216.0	2.3199050262118395e+18
14217.0	2.3194067395411963e+18
14218.0	2.318900153181798e+18
14219.0	2.318410308806246e+18
14220.0	2.3179089149952e+18
14221.0	2.3174081536851963e+18
14222.0	2.316871670326886e+18
14223.0	2.31641649774592e+18
14224.0	2.3159136963264507e+18
14225.0	2.314170899261031e+18
14226.0	2.314606486120038e+18
14227.0	2.3141346655076347e+18
14228.0	2.3112780039061504e+18
14229.0	2.312644068586289e+18
14230.0	2.3126452983562235e+18
14231.0	2.3121126284591104e+18
14232.0	2.311655382214246e+18
14233.0	2.3111560972992507e+18
14234.0	2.310661957956403e+18
14235.0	2.310163798792601e+18
14236.0	2.3096683407605755e+18
14237.0	2.309169079333683e+18
14238.0	2.308672267380326e+18
14239.0	2.308166779928575e+18
14240.0	2.306864921654067e+18
14241.0	2.3071635225444347e+18
14242.0	2.306679952847667e+18
14243.0	2.3061019794341883e+18
14244.0	2.3056975763865595e+18
14245.0	2.3051940485136381e+18
14246.0	2.3046967214997496e+18
14247.0	2.3042084608933885e+18
14248.0	2.303509528785715e+18
14249.0	2.3029220158472187e+18
14250.0	2.3024258917597176e+18
14251.0	2.301931228967731e+18
14252.0	2.3014347961794552e+18
14253.0	2.300937212474163e+18
14254.0	2.3004369880350717e+18
14255.0	2.299907797732556e+18
14256.0	2.2982653418405896e+18
14257.0	2.298751161362022e+18
14258.0	2.298448376233984e+18
14259.0	2.2979480611979261e+18
14260.0	2.2974308934483968e+18
14261.0	2.29695240053719e+18
14262.0	2.2964714430529533e+18
14263.0	2.2942786005237763e+18
14264.0	2.2949384031305718e+18
14265.0	2.2949930884661243e+18
14266.0	2.2945232240771064e+18
14267.0	2.2940339601932285e+18
14268.0	2.293541585813504e+18
14269.0	2.2930464868139005e+18
14270.0	2.2925529732612088e+18
14271.0	2.2920554482761723e+18
14272.0	2.2915519254364155e+18
14273.0	2.2908482621538301e+18
14274.0	2.2874809994051587e+18
14275.0	2.2893702129123328e+18
14276.0	2.289245697448345e+18
14277.0	2.2887744522944504e+18
14278.0	2.288294935973068e+18
14279.0	2.2878031655731195e+18
14280.0	2.2873080095309821e+18
14281.0	2.2868195543089147e+18
14282.0	2.2863269970575352e+18
14283.0	2.2858341545934843e+18
14284.0	2.2853412030775293e+18
14285.0	2.2848480133251072e+18
14286.0	2.2843547145207805e+18
14287.0	2.2838623300747261e+18
14288.0	2.2833664073138173e+18
14289.0	2.2823517665886198e+18
14290.0	2.2823812391239675e+18
14291.0	2.2818922319314944e+18
14292.0	2.281400874251059e+18
14293.0	2.280906635922636e+18
14294.0	2.2803344489709565e+18
14295.0	2.2799098042122232e+18
14296.0	2.2790071027499005e+18
14297.0	2.2789237266972667e+18
14298.0	2.278037899758796e+18
14299.0	2.2779313862475773e+18
14300.0	2.277458424784486e+18
14301.0	2.2767261009838075e+18
14302.0	2.2761628680323067e+18
14303.0	2.2756464804233213e+18
14304.0	2.2751664624631803e+18
14305.0	2.2746798040809467e+18
14306.0	2.2741616699637752e+18
14307.0	2.273671837332275e+18
14308.0	2.2731898497269755e+18
14309.0	2.272685493059584e+18
14310.0	2.2721292176195581e+18
14311.0	2.271640034266316e+18
14312.0	2.271157477913395e+18
14313.0	2.270691816216985e+18
14314.0	2.2702347243225083e+18
14315.0	2.2697595667218427e+18
14316.0	2.2692458265575421e+18
14317.0	2.2687489927938043e+18
14318.0	2.2683015897415677e+18
14319.0	2.2678181861392381e+18
14320.0	2.2673304305270784e+18
14321.0	2.2668423343374333e+18
14322.0	2.2663305856286715e+18
14323.0	2.2658518595141624e+18
14324.0	2.265376794188185e+18
14325.0	2.264880876460441e+18
14326.0	2.264399764625817e+18
14327.0	2.2639063567695867e+18
14328.0	2.2634187655741437e+18
14329.0	2.262933902354022e+18
14330.0	2.262445302847897e+18
14331.0	2.261951710442291e+18
14332.0	2.261468216242995e+18
14333.0	2.260724133291622e+18
14334.0	2.2601667253895165e+18
14335.0	2.2596683766431736e+18
14336.0	2.2590621185212413e+18
14337.0	2.258698069711257e+18
14338.0	2.258209131305369e+18
14339.0	2.257710556066611e+18
14340.0	2.2572303049031677e+18
14341.0	2.2567380999733245e+18
14342.0	2.2562550285598717e+18
14343.0	2.255764987890892e+18
14344.0	2.2552737694613501e+18
14345.0	2.2547887049146365e+18
14346.0	2.2542960335781885e+18
14347.0	2.2537865011396603e+18
14348.0	2.2533174521233403e+18
14349.0	2.2528339948339192e+18
14350.0	2.2522438008963067e+18
14351.0	2.2517516966297595e+18
14352.0	2.2513675587813373e+18
14353.0	2.2508858362560504e+18
14354.0	2.2503867358904317e+18
14355.0	2.249875633104486e+18
14356.0	2.2493947897053181e+18
14357.0	2.2489377229766648e+18
14358.0	2.248451799436492e+18
14359.0	2.2479533953253373e+18
14360.0	2.247470068898201e+18
14361.0	2.246986230765977e+18
14362.0	2.2465035334844413e+18
14363.0	2.2460131186835448e+18
14364.0	2.2452144594485243e+18
14365.0	2.244940811311513e+18
14366.0	2.2445032480964605e+18
14367.0	2.2440720535126008e+18
14368.0	2.24358646719447e+18
14369.0	2.243046173730406e+18
14370.0	2.242249549571686e+18
14371.0	2.2417632787431421e+18
14372.0	2.2412729897713664e+18
14373.0	2.2407895324819453e+18
14374.0	2.2403030922035203e+18
14375.0	2.2398165529395195e+18
14376.0	2.2393300136755195e+18
14377.0	2.2388431724216315e+18
14378.0	2.2383556634345467e+18
14379.0	2.2378709226881021e+18
14380.0	2.2373840294248443e+18
14381.0	2.2368905460711421e+18
14382.0	2.2364115347439613e+18
14383.0	2.2359238059753467e+18
14384.0	2.2354273496989693e+18
14385.0	2.2349551566323704e+18
14386.0	2.2344588211519483e+18
14387.0	2.2339837172383744e+18
14388.0	2.2334973725900795e+18
14389.0	2.2330125160808443e+18
14390.0	2.2325263727591421e+18
14391.0	2.2320422057934845e+18
14392.0	2.2315562117890045e+18
14393.0	2.2310716539142144e+18
14394.0	2.2305597877649405e+18
14395.0	2.230087775892275e+18
14396.0	2.2296153462669304e+18
14397.0	2.2291315198787584e+18
14398.0	2.2286460140912637e+18
14399.0	2.2281608321040381e+18
14400.0	2.2276646442631165e+18
14401.0	2.2271850423779328e+18
14402.0	2.22669675996119e+18
14403.0	2.2254137525665777e+18
14404.0	2.2230273680736246e+18
14405.0	2.2243530768383977e+18
14406.0	2.2247527940095995e+18
14407.0	2.2232262418366464e+18
14408.0	2.223748268267929e+18
14409.0	2.2233055880019968e+18
14410.0	2.2227156910211072e+18
14411.0	2.2220191899320317e+18
14412.0	2.2215349122367483e+18
14413.0	2.221052339106611e+18
14414.0	2.2205659961360376e+18
14415.0	2.2200815624126461e+18
14416.0	2.2195879616184312e+18
14417.0	2.2190778503659515e+18
14418.0	2.2185971713835005e+18
14419.0	2.2181386316152827e+18
14420.0	2.2176530570412024e+18
14421.0	2.2171685528535037e+18
14422.0	2.2166710698115067e+18
14423.0	2.216121785437388e+18
14424.0	2.211317871227697e+18
14425.0	2.2151577598951421e+18
14426.0	2.2147272179449853e+18
14427.0	2.2142422557392893e+18
14428.0	2.213746096419635e+18
14429.0	2.2132757102591995e+18
14430.0	2.212784812274483e+18
14431.0	2.2117806992523264e+18
14432.0	2.211812534019686e+18
14433.0	2.2105454666579958e+18
14434.0	2.2108383817498621e+18
14435.0	2.210324064449331e+18
14436.0	2.2098908633104381e+18
14437.0	2.209413902159052e+18
14438.0	2.2088655069773821e+18
14439.0	2.2084368088432637e+18
14440.0	2.2079680416841723e+18
14441.0	2.2074832707387387e+18
14442.0	2.206998503148748e+18
14443.0	2.206492893223321e+18
14444.0	2.2060344323080184e+18
14445.0	2.205549431514726e+18
14446.0	2.2039246504198144e+18
14447.0	2.204561174639411e+18
14448.0	2.2041067603886075e+18
14449.0	2.20362590692311e+18
14450.0	2.2031394884550653e+18
14451.0	2.2026598127501304e+18
14452.0	2.20217488745431e+18
14453.0	2.201683075111321e+18
14454.0	2.2012109139214333e+18
14455.0	2.200722094633779e+18
14456.0	2.200235842260172e+18
14457.0	2.1997537154039803e+18
14458.0	2.199268191161548e+18
14459.0	2.1987794624708605e+18
14460.0	2.1979507585974267e+18
14461.0	2.1974055712194555e+18
14462.0	2.1968872391311355e+18
14463.0	2.1964574135681014e+18
14464.0	2.1960029372415995e+18
14465.0	2.1955212231049208e+18
14466.0	2.1950545497423872e+18
14467.0	2.1945586001379323e+18
14468.0	2.1940951429677056e+18
14469.0	2.1935786949607421e+18
14470.0	2.1931144207400957e+18
14471.0	2.1926539331371003e+18
14472.0	2.1921759401869312e+18
14473.0	2.1917001517629437e+18
14474.0	2.1912206169866237e+18
14475.0	2.19073702044631e+18
14476.0	2.1902081522663421e+18
14477.0	2.1897744796876795e+18
14478.0	2.1892965941116923e+18
14479.0	2.188813618328371e+18
14480.0	2.1883218898714621e+18
14481.0	2.1878540169379832e+18
14482.0	2.1873702912131064e+18
14483.0	2.1868856578408445e+18
14484.0	2.1864016653582333e+18
14485.0	2.1859034608959483e+18
14486.0	2.1852639184551933e+18
14487.0	2.18496288990167e+18
14488.0	2.18443067466711e+18
14489.0	2.1839553828487163e+18
14490.0	2.183515125212774e+18
14491.0	2.1830456634769405e+18
14492.0	2.182566004549222e+18
14493.0	2.1820734573641723e+18
14494.0	2.1815898121699323e+18
14495.0	2.1811211809062904e+18
14496.0	2.1805598639128573e+18
14497.0	2.1801617254776827e+18
14498.0	2.17968302620672e+18
14499.0	2.179202759943782e+18
14500.0	2.178721577644851e+18
14501.0	2.1782120686944248e+18
14502.0	2.1776018175950845e+18
14503.0	2.177256253921689e+18
14504.0	2.17679578309591e+18
14505.0	2.1762915187032056e+18
14506.0	2.1757886132649984e+18
14507.0	2.1752072273657853e+18
14508.0	2.1748790834757627e+18
14509.0	2.1744009428860925e+18
14510.0	2.173921220204953e+18
14511.0	2.1734405445779456e+18
14512.0	2.172951230362419e+18
14513.0	2.172479572489011e+18
14514.0	2.1719791920218112e+18
14515.0	2.1715142383239163e+18
14516.0	2.1694674632704008e+18
14517.0	2.170214296007475e+18
14518.0	2.169749629199974e+18
14519.0	2.1692700977790973e+18
14520.0	2.1687893131001853e+18
14521.0	2.1683075972857853e+18
14522.0	2.1678181924732925e+18
14523.0	2.167248741885542e+18
14524.0	2.1667991410180093e+18
14525.0	2.1663792760881147e+18
14526.0	2.1659039658147837e+18
14527.0	2.165407647111577e+18
14528.0	2.1648672630505472e+18
14529.0	2.164455061952921e+18
14530.0	2.163970264163942e+18
14531.0	2.163498416707993e+18
14532.0	2.1629497530908667e+18
14533.0	2.1625370335772667e+18
14534.0	2.1620602871742461e+18
14535.0	2.161571956103577e+18
14536.0	2.1610962364661752e+18
14537.0	2.16061130613719e+18
14538.0	2.1601384671477755e+18
14539.0	2.1596581471977467e+18
14540.0	2.1591774799593472e+18
14541.0	2.1586796110413821e+18
14542.0	2.1582128621813757e+18
14543.0	2.1576918205726715e+18
14544.0	2.157249386931814e+18
14545.0	2.156753012863795e+18
14546.0	2.1517893376147428e+18
14547.0	2.1516672749797343e+18
14548.0	2.1553077278474237e+18
14549.0	2.154773618465177e+18
14550.0	2.154365915339161e+18
14551.0	2.1538928263692283e+18
14552.0	2.1534124191776765e+18
14553.0	2.1529295843229693e+18
14554.0	2.152453010725273e+18
14555.0	2.151972239468134e+18
14556.0	2.1514904682889216e+18
14557.0	2.1510100308983803e+18
14558.0	2.1505220219502587e+18
14559.0	2.149075601116363e+18
14560.0	2.1495517787717627e+18
14561.0	2.149081505018675e+18
14562.0	2.1485818711375867e+18
14563.0	2.1481135468969984e+18
14564.0	2.1476124080996347e+18
14565.0	2.1471648607633403e+18
14566.0	2.1466861447151616e+18
14567.0	2.1461997497352187e+18
14568.0	2.14569787106263e+18
14569.0	2.14523628790743e+18
14570.0	2.1444763253211133e+18
14571.0	2.1442763224514555e+18
14572.0	2.143766670894694e+18
14573.0	2.143273211029094e+18
14574.0	2.1427746777333755e+18
14575.0	2.1423329403469821e+18
14576.0	2.1418517815361533e+18
14577.0	2.1413981893689344e+18
14578.0	2.1409240249794555e+18
14579.0	2.1404449163444221e+18
14580.0	2.1399544797331448e+18
14581.0	2.1391638735618043e+18
14582.0	2.1386783191203837e+18
14583.0	2.1382078406852603e+18
14584.0	2.1377023683330043e+18
14585.0	2.1372436725366781e+18
14586.0	2.1367633592975355e+18
14587.0	2.1362835409862648e+18
14588.0	2.1358030901739515e+18
14589.0	2.1353279896158203e+18
14590.0	2.1348532816445437e+18
14591.0	2.1343749397282816e+18
14592.0	2.13389586464768e+18
14593.0	2.1333544102002683e+18
14594.0	2.132951246988902e+18
14595.0	2.1324721920409592e+18
14596.0	2.131729877408153e+18
14597.0	2.1311992962744312e+18
14598.0	2.131015818962534e+18
14599.0	2.1305735463829501e+18
14600.0	2.1300952766087165e+18
14601.0	2.1296207280209915e+18
14602.0	2.1291422787305467e+18
14603.0	2.1286660557766648e+18
14604.0	2.128159716042342e+18
14605.0	2.1276838756089853e+18
14606.0	2.1271957039218683e+18
14607.0	2.1267611220180987e+18
14608.0	2.126289351737344e+18
14609.0	2.125806899403161e+18
14610.0	2.1253229555744768e+18
14611.0	2.1248549685559293e+18
14612.0	2.1243897715884027e+18
14613.0	2.123918466036531e+18
14614.0	2.1234429745692667e+18
14615.0	2.122968112247603e+18
14616.0	2.1224949813346301e+18
14617.0	2.1220179312639995e+18
14618.0	2.121509348415897e+18
14619.0	2.1207648728776696e+18
14620.0	2.1198452415266816e+18
14621.0	2.1201062614532093e+18
14622.0	2.1196371218399227e+18
14623.0	2.1191647945555968e+18
14624.0	2.1186530374582267e+18
14625.0	2.118210259884441e+18
14626.0	2.117736137438003e+18
14627.0	2.1172575740624893e+18
14628.0	2.1167848290254843e+18
14629.0	2.1163069702930424e+18
14630.0	2.1158262443343872e+18
14631.0	2.1153522779160568e+18
14632.0	2.1145437536780288e+18
14633.0	2.1143255525621755e+18
14634.0	2.113912113306009e+18
14635.0	2.1133837618642934e+18
14636.0	2.1128013626212342e+18
14637.0	2.1124905915383805e+18
14638.0	2.1119942862569467e+18
14639.0	2.111510733337395e+18
14640.0	2.1110399914999803e+18
14641.0	2.1092470758572022e+18
14642.0	2.1100804723179515e+18
14643.0	2.1096152719949821e+18
14644.0	2.1091268469719037e+18
14645.0	2.10864576701399e+18
14646.0	2.1081460811235325e+18
14647.0	2.107652190083481e+18
14648.0	2.107198217073459e+18
14649.0	2.1067374207696896e+18
