# Flux units: erg / (cm m2 s)
# Wavelength units: Angstrom
wave	flux
14000.0	1.295066747581235e+18
14001.0	1.2948109176864765e+18
14002.0	1.2946051300327421e+18
14003.0	1.29437439885312e+18
14004.0	1.2941436911616e+18
14005.0	1.2939130824556541e+18
14006.0	1.2936815191261181e+18
14007.0	1.2934514405801981e+18
14008.0	1.293211267183411e+18
14009.0	1.2929909705932797e+18
14010.0	1.2927593393160192e+18
14011.0	1.292453000773632e+18
14012.0	1.2922999095164925e+18
14013.0	1.2920696648761341e+18
14014.0	1.2918394529513472e+18
14015.0	1.2916090581549053e+18
14016.0	1.2913792027459584e+18
14017.0	1.2911491493658621e+18
14018.0	1.290919124507033e+18
14019.0	1.290689186050867e+18
14020.0	1.2904591947464701e+18
14021.0	1.29022928397271e+18
14022.0	1.2899994679902203e+18
14023.0	1.2897693844111357e+18
14024.0	1.2895390810505213e+18
14025.0	1.2893104377954301e+18
14026.0	1.2890806503342077e+18
14027.0	1.288851283981107e+18
14028.0	1.2886217699885053e+18
14029.0	1.288392276967424e+18
14030.0	1.2881266659557373e+18
14031.0	1.2879318665396221e+18
14032.0	1.2877041602920445e+18
14033.0	1.2874707967672317e+18
14034.0	1.2872456809218045e+18
14035.0	1.287016519250739e+18
14036.0	1.286787392811827e+18
14037.0	1.286558316704563e+18
14038.0	1.2863292850569213e+18
14039.0	1.2861003104518144e+18
14040.0	1.2858702939815933e+18
14041.0	1.2856421716590592e+18
14042.0	1.2854126249508861e+18
14043.0	1.2851796221362173e+18
14044.0	1.284954486158131e+18
14045.0	1.2847270978387963e+18
14046.0	1.2844988236824573e+18
14047.0	1.284270098219008e+18
14048.0	1.2840416210583552e+18
14049.0	1.2838131875184635e+18
14050.0	1.2835847447511037e+18
14051.0	1.283355416146739e+18
14052.0	1.2831279993061373e+18
14053.0	1.282899697467392e+18
14054.0	1.2826714501545981e+18
14055.0	1.2824432456237053e+18
14056.0	1.2822150855524347e+18
14057.0	1.2819869850402813e+18
14058.0	1.281758929826611e+18
14059.0	1.2815309207502845e+18
14060.0	1.2813029578113021e+18
14061.0	1.2810742122151936e+18
14062.0	1.2808471837671421e+18
14063.0	1.280617798120243e+18
14064.0	1.280383277806387e+18
14065.0	1.2801628528705536e+18
14066.0	1.279936207781888e+18
14067.0	1.2797085887758333e+18
14068.0	1.2794810108739581e+18
14069.0	1.2792533373419517e+18
14070.0	1.2790259993542653e+18
14071.0	1.278798220964659e+18
14072.0	1.2785711891611645e+18
14073.0	1.2783438545289216e+18
14074.0	1.2781165777780733e+18
14075.0	1.2778876946087933e+18
14076.0	1.2776621484277757e+18
14077.0	1.277427312702259e+18
14078.0	1.2772073910829053e+18
14079.0	1.2769802368057344e+18
14080.0	1.2767538718965757e+18
14081.0	1.2765269206237181e+18
14082.0	1.2762995968966653e+18
14083.0	1.2760730122059773e+18
14084.0	1.2758463553732605e+18
14085.0	1.2755919565750272e+18
14086.0	1.2753899203067901e+18
14087.0	1.2751636099235837e+18
14088.0	1.2749358650884093e+18
14089.0	1.2747103994380285e+18
14090.0	1.2744837702877181e+18
14091.0	1.2742574053785597e+18
14092.0	1.274030979232563e+18
14093.0	1.2738045983850493e+18
14094.0	1.2735782603194365e+18
14095.0	1.2733519700688893e+18
14096.0	1.2731241656745981e+18
14097.0	1.2728981321154557e+18
14098.0	1.2726727117635581e+18
14099.0	1.2724472905728e+18
14100.0	1.272219762163712e+18
14101.0	1.271995244426035e+18
14102.0	1.2717692570042365e+18
14103.0	1.2715413041315837e+18
14104.0	1.2713149283172347e+18
14105.0	1.2710890650468352e+18
14106.0	1.2708633200558077e+18
14107.0	1.2706374685294592e+18
14108.0	1.2704108729335805e+18
14109.0	1.2701857898037245e+18
14110.0	1.269960210068275e+18
14111.0	1.2697338535477245e+18
14112.0	1.2695095119708157e+18
14113.0	1.2692842400972795e+18
14114.0	1.269057616818995e+18
14115.0	1.268833323057152e+18
14116.0	1.2686063919169536e+18
14117.0	1.2683197959634941e+18
14118.0	1.2681577314123776e+18
14119.0	1.2679318446538752e+18
14120.0	1.2677066835099645e+18
14121.0	1.2674821422841853e+18
14122.0	1.2672557152993277e+18
14123.0	1.267030773936947e+18
14124.0	1.2668038637682688e+18
14125.0	1.2665304899387392e+18
14126.0	1.2663552082968573e+18
14127.0	1.266130424640307e+18
14128.0	1.265905526898688e+18
14129.0	1.265679918641971e+18
14130.0	1.2654548204126205e+18
14131.0	1.2652317388046333e+18
14132.0	1.2650071757684736e+18
14133.0	1.264724636545843e+18
14134.0	1.2645581956579325e+18
14135.0	1.2643324917710845e+18
14136.0	1.2641076611383293e+18
14137.0	1.2638850820079616e+18
14138.0	1.263660113802035e+18
14139.0	1.2634365565599744e+18
14140.0	1.263211566543667e+18
14141.0	1.2629882458603517e+18
14142.0	1.2627594927144957e+18
14143.0	1.2625395308298235e+18
14144.0	1.2623161841418237e+18
14145.0	1.2620922359906301e+18
14146.0	1.2618663752368125e+18
14147.0	1.2616418138783744e+18
14148.0	1.2614180158832635e+18
14149.0	1.2611943420395517e+18
14150.0	1.2609706228973565e+18
14151.0	1.2607466680352765e+18
14152.0	1.2605233163141117e+18
14153.0	1.260299717129011e+18
14154.0	1.259990487872307e+18
14155.0	1.2596409144442875e+18
14156.0	1.2594349137199101e+18
14157.0	1.2592119151591421e+18
14158.0	1.2589880861261821e+18
14159.0	1.2587650607218688e+18
14160.0	1.258541771076403e+18
14161.0	1.2583117042745341e+18
14162.0	1.2580841397944317e+18
14163.0	1.257871844258611e+18
14164.0	1.2576462754283517e+18
14165.0	1.2574163982090237e+18
14166.0	1.257202798244659e+18
14167.0	1.2569785371983867e+18
14168.0	1.2567566761328637e+18
14169.0	1.2565340558983165e+18
14170.0	1.256310808195891e+18
14171.0	1.2560862770364413e+18
14172.0	1.255863110703513e+18
14173.0	1.2556347685994493e+18
14174.0	1.2554174348656637e+18
14175.0	1.2551951224930301e+18
14176.0	1.2549725551067133e+18
14177.0	1.2547500296634365e+18
14178.0	1.2545274639548416e+18
14179.0	1.2543039402672125e+18
14180.0	1.2540827234467837e+18
14181.0	1.2538604211404797e+18
14182.0	1.2536380022325245e+18
14183.0	1.2534158374993917e+18
14184.0	1.2531931098906621e+18
14185.0	1.252971475317555e+18
14186.0	1.252737131164467e+18
14187.0	1.2525247374819325e+18
14188.0	1.252305148051456e+18
14189.0	1.2520831141806077e+18
14190.0	1.2518612615036925e+18
14191.0	1.2516393551396861e+18
14192.0	1.2514167726538752e+18
14193.0	1.2511941289312253e+18
14194.0	1.250973917066035e+18
14195.0	1.2507524041277437e+18
14196.0	1.2505307074789373e+18
14197.0	1.250309103104819e+18
14198.0	1.2500863763349501e+18
14199.0	1.249863314859622e+18
14200.0	1.2496347663958013e+18
14201.0	1.2494205473521661e+18
14202.0	1.2491992122523645e+18
14203.0	1.2489765819514877e+18
14204.0	1.2487562383851517e+18
14205.0	1.2485349980766205e+18
14206.0	1.2483012998463488e+18
14207.0	1.2480928865583101e+18
14208.0	1.2478718123442173e+18
14209.0	1.2476356302471165e+18
14210.0	1.247421172128153e+18
14211.0	1.2472086291283965e+18
14212.0	1.246987566658355e+18
14213.0	1.2467666761547773e+18
14214.0	1.2465457906843645e+18
14215.0	1.246323402814259e+18
14216.0	1.2461043653541888e+18
14217.0	1.2458836543668224e+18
14218.0	1.2456618830594045e+18
14219.0	1.2454423447994365e+18
14220.0	1.2452217881624573e+18
14221.0	1.2450012080373757e+18
14222.0	1.2447807327698941e+18
14223.0	1.2445603069951997e+18
14224.0	1.244339929035571e+18
14225.0	1.244096323859251e+18
14226.0	1.243899267068723e+18
14227.0	1.2436790115827712e+18
14228.0	1.2433824231194621e+18
14229.0	1.2432320564822013e+18
14230.0	1.2430174675009533e+18
14231.0	1.2427959033921533e+18
14232.0	1.2425758618157053e+18
14233.0	1.2423558579879936e+18
14234.0	1.242135901975347e+18
14235.0	1.2419157018542075e+18
14236.0	1.2416961182957565e+18
14237.0	1.2414761497001981e+18
14238.0	1.2412564789002237e+18
14239.0	1.241036201603891e+18
14240.0	1.2406134216327168e+18
14241.0	1.2405974404956157e+18
14242.0	1.2403778611314688e+18
14243.0	1.2401418157686781e+18
14244.0	1.2399388005498877e+18
14245.0	1.239717986382643e+18
14246.0	1.2394970086375421e+18
14247.0	1.2392805406081021e+18
14248.0	1.2390589672718333e+18
14249.0	1.2388416855474173e+18
14250.0	1.2386224190783488e+18
14251.0	1.238403483120435e+18
14252.0	1.2381843164758013e+18
14253.0	1.237965144798003e+18
14254.0	1.2377458640683008e+18
14255.0	1.2375230550900733e+18
14256.0	1.2372866389508093e+18
14257.0	1.2370884060774397e+18
14258.0	1.2368703333072893e+18
14259.0	1.2366500652384253e+18
14260.0	1.2364312156831741e+18
14261.0	1.2362127369043965e+18
14262.0	1.2360093316153344e+18
14263.0	1.2357584325443581e+18
14264.0	1.235567047291699e+18
14265.0	1.2353534531993597e+18
14266.0	1.23513482510336e+18
14267.0	1.2349139304054781e+18
14268.0	1.2346954801479677e+18
14269.0	1.2344767614550013e+18
14270.0	1.2342586945568765e+18
14271.0	1.2340402300387325e+18
14272.0	1.233822085126553e+18
14273.0	1.2336037959303165e+18
14274.0	1.233339137864499e+18
14275.0	1.2331633554227195e+18
14276.0	1.2329486339014653e+18
14277.0	1.2327293598826493e+18
14278.0	1.2325132802457597e+18
14279.0	1.232295293039411e+18
14280.0	1.2320764929769467e+18
14281.0	1.231859475493683e+18
14282.0	1.2316416644481021e+18
14283.0	1.2314238651465725e+18
14284.0	1.2312061052715005e+18
14285.0	1.2309883881783293e+18
14286.0	1.2307706098483197e+18
14287.0	1.2305530915651581e+18
14288.0	1.2303354885570557e+18
14289.0	1.2299880785510392e+18
14290.0	1.229900278346547e+18
14291.0	1.2296829009919997e+18
14292.0	1.2294655941017597e+18
14293.0	1.2292479692832763e+18
14294.0	1.2290161291296765e+18
14295.0	1.2288124134621181e+18
14296.0	1.2284918084141053e+18
14297.0	1.2283791863185403e+18
14298.0	1.2281418977640445e+18
14299.0	1.2279446010593277e+18
14300.0	1.2277279040208893e+18
14301.0	1.2275108286562301e+18
14302.0	1.2272934823395325e+18
14303.0	1.2270735489761277e+18
14304.0	1.226858388730675e+18
14305.0	1.2266429625663485e+18
14306.0	1.2264239905374205e+18
14307.0	1.2262077129293821e+18
14308.0	1.2259904588873728e+18
14309.0	1.2257736813182973e+18
14310.0	1.225547640209408e+18
14311.0	1.2253304868306941e+18
14312.0	1.2251209628909565e+18
14313.0	1.2248831726977021e+18
14314.0	1.2246907782955003e+18
14315.0	1.224474547663667e+18
14316.0	1.2242526211670013e+18
14317.0	1.2240409170280445e+18
14318.0	1.2238255420342267e+18
14319.0	1.2236093357293565e+18
14320.0	1.223393071543091e+18
14321.0	1.2231769558351872e+18
14322.0	1.222955962990592e+18
14323.0	1.2227434921328637e+18
14324.0	1.2225287001473024e+18
14325.0	1.2223127102685181e+18
14326.0	1.2220967572996093e+18
14327.0	1.2218808429182973e+18
14328.0	1.221664212988723e+18
14329.0	1.221449145856819e+18
14330.0	1.2212333598212093e+18
14331.0	1.2210175779799037e+18
14332.0	1.2208019093848061e+18
14333.0	1.220586255889203e+18
14334.0	1.2203706384646144e+18
14335.0	1.2201528274190333e+18
14336.0	1.2199373182074877e+18
14337.0	1.219723979128832e+18
14338.0	1.2195083809980413e+18
14339.0	1.2192929514782717e+18
14340.0	1.2190778314981373e+18
14341.0	1.2188623482912765e+18
14342.0	1.2186472241168384e+18
14343.0	1.2184316066922493e+18
14344.0	1.218216606669209e+18
14345.0	1.2180016645275645e+18
14346.0	1.2177861947424765e+18
14347.0	1.217569431434035e+18
14348.0	1.2173562978762752e+18
14349.0	1.2171413288910845e+18
14350.0	1.2169246704402432e+18
14351.0	1.216709687194419e+18
14352.0	1.2164959857278973e+18
14353.0	1.216281536836403e+18
14354.0	1.2160666836140032e+18
14355.0	1.2158516525531133e+18
14356.0	1.2156360703606781e+18
14357.0	1.2154205284335613e+18
14358.0	1.2152059117699067e+18
14359.0	1.2149900133269501e+18
14360.0	1.2147766012674045e+18
14361.0	1.2145622857547773e+18
14362.0	1.214347874612019e+18
14363.0	1.2141334399811581e+18
14364.0	1.213913537655603e+18
14365.0	1.2137042855067645e+18
14366.0	1.2134894062796797e+18
14367.0	1.2132762685276157e+18
14368.0	1.213062014251827e+18
14369.0	1.2128479151652861e+18
14370.0	1.2126337984626688e+18
14371.0	1.212419732091699e+18
14372.0	1.212205646426931e+18
14373.0	1.211991678202675e+18
14374.0	1.2117777267556352e+18
14375.0	1.2115632703143933e+18
14376.0	1.2113499756953597e+18
14377.0	1.2111360754188285e+18
14378.0	1.2109220610572285e+18
14379.0	1.2107086271873021e+18
14380.0	1.210494920687616e+18
14381.0	1.2102809172312061e+18
14382.0	1.2100674808446973e+18
14383.0	1.2098533331042301e+18
14384.0	1.2096387835494397e+18
14385.0	1.209427020690227e+18
14386.0	1.2092121657901053e+18
14387.0	1.2090001051353088e+18
14388.0	1.2087865404030976e+18
14389.0	1.2085734219448317e+18
14390.0	1.2083598379188224e+18
14391.0	1.2081468712943613e+18
14392.0	1.2079332998512637e+18
14393.0	1.2077205026766845e+18
14394.0	1.207503529653043e+18
14395.0	1.207293223056179e+18
14396.0	1.2070812253159421e+18
14397.0	1.2068682234593277e+18
14398.0	1.206655164560179e+18
14399.0	1.2064423212482557e+18
14400.0	1.2062269756145661e+18
14401.0	1.2060159501139963e+18
14402.0	1.2058037216870397e+18
14403.0	1.2054154725818363e+18
14404.0	1.2045988541759483e+18
14405.0	1.2049864833630195e+18
14406.0	1.204952906281779e+18
14407.0	1.2044590840283133e+18
14408.0	1.2045274386006016e+18
14409.0	1.2043127330177024e+18
14410.0	1.2041022628429824e+18
14411.0	1.203890182894387e+18
14412.0	1.2036756249509885e+18
14413.0	1.2034631448657917e+18
14414.0	1.2032505406291965e+18
14415.0	1.2030383734390781e+18
14416.0	1.2028262641303552e+18
14417.0	1.2026137412632573e+18
14418.0	1.202400101033574e+18
14419.0	1.2021895184515067e+18
14420.0	1.2019770048118781e+18
14421.0	1.201765478511411e+18
14422.0	1.2015535302639613e+18
14423.0	1.2013409411268608e+18
14424.0	1.1999711619710963e+18
14425.0	1.2009173633990653e+18
14426.0	1.20070590169088e+18
14427.0	1.2004938771070973e+18
14428.0	1.2002797771816957e+18
14429.0	1.2000703950094333e+18
14430.0	1.1998588972302333e+18
14431.0	1.1996373054390267e+18
14432.0	1.199434918526976e+18
14433.0	1.199012177982259e+18
14434.0	1.1990113617707008e+18
14435.0	1.1987987248185341e+18
14436.0	1.1985894751862781e+18
14437.0	1.198377986634547e+18
14438.0	1.1981611696390141e+18
14439.0	1.1979542772056061e+18
14440.0	1.1977438389075965e+18
14441.0	1.1975314183815165e+18
14442.0	1.1973186195292157e+18
14443.0	1.1971029257682941e+18
14444.0	1.196898500424499e+18
14445.0	1.1966879748849661e+18
14446.0	1.1961733304287235e+18
14447.0	1.1962651982692352e+18
14448.0	1.1960548967055357e+18
14449.0	1.195843943346995e+18
14450.0	1.1956329874718717e+18
14451.0	1.1954221121273853e+18
14452.0	1.1952112359440381e+18
14453.0	1.1949973683830781e+18
14454.0	1.1947896865816573e+18
14455.0	1.194578286949171e+18
14456.0	1.1943676708126717e+18
14457.0	1.1941566411177981e+18
14458.0	1.1939469116571643e+18
14459.0	1.1937360698671101e+18
14460.0	1.193525772497715e+18
14461.0	1.1933135751086077e+18
14462.0	1.1930959830056957e+18
14463.0	1.1928941447086075e+18
14464.0	1.192684140101632e+18
14465.0	1.1924703270666237e+18
14466.0	1.1922635000643581e+18
14467.0	1.1920491887460352e+18
14468.0	1.1918427996291067e+18
14469.0	1.1916302549516288e+18
14470.0	1.1914185004810237e+18
14471.0	1.1912109159874555e+18
14472.0	1.1910023064059901e+18
14473.0	1.1907923798130685e+18
14474.0	1.1905824003719163e+18
14475.0	1.1903723244617728e+18
14476.0	1.1901475701653501e+18
14477.0	1.1899501769916413e+18
14478.0	1.189740325057331e+18
14479.0	1.1895301006688253e+18
14480.0	1.1893194912432125e+18
14481.0	1.1891110209126397e+18
14482.0	1.1889009374527488e+18
14483.0	1.1886903297048573e+18
14484.0	1.1884814978252797e+18
14485.0	1.1882675723829245e+18
14486.0	1.1880279811555325e+18
14487.0	1.18785328587735e+18
14488.0	1.1876437845868541e+18
14489.0	1.1874334268194816e+18
14490.0	1.1872244800159744e+18
14491.0	1.1870153847341053e+18
14492.0	1.186806112452608e+18
14493.0	1.186596789839462e+18
14494.0	1.1863853323255805e+18
14495.0	1.1861783308402685e+18
14496.0	1.1859535178235901e+18
14497.0	1.1857598911348736e+18
14498.0	1.1855507765592061e+18
14499.0	1.1853417265758205e+18
14500.0	1.1851326262607872e+18
14501.0	1.184918663069696e+18
14502.0	1.184681998627635e+18
14503.0	1.1845038950580221e+18
14504.0	1.1842962602328061e+18
14505.0	1.1840834773188603e+18
14506.0	1.183867884221235e+18
14507.0	1.183641518473216e+18
14508.0	1.1834614368698365e+18
14509.0	1.1832526955872253e+18
14510.0	1.1830434996420608e+18
14511.0	1.1828353019412477e+18
14512.0	1.1826249299132413e+18
14513.0	1.1824180584513533e+18
14514.0	1.1822051799072765e+18
14515.0	1.1820008736817152e+18
14516.0	1.181452905480192e+18
14517.0	1.1815839288262656e+18
14518.0	1.181375528121139e+18
14519.0	1.1811671450320893e+18
14520.0	1.1809587837534203e+18
14521.0	1.1807500709920765e+18
14522.0	1.1805421442433021e+18
14523.0	1.180322112733184e+18
14524.0	1.1801134150713344e+18
14525.0	1.179916820493107e+18
14526.0	1.179709307302707e+18
14527.0	1.1795001700777981e+18
14528.0	1.179273795941171e+18
14529.0	1.1790839332208637e+18
14530.0	1.1788751055355901e+18
14531.0	1.1786688388923387e+18
14532.0	1.1784423179550717e+18
14533.0	1.1782530634088445e+18
14534.0	1.1780452557783037e+18
14535.0	1.177836240188211e+18
14536.0	1.1776294987497472e+18
14537.0	1.1774202415677437e+18
14538.0	1.177213847417651e+18
14539.0	1.1770061228343296e+18
14540.0	1.1767984259334144e+18
14541.0	1.176589206500147e+18
14542.0	1.176383102595891e+18
14543.0	1.1761670825181181e+18
14544.0	1.1759679025709053e+18
14545.0	1.1757601956036605e+18
14546.0	1.1736189975396332e+18
14547.0	1.1736476085649385e+18
14548.0	1.1751364539449344e+18
14549.0	1.1749163997855744e+18
14550.0	1.174723093541683e+18
14551.0	1.1745157934219261e+18
14552.0	1.174308394316595e+18
14553.0	1.1740995876028416e+18
14554.0	1.1738928612638717e+18
14555.0	1.1736843145969661e+18
14556.0	1.1734768030842877e+18
14557.0	1.1732699341389821e+18
14558.0	1.1730627514597373e+18
14559.0	1.172607386779647e+18
14560.0	1.172648120182374e+18
14561.0	1.1724405474328573e+18
14562.0	1.1722317927284733e+18
14563.0	1.172027442043289e+18
14564.0	1.1718196302184445e+18
14565.0	1.1716135313473533e+18
14566.0	1.1714066120703997e+18
14567.0	1.171199689438003e+18
14568.0	1.1709920244137981e+18
14569.0	1.170786004395622e+18
14570.0	1.1705108119158781e+18
14571.0	1.1703720593063936e+18
14572.0	1.1701609809575933e+18
14573.0	1.1699534803501053e+18
14574.0	1.1697502663213056e+18
14575.0	1.1695455448596477e+18
14576.0	1.1693387707056125e+18
14577.0	1.1691323857829888e+18
14578.0	1.1689254883164157e+18
14579.0	1.168719253549875e+18
14580.0	1.168512726859776e+18
14581.0	1.1683057731895293e+18
14582.0	1.1680997145837565e+18
14583.0	1.1678932893958144e+18
14584.0	1.1676855245471741e+18
14585.0	1.1674804566360064e+18
14586.0	1.1672736715767808e+18
14587.0	1.1670674250661885e+18
14588.0	1.166861885715251e+18
14589.0	1.166660488658944e+18
14590.0	1.1664598088286208e+18
14591.0	1.1662589939417083e+18
14592.0	1.1660583334051837e+18
14593.0	1.1658443072995325e+18
14594.0	1.1656573545873405e+18
14595.0	1.1654560623886336e+18
14596.0	1.165250035659571e+18
14597.0	1.165048985052774e+18
14598.0	1.1648546604318717e+18
14599.0	1.16465485217792e+18
14600.0	1.1644543166316541e+18
14601.0	1.1642540419710973e+18
14602.0	1.1640530660229117e+18
14603.0	1.1638532795793408e+18
14604.0	1.1636479549767677e+18
14605.0	1.1634512068870141e+18
14606.0	1.1632414774263805e+18
14607.0	1.162988424999731e+18
14608.0	1.1625761223999485e+18
14609.0	1.162375536522035e+18
14610.0	1.162173531291648e+18
14611.0	1.1619753638494205e+18
14612.0	1.1617754977140733e+18
14613.0	1.1615752817737725e+18
14614.0	1.1613744752754688e+18
14615.0	1.1611747727179773e+18
14616.0	1.1609745400004608e+18
14617.0	1.160774331609907e+18
14618.0	1.1605741064421373e+18
14619.0	1.1603718755581952e+18
14620.0	1.1601600489455613e+18
14621.0	1.159973647364915e+18
14622.0	1.1597735010500605e+18
14623.0	1.1595733664792573e+18
14624.0	1.1593666191687677e+18
14625.0	1.1591731082428413e+18
14626.0	1.1589727245303805e+18
14627.0	1.1587720077901824e+18
14628.0	1.1585728446201853e+18
14629.0	1.1583727746416637e+18
14630.0	1.1581725788340221e+18
14631.0	1.157972582675251e+18
14632.0	1.157673261203456e+18
14633.0	1.157565069131776e+18
14634.0	1.1573721043042301e+18
14635.0	1.1571575346167805e+18
14636.0	1.156906072670208e+18
14637.0	1.156772407751475e+18
14638.0	1.1565721163137021e+18
14639.0	1.1563709432332288e+18
14640.0	1.156171988939571e+18
14641.0	1.155600878246297e+18
14642.0	1.1557718137503741e+18
14643.0	1.155572346073907e+18
14644.0	1.1553722727399424e+18
14645.0	1.1551684253712381e+18
14646.0	1.154969456816947e+18
14647.0	1.1547691133698045e+18
