# Flux units: erg / (cm m2 s)
# Wavelength units: Angstrom
wave	flux
14000.0	1.8005403069579254e+18
14001.0	1.801524793992806e+18
14002.0	1.801454552822579e+18
14003.0	1.8011608609456123e+18
14004.0	1.8008428572049403e+18
14005.0	1.8005310979440637e+18
14006.0	1.80019946103767e+18
14007.0	1.799873328735846e+18
14008.0	1.7994309504598013e+18
14009.0	1.7992217771638781e+18
14010.0	1.798890848256e+18
14011.0	1.797944583074611e+18
14012.0	1.7982448952410112e+18
14013.0	1.7979476767932413e+18
14014.0	1.797620974066073e+18
14015.0	1.7973026867904507e+18
14016.0	1.7969811464126461e+18
14017.0	1.7966583628431355e+18
14018.0	1.796284640290406e+18
14019.0	1.7960113629298685e+18
14020.0	1.795686764065587e+18
14021.0	1.79536095388631e+18
14022.0	1.7950281727737853e+18
14023.0	1.7946916100767744e+18
14024.0	1.7943694103543803e+18
14025.0	1.794062179264102e+18
14026.0	1.793739338652057e+18
14027.0	1.793412105764864e+18
14028.0	1.7930652720562176e+18
14029.0	1.792660058669056e+18
14030.0	1.7883387259781135e+18
14031.0	1.7913692381249526e+18
14032.0	1.7917376221675517e+18
14033.0	1.7914092131975168e+18
14034.0	1.7911485221044221e+18
14035.0	1.7908353468465147e+18
14036.0	1.7904792303042555e+18
14037.0	1.7901947273084923e+18
14038.0	1.789881921149337e+18
14039.0	1.789556669651353e+18
14040.0	1.7892375502258176e+18
14041.0	1.7889173318926333e+18
14042.0	1.788586372785766e+18
14043.0	1.788237069470924e+18
14044.0	1.787915049264742e+18
14045.0	1.7875982501281787e+18
14046.0	1.7873051857190912e+18
14047.0	1.7869694870487037e+18
14048.0	1.7866628582604797e+18
14049.0	1.7863483072708605e+18
14050.0	1.7860279463313403e+18
14051.0	1.7856991380635643e+18
14052.0	1.7853813004173312e+18
14053.0	1.7850659978084347e+18
14054.0	1.7847455227838456e+18
14055.0	1.7844249236078587e+18
14056.0	1.7841043210764285e+18
14057.0	1.7837838007533563e+18
14058.0	1.7834631093026813e+18
14059.0	1.7830891770347515e+18
14060.0	1.7828216592924664e+18
14061.0	1.7824937838379003e+18
14062.0	1.782176402531942e+18
14063.0	1.7818119863009275e+18
14064.0	1.7806087210139648e+18
14065.0	1.7811996783149053e+18
14066.0	1.7808963764486144e+18
14067.0	1.780564108718899e+18
14068.0	1.7802584932745216e+18
14069.0	1.779932958241587e+18
14070.0	1.7796188317155325e+18
14071.0	1.7792992777601021e+18
14072.0	1.778982814167859e+18
14073.0	1.7786627015311355e+18
14074.0	1.7783412483948541e+18
14075.0	1.7779963742650365e+18
14076.0	1.777661814767616e+18
14077.0	1.7764288017989632e+18
14078.0	1.7769297275256827e+18
14079.0	1.7767213326925821e+18
14080.0	1.7764009818193915e+18
14081.0	1.7761036157321213e+18
14082.0	1.7757880446877696e+18
14083.0	1.775462004660633e+18
14084.0	1.775110263616307e+18
14085.0	1.774243435197235e+18
14086.0	1.774385437553459e+18
14087.0	1.7741488670638075e+18
14088.0	1.773854339681484e+18
14089.0	1.7735485833084925e+18
14090.0	1.7732359684095997e+18
14091.0	1.7729240883527677e+18
14092.0	1.7726074905427963e+18
14093.0	1.7722885506334715e+18
14094.0	1.7719667938295803e+18
14095.0	1.771634443891507e+18
14096.0	1.7712196154818552e+18
14097.0	1.77092737147863e+18
14098.0	1.7706359176822781e+18
14099.0	1.770369181758259e+18
14100.0	1.770050654568448e+18
14101.0	1.7697485858275328e+18
14102.0	1.7694302582865915e+18
14103.0	1.76909961962455e+18
14104.0	1.7687956248592381e+18
14105.0	1.7684817382473725e+18
14106.0	1.768164361974579e+18
14107.0	1.7678081498021888e+18
14108.0	1.7675069601873917e+18
14109.0	1.7672056346771456e+18
14110.0	1.766888986535526e+18
14111.0	1.766565952985497e+18
14112.0	1.76623877881856e+18
14113.0	1.765920290216345e+18
14114.0	1.7655749748457464e+18
14115.0	1.7652094479630333e+18
14116.0	1.764365612718489e+18
14117.0	1.7569492292861957e+18
14118.0	1.764023785331097e+18
14119.0	1.7638644755988475e+18
14120.0	1.7636016923869181e+18
14121.0	1.763339053459046e+18
14122.0	1.7630196723089405e+18
14123.0	1.7627136592445435e+18
14124.0	1.7623793413390333e+18
14125.0	1.761695478526771e+18
14126.0	1.7617980829466621e+18
14127.0	1.7615047383580672e+18
14128.0	1.7611980592381947e+18
14129.0	1.7608738798043133e+18
14130.0	1.760541055071027e+18
14131.0	1.7602435547660288e+18
14132.0	1.7599087368994813e+18
14133.0	1.7591189561671672e+18
14134.0	1.7592447433441277e+18
14135.0	1.75896866586624e+18
14136.0	1.7586535712948221e+18
14137.0	1.7583308229574653e+18
14138.0	1.7579974915522557e+18
14139.0	1.7577195148935165e+18
14140.0	1.7573876196179965e+18
14141.0	1.7569363477397496e+18
14142.0	1.756462639690547e+18
14143.0	1.7564267414814717e+18
14144.0	1.7561535714951165e+18
14145.0	1.7558482513297403e+18
14146.0	1.7555177754066944e+18
14147.0	1.7552216105680893e+18
14148.0	1.7549072374169597e+18
14149.0	1.7545977011372027e+18
14150.0	1.7542884316151805e+18
14151.0	1.7539682132819965e+18
14152.0	1.7536624988520443e+18
14153.0	1.7533510080266237e+18
14154.0	1.753010079898009e+18
14155.0	1.7526110489149443e+18
14156.0	1.7523979463950333e+18
14157.0	1.752095184755097e+18
14158.0	1.7517796908859387e+18
14159.0	1.751468387965337e+18
14160.0	1.751135851800166e+18
14161.0	1.7507851693981693e+18
14162.0	1.750423286526771e+18
14163.0	1.7501456168910848e+18
14164.0	1.7497519932047352e+18
14165.0	1.7495410985664507e+18
14166.0	1.7492680040775677e+18
14167.0	1.7489476733370363e+18
14168.0	1.7486486798598136e+18
14169.0	1.7483337899704317e+18
14170.0	1.748026433051033e+18
14171.0	1.7477151284527104e+18
14172.0	1.7474056961916928e+18
14173.0	1.747077874424217e+18
14174.0	1.7467715845357565e+18
14175.0	1.7464636756459515e+18
14176.0	1.7461577766666235e+18
14177.0	1.7458461717561341e+18
14178.0	1.745533729662566e+18
14179.0	1.7452182005612541e+18
14180.0	1.7449094142230523e+18
14181.0	1.744596524177817e+18
14182.0	1.7442819346006013e+18
14183.0	1.743965952514457e+18
14184.0	1.743636374172467e+18
14185.0	1.7432563064766461e+18
14186.0	1.7418536506884093e+18
14187.0	1.74250894861271e+18
14188.0	1.742369647388262e+18
14189.0	1.7420754907824123e+18
14190.0	1.7417752708907003e+18
14191.0	1.7414600806891512e+18
14192.0	1.7411243182653437e+18
14193.0	1.7406613493121024e+18
14194.0	1.7405285677137917e+18
14195.0	1.740235957967257e+18
14196.0	1.7399283644891133e+18
14197.0	1.739617613538918e+18
14198.0	1.7392992943865853e+18
14199.0	1.738971086743142e+18
14200.0	1.7378956034441216e+18
14201.0	1.7381720198217725e+18
14202.0	1.7380482257780733e+18
14203.0	1.737749962109747e+18
14204.0	1.7374425347260416e+18
14205.0	1.7371285273182203e+18
14206.0	1.7367115564580861e+18
14207.0	1.7365078659563515e+18
14208.0	1.7362038963568635e+18
14209.0	1.7357723578400763e+18
14210.0	1.7354857023275003e+18
14211.0	1.7352690631704576e+18
14212.0	1.7349695730876413e+18
14213.0	1.7346579916652541e+18
14214.0	1.7343510642425856e+18
14215.0	1.7340237223034875e+18
14216.0	1.7337339764277243e+18
14217.0	1.7334249451421693e+18
14218.0	1.7331020139331581e+18
14219.0	1.7328029449584637e+18
14220.0	1.7324826544832512e+18
14221.0	1.7321804565577725e+18
14222.0	1.73184203662295e+18
14223.0	1.7315465193848832e+18
14224.0	1.7311886110359547e+18
14225.0	1.728190834592974e+18
14226.0	1.7303464568684536e+18
14227.0	1.7301985724203005e+18
14228.0	1.7226412905725972e+18
14229.0	1.727567658326421e+18
14230.0	1.7293391880519672e+18
14231.0	1.729056627857817e+18
14232.0	1.7287819110121467e+18
14233.0	1.7284783826534397e+18
14234.0	1.7281740489883648e+18
14235.0	1.7278649573048315e+18
14236.0	1.7275594777559035e+18
14237.0	1.727245206945792e+18
14238.0	1.7269328118284285e+18
14239.0	1.7265834497933307e+18
14240.0	1.7245908433371139e+18
14241.0	1.7258906363363323e+18
14242.0	1.725650660071833e+18
14243.0	1.7252374489858043e+18
14244.0	1.7250676316831741e+18
14245.0	1.7247578974322685e+18
14246.0	1.7244511344263165e+18
14247.0	1.72414578238423e+18
14248.0	1.7238257133682685e+18
14249.0	1.7235303555137533e+18
14250.0	1.7232244884111357e+18
14251.0	1.7229155242344443e+18
14252.0	1.72260194296791e+18
14253.0	1.7222772132413435e+18
14254.0	1.7219449287344125e+18
14255.0	1.7214880431996925e+18
14256.0	1.7187717615976453e+18
14257.0	1.7201218359132157e+18
14258.0	1.7206454545022976e+18
14259.0	1.7203581832658941e+18
14260.0	1.7199793033969661e+18
14261.0	1.7197066400825336e+18
14262.0	1.719275854862745e+18
14263.0	1.7153717597896712e+18
14264.0	1.716903068303359e+18
14265.0	1.7184143800532987e+18
14266.0	1.7182440929886203e+18
14267.0	1.7179723859755005e+18
14268.0	1.7176714748624893e+18
14269.0	1.7173626415480827e+18
14270.0	1.7170572525961213e+18
14271.0	1.716725082174259e+18
14272.0	1.7163469572800512e+18
14273.0	1.7156476627845112e+18
14274.0	1.7093964687474693e+18
14275.0	1.7139677282697213e+18
14276.0	1.715034458895155e+18
14277.0	1.7148715974262784e+18
14278.0	1.714598375430553e+18
14279.0	1.7142956322455547e+18
14280.0	1.7139961522290685e+18
14281.0	1.7137020291776507e+18
14282.0	1.7134004771749885e+18
14283.0	1.7130972273180667e+18
14284.0	1.7127928785534976e+18
14285.0	1.7124870131286016e+18
14286.0	1.7121799514882043e+18
14287.0	1.7118735676473341e+18
14288.0	1.7115399392854008e+18
14289.0	1.7101607866990582e+18
14290.0	1.7109334429270013e+18
14291.0	1.7106544881565693e+18
14292.0	1.7103486344757248e+18
14293.0	1.710041089651507e+18
14294.0	1.7096153526960125e+18
14295.0	1.709388816659251e+18
14296.0	1.7082594382315525e+18
14297.0	1.7087120153772024e+18
14298.0	1.7077660723183613e+18
14299.0	1.708126245591449e+18
14300.0	1.707896483296051e+18
14301.0	1.7075871298879485e+18
14302.0	1.7072728691441661e+18
14303.0	1.7069299663372285e+18
14304.0	1.7066424501534715e+18
14305.0	1.70634456900567e+18
14306.0	1.7060064997146621e+18
14307.0	1.7056896083034112e+18
14308.0	1.70538688357335e+18
14309.0	1.7050441988702203e+18
14310.0	1.7046470821675005e+18
14311.0	1.7042101111881725e+18
14312.0	1.7040240417964027e+18
14313.0	1.7036987433222144e+18
14314.0	1.703555192428953e+18
14315.0	1.703280794350387e+18
14316.0	1.7029482145644544e+18
14317.0	1.7026487664246781e+18
14318.0	1.70240431399895e+18
14319.0	1.7021189033558013e+18
14320.0	1.701822027163238e+18
14321.0	1.7015192269357053e+18
14322.0	1.70118838526935e+18
14323.0	1.700899216529817e+18
14324.0	1.7006187115446267e+18
14325.0	1.7003081736650747e+18
14326.0	1.7000106330947581e+18
14327.0	1.6996829589667837e+18
14328.0	1.6993826065350653e+18
14329.0	1.699089761907507e+18
14330.0	1.6987882904354813e+18
14331.0	1.6984841983623163e+18
14332.0	1.6981845740617725e+18
14333.0	1.697882263728947e+18
14334.0	1.6975781599117304e+18
14335.0	1.697242748131737e+18
14336.0	1.6967011611443197e+18
14337.0	1.6966621591502843e+18
14338.0	1.6963692054708221e+18
14339.0	1.6960588420743165e+18
14340.0	1.6957651166429181e+18
14341.0	1.6954573553926141e+18
14342.0	1.695153748180992e+18
14343.0	1.694864789156659e+18
14344.0	1.6945358751924221e+18
14345.0	1.6942452283801597e+18
14346.0	1.6939432032600061e+18
14347.0	1.6936036777066493e+18
14348.0	1.693333717201715e+18
14349.0	1.6930384264560637e+18
14350.0	1.6925023189073915e+18
14351.0	1.692199485125427e+18
14352.0	1.6921292791873533e+18
14353.0	1.691844276230553e+18
14354.0	1.6915074014773248e+18
14355.0	1.691138938581811e+18
14356.0	1.6908405255962621e+18
14357.0	1.6906066327502843e+18
14358.0	1.6903259012726781e+18
14359.0	1.6900096088080381e+18
14360.0	1.6897054949244923e+18
14361.0	1.6894111403474941e+18
14362.0	1.6891171934568448e+18
14363.0	1.6887917892861947e+18
14364.0	1.6878669167329277e+18
14365.0	1.6878852491968507e+18
14366.0	1.6877661628399613e+18
14367.0	1.6876189914234877e+18
14368.0	1.6873224105099256e+18
14369.0	1.6870287119220733e+18
14370.0	1.686728560816947e+18
14371.0	1.6864340636336125e+18
14372.0	1.686124988727296e+18
14373.0	1.6858248409776123e+18
14374.0	1.6855307665801213e+18
14375.0	1.685226766781644e+18
14376.0	1.6849374386585597e+18
14377.0	1.6846374251266043e+18
14378.0	1.6843361986019325e+18
14379.0	1.6840375020814333e+18
14380.0	1.683736648010956e+18
14381.0	1.6834284807520253e+18
14382.0	1.6831402381148157e+18
14383.0	1.6828417378877437e+18
14384.0	1.6825241334448125e+18
14385.0	1.68224518874071e+18
14386.0	1.681914830258176e+18
14387.0	1.6816184926142461e+18
14388.0	1.6813164809158653e+18
14389.0	1.681019945300787e+18
14390.0	1.6807201431617533e+18
14391.0	1.680423288779571e+18
14392.0	1.6801225588604925e+18
14393.0	1.679824929370931e+18
14394.0	1.679483717707366e+18
14395.0	1.679216149633433e+18
14396.0	1.6789243317714941e+18
14397.0	1.678631019059609e+18
14398.0	1.6783316027965437e+18
14399.0	1.6780265007349757e+18
14400.0	1.677711679632179e+18
14401.0	1.6774188568150013e+18
14402.0	1.6771076897898493e+18
14403.0	1.676515974158745e+18
14404.0	1.6736318818090993e+18
14405.0	1.6741317707038692e+18
14406.0	1.675871319700275e+18
14407.0	1.6753081588908032e+18
14408.0	1.675300478281318e+18
14409.0	1.6750233773932544e+18
14410.0	1.6747020937068541e+18
14411.0	1.6744460431917053e+18
14412.0	1.674155278938931e+18
14413.0	1.6738625483964413e+18
14414.0	1.6735626590158843e+18
14415.0	1.6732647661240315e+18
14416.0	1.672958902376857e+18
14417.0	1.6726360198217725e+18
14418.0	1.672327382800793e+18
14419.0	1.6720624739155963e+18
14420.0	1.6717645827014653e+18
14421.0	1.6714648862588925e+18
14422.0	1.671143750211993e+18
14423.0	1.67072617201664e+18
14424.0	1.6691633189814267e+18
14425.0	1.6701531260715003e+18
14426.0	1.669941728116736e+18
14427.0	1.6696580723703805e+18
14428.0	1.6693386593435648e+18
14429.0	1.66905477374935e+18
14430.0	1.6686761388277757e+18
14431.0	1.6672436682489856e+18
14432.0	1.668124673415577e+18
14433.0	1.6676079435513853e+18
14434.0	1.6675405477969915e+18
14435.0	1.6671998310612987e+18
14436.0	1.6669771839832061e+18
14437.0	1.666696054885581e+18
14438.0	1.6662781461790715e+18
14439.0	1.6660676223172603e+18
14440.0	1.665816096617267e+18
14441.0	1.6655110683754493e+18
14442.0	1.6652081054089208e+18
14443.0	1.6648702659657725e+18
14444.0	1.6646203022245885e+18
14445.0	1.6643168208420861e+18
14446.0	1.663013716020429e+18
14447.0	1.6636665510494205e+18
14448.0	1.6634426389692413e+18
14449.0	1.6631496970338304e+18
14450.0	1.6628500207239165e+18
14451.0	1.6625561006768125e+18
14452.0	1.6622621755965437e+18
14453.0	1.6619626620256253e+18
14454.0	1.6616578502098941e+18
14455.0	1.66135684178903e+18
14456.0	1.661048624198451e+18
14457.0	1.6607546269761533e+18
14458.0	1.6604480132874237e+18
14459.0	1.6601282496167933e+18
14460.0	1.6597911517265915e+18
14461.0	1.6593869500055547e+18
14462.0	1.6589739117248512e+18
14463.0	1.6588457421832187e+18
14464.0	1.6586103528095744e+18
14465.0	1.6583106949545984e+18
14466.0	1.6580611607101435e+18
14467.0	1.6577594946224125e+18
14468.0	1.657479263105843e+18
14469.0	1.6570990259601403e+18
14470.0	1.6568549778653184e+18
14471.0	1.6566066197037053e+18
14472.0	1.656323794429542e+18
14473.0	1.6560374996271104e+18
14474.0	1.655751204824678e+18
14475.0	1.6554564358504448e+18
14476.0	1.6551494463520765e+18
14477.0	1.65486468834263e+18
14478.0	1.6545758014603261e+18
14479.0	1.6542798010384381e+18
14480.0	1.6539696758783997e+18
14481.0	1.6536987976597496e+18
14482.0	1.653399633054925e+18
14483.0	1.6531011445719037e+18
14484.0	1.6527958025961472e+18
14485.0	1.65246391067607e+18
14486.0	1.6519252043366395e+18
14487.0	1.6519224981716987e+18
14488.0	1.6516079958360061e+18
14489.0	1.6512371539312637e+18
14490.0	1.6510230531670013e+18
14491.0	1.6507629777977341e+18
14492.0	1.6504716850626557e+18
14493.0	1.650152099230515e+18
14494.0	1.649857608758067e+18
14495.0	1.6495763940966397e+18
14496.0	1.6491666240176125e+18
14497.0	1.6489968587243515e+18
14498.0	1.648710726660915e+18
14499.0	1.6484201352134653e+18
14500.0	1.6481258745888765e+18
14501.0	1.647806074008371e+18
14502.0	1.647291709731635e+18
14503.0	1.6472190408982528e+18
14504.0	1.646943426471526e+18
14505.0	1.6466511455584253e+18
14506.0	1.6463367757627395e+18
14507.0	1.6458241831600125e+18
14508.0	1.6457700414062587e+18
14509.0	1.6454889743843328e+18
14510.0	1.6451943748599805e+18
14511.0	1.6449035183325181e+18
14512.0	1.6445985286782976e+18
14513.0	1.644307740937421e+18
14514.0	1.6439538138218493e+18
14515.0	1.6436440074289147e+18
14516.0	1.6405502149787658e+18
14517.0	1.6429617048977403e+18
14518.0	1.6428079215804413e+18
14519.0	1.642502203795046e+18
14520.0	1.6422387796934653e+18
14521.0	1.6419471614803963e+18
14522.0	1.6416440592629757e+18
14523.0	1.641289442603827e+18
14524.0	1.6410361167085565e+18
14525.0	1.6407715718889472e+18
14526.0	1.64047907454976e+18
14527.0	1.6401500532113403e+18
14528.0	1.6397663616368637e+18
14529.0	1.6396014751580157e+18
14530.0	1.639305813635891e+18
14531.0	1.6390302528962557e+18
14532.0	1.6387256474402816e+18
14533.0	1.638445389080166e+18
14534.0	1.6381572068409344e+18
14535.0	1.6378558880415741e+18
14536.0	1.637571517585817e+18
14537.0	1.6372685026099197e+18
14538.0	1.6369934569308157e+18
14539.0	1.6367027128107003e+18
14540.0	1.636410233926451e+18
14541.0	1.6360876969820157e+18
14542.0	1.635823262892032e+18
14543.0	1.6355113962569725e+18
14544.0	1.635233689711411e+18
14545.0	1.6349076949827581e+18
14546.0	1.6327555237806072e+18
14547.0	1.6324600870731766e+18
14548.0	1.634020985562726e+18
14549.0	1.6336525260226557e+18
14550.0	1.6334748167176187e+18
14551.0	1.6332048931225597e+18
14552.0	1.6329104412377085e+18
14553.0	1.6326157863485437e+18
14554.0	1.6323348703215613e+18
14555.0	1.632043040715571e+18
14556.0	1.6317478724435963e+18
14557.0	1.631450778147225e+18
14558.0	1.6311049930145792e+18
14559.0	1.62874585807585e+18
14560.0	1.6305134216675325e+18
14561.0	1.6302739084541947e+18
14562.0	1.6299533864534013e+18
14563.0	1.6296768744456187e+18
14564.0	1.6293288344551424e+18
14565.0	1.6291253788344315e+18
14566.0	1.6288421039308797e+18
14567.0	1.6285458266849275e+18
14568.0	1.6282439257161728e+18
14569.0	1.6279457861992443e+18
14570.0	1.6270674100223997e+18
14571.0	1.6273382077104125e+18
14572.0	1.6270160868409341e+18
14573.0	1.6266946286714875e+18
14574.0	1.6263808511115261e+18
14575.0	1.6261392491347965e+18
14576.0	1.6258400895631357e+18
14577.0	1.6256086327689216e+18
14578.0	1.625322025910272e+18
14579.0	1.6250435744563195e+18
14580.0	1.624750785193574e+18
14581.0	1.6244525399801853e+18
14582.0	1.6241464648400893e+18
14583.0	1.623883035705344e+18
14584.0	1.623544139297587e+18
14585.0	1.623293214221926e+18
14586.0	1.623015193942425e+18
14587.0	1.6227290149027835e+18
14588.0	1.6224400525230075e+18
14589.0	1.6221510700105725e+18
14590.0	1.6218615137173501e+18
14591.0	1.621563530228531e+18
14592.0	1.621260025357926e+18
14593.0	1.6208717536034813e+18
14594.0	1.620688177306009e+18
14595.0	1.6203837765320701e+18
14596.0	1.6193665554710523e+18
14597.0	1.6189354816831478e+18
14598.0	1.6194176689373181e+18
14599.0	1.6192405501902843e+18
14600.0	1.6189514754031616e+18
14601.0	1.618661935887155e+18
14602.0	1.618357211312947e+18
14603.0	1.6180740421058557e+18
14604.0	1.6177165246660603e+18
14605.0	1.6173867399643133e+18
14606.0	1.617098841260032e+18
14607.0	1.6169174057353213e+18
14608.0	1.6166019219324925e+18
14609.0	1.6162737780424701e+18
14610.0	1.6159382270115837e+18
14611.0	1.6156654781333504e+18
14612.0	1.6154855575912448e+18
14613.0	1.6152103575617539e+18
14614.0	1.6148854315417597e+18
14615.0	1.6146123034984448e+18
14616.0	1.614352135854489e+18
14617.0	1.6139664041705472e+18
14618.0	1.6136385740144637e+18
14619.0	1.6125377604747256e+18
14620.0	1.6115587646226432e+18
14621.0	1.6128358714703872e+18
14622.0	1.6126117932957693e+18
14623.0	1.6123413479292923e+18
14624.0	1.6120072749711357e+18
14625.0	1.6117695502090232e+18
14626.0	1.6114565158797312e+18
14627.0	1.611170799891251e+18
14628.0	1.6109199889006587e+18
14629.0	1.6106297195757563e+18
14630.0	1.6103056978477053e+18
14631.0	1.6100241778409467e+18
14632.0	1.6095971372957696e+18
14633.0	1.609431802865254e+18
14634.0	1.609176042595942e+18
14635.0	1.6087638599532534e+18
14636.0	1.608187713578598e+18
14637.0	1.6083010285731835e+18
14638.0	1.607966750932992e+18
14639.0	1.6076716682248192e+18
14640.0	1.6074155724111872e+18
14641.0	1.6067379557564408e+18
14642.0	1.606834027128422e+18
14643.0	1.6065584496115712e+18
14644.0	1.606254199832576e+18
14645.0	1.605933496637849e+18
14646.0	1.605631088997171e+18
14647.0	1.6053310888869885e+18
14648.0	1.6050675272122365e+18
