# Flux units: erg / (cm m2 s)
# Wavelength units: Angstrom
wave	flux
14000.0	1.8273094623821821e+18
14001.0	1.8268568147722237e+18
14002.0	1.8266571675795453e+18
14003.0	1.8263180446793723e+18
14004.0	1.8259775896682493e+18
14005.0	1.8256370306383872e+18
14006.0	1.825287567939993e+18
14007.0	1.824945988855398e+18
14008.0	1.8245033203335168e+18
14009.0	1.8242735412609021e+18
14010.0	1.823919704742297e+18
14011.0	1.8228580878123005e+18
14012.0	1.8232536777883643e+18
14013.0	1.822914960896819e+18
14014.0	1.8225687311679485e+18
14015.0	1.8222326650765312e+18
14016.0	1.8218956460392445e+18
14017.0	1.8215560382775293e+18
14018.0	1.821216343274291e+18
14019.0	1.8208769267728381e+18
14020.0	1.8205366244343805e+18
14021.0	1.8201964529582075e+18
14022.0	1.8198548403191805e+18
14023.0	1.8195029130477565e+18
14024.0	1.8191615101239293e+18
14025.0	1.8188403925319677e+18
14026.0	1.818500023084646e+18
14027.0	1.818163307714969e+18
14028.0	1.817817388364595e+18
14029.0	1.817481171278233e+18
14030.0	1.8161751337992197e+18
14031.0	1.8167706175930363e+18
14032.0	1.8164671294996477e+18
14033.0	1.8160785976983552e+18
14034.0	1.8157908617330685e+18
14035.0	1.815454602703667e+18
14036.0	1.8151166223319037e+18
14037.0	1.814778571495833e+18
14038.0	1.8144405441478653e+18
14039.0	1.814097911454105e+18
14040.0	1.8137575285850107e+18
14041.0	1.813423782782566e+18
14042.0	1.8130759608958976e+18
14043.0	1.8127043153625088e+18
14044.0	1.812399243499929e+18
14045.0	1.8120715777605624e+18
14046.0	1.8117338591133693e+18
14047.0	1.8113902617296893e+18
14048.0	1.8110613225996285e+18
14049.0	1.8107267966566392e+18
14050.0	1.810389695410995e+18
14051.0	1.8100425613901821e+18
14052.0	1.8097113153929216e+18
14053.0	1.8093784352948221e+18
14054.0	1.809041879308697e+18
14055.0	1.8087051052187643e+18
14056.0	1.8083683529392125e+18
14057.0	1.8080317768204285e+18
14058.0	1.8076952225120253e+18
14059.0	1.8073587437010941e+18
14060.0	1.8070223370321917e+18
14061.0	1.806677988029235e+18
14062.0	1.8063496763670523e+18
14063.0	1.8059955714129915e+18
14064.0	1.8054948755341312e+18
14065.0	1.805331264123699e+18
14066.0	1.8050054656884733e+18
14067.0	1.8046626333458427e+18
14068.0	1.8043338099785725e+18
14069.0	1.8039953866883072e+18
14070.0	1.8036618187243515e+18
14071.0	1.8033234457657341e+18
14072.0	1.8029912837324792e+18
14073.0	1.8026558753079296e+18
14074.0	1.8023205893570555e+18
14075.0	1.801965259666227e+18
14076.0	1.8016414493310976e+18
14077.0	1.8010993674158075e+18
14078.0	1.8009636900700155e+18
14079.0	1.8006333517201403e+18
14080.0	1.8003100312797181e+18
14081.0	1.7999752452898813e+18
14082.0	1.7996376172396541e+18
14083.0	1.7993040308207613e+18
14084.0	1.7989703689043965e+18
14085.0	1.7982747771404288e+18
14086.0	1.7982834425724925e+18
14087.0	1.7979675997372416e+18
14088.0	1.7976188047720448e+18
14089.0	1.7972928519864315e+18
14090.0	1.7969604768825341e+18
14091.0	1.7966310931562493e+18
14092.0	1.7962971896479744e+18
14093.0	1.7959632542629885e+18
14094.0	1.795629327266611e+18
14095.0	1.795295190555033e+18
14096.0	1.794917327385395e+18
14097.0	1.794606264378982e+18
14098.0	1.7942749563060221e+18
14099.0	1.7939608968888315e+18
14100.0	1.7936134290014203e+18
14101.0	1.7932945746558976e+18
14102.0	1.792961062056755e+18
14103.0	1.7926101061861376e+18
14104.0	1.79229181387735e+18
14105.0	1.7919617305411581e+18
14106.0	1.7916289125187581e+18
14107.0	1.7912952321474555e+18
14108.0	1.7909503630508027e+18
14109.0	1.790624707221913e+18
14110.0	1.7902935652433915e+18
14111.0	1.789951635514982e+18
14112.0	1.789623666108006e+18
14113.0	1.789299912815411e+18
14114.0	1.7889526479323133e+18
14115.0	1.788632691323699e+18
14116.0	1.7882701423968253e+18
14117.0	1.7862840102682624e+18
14118.0	1.7876351734251515e+18
14119.0	1.7872748072140797e+18
14120.0	1.7869517686308861e+18
14121.0	1.7866263174840317e+18
14122.0	1.7862788579852285e+18
14123.0	1.7859597972799485e+18
14124.0	1.7856238016528381e+18
14125.0	1.784779345651302e+18
14126.0	1.7849800649080832e+18
14127.0	1.7846509110296576e+18
14128.0	1.7840827304771581e+18
14129.0	1.7837396582203387e+18
14130.0	1.783398483466649e+18
14131.0	1.7830909168320507e+18
14132.0	1.78275254051799e+18
14133.0	1.7818021280088046e+18
14134.0	1.7820964439982077e+18
14135.0	1.7817490130206715e+18
14136.0	1.7814081805221885e+18
14137.0	1.78110208189399e+18
14138.0	1.7807564863438843e+18
14139.0	1.7804442137001981e+18
14140.0	1.7801084110110715e+18
14141.0	1.779772021119385e+18
14142.0	1.7793282587230205e+18
14143.0	1.7791185753997307e+18
14144.0	1.7787935906594813e+18
14145.0	1.7784619940184061e+18
14146.0	1.7781294427537405e+18
14147.0	1.7778017686257661e+18
14148.0	1.7774701686292475e+18
14149.0	1.7771413301624827e+18
14150.0	1.7768149948563453e+18
14151.0	1.7764776402747387e+18
14152.0	1.7761559321247741e+18
14153.0	1.7758262866739197e+18
14154.0	1.7754684957655035e+18
14155.0	1.7750899648626685e+18
14156.0	1.774827871194316e+18
14157.0	1.7745092416634875e+18
14158.0	1.7741754170081277e+18
14159.0	1.7738509053853693e+18
14160.0	1.7735147637964797e+18
14161.0	1.7731239217725435e+18
14162.0	1.772741783768268e+18
14163.0	1.772532565173862e+18
14164.0	1.7721458855772152e+18
14165.0	1.771812522295296e+18
14166.0	1.7715478633906176e+18
14167.0	1.771205165265715e+18
14168.0	1.7708893308190715e+18
14169.0	1.7705648158408704e+18
14170.0	1.7702318485012477e+18
14171.0	1.769904956191539e+18
14172.0	1.7695803053178877e+18
14173.0	1.7692077622034427e+18
14174.0	1.7689187897573376e+18
14175.0	1.7685965782908928e+18
14176.0	1.7682688336986112e+18
14177.0	1.767941102528102e+18
14178.0	1.7676125056532475e+18
14179.0	1.7672770485747712e+18
14180.0	1.7669583586459643e+18
14181.0	1.766630922754457e+18
14182.0	1.7663025909596157e+18
14183.0	1.7659761935777795e+18
14184.0	1.765642910826496e+18
14185.0	1.7653207463362557e+18
14186.0	1.7646779340161021e+18
14187.0	1.7646371804807165e+18
14188.0	1.764335875103129e+18
14189.0	1.764010650448691e+18
14190.0	1.7636844074172408e+18
14191.0	1.7633565990715387e+18
14192.0	1.7630236585754621e+18
14193.0	1.7626565948997627e+18
14194.0	1.7623769589743616e+18
14195.0	1.762054224058777e+18
14196.0	1.7617275666300923e+18
14197.0	1.7614012816556024e+18
14198.0	1.761069076001587e+18
14199.0	1.7607464434270203e+18
14200.0	1.7602326999072768e+18
14201.0	1.760087825291673e+18
14202.0	1.7597691185856507e+18
14203.0	1.7594349080543227e+18
14204.0	1.759115892647526e+18
14205.0	1.758790193197875e+18
14206.0	1.7583219595542525e+18
14207.0	1.7581415944159232e+18
14208.0	1.757816728793907e+18
14209.0	1.7573355263623165e+18
14210.0	1.757057918802329e+18
14211.0	1.7568349244358656e+18
14212.0	1.7565145450414077e+18
14213.0	1.7561891492593661e+18
14214.0	1.755863795420364e+18
14215.0	1.7554679906959357e+18
14216.0	1.755158446027571e+18
14217.0	1.7548333539131387e+18
14218.0	1.7544949054570493e+18
14219.0	1.7541832284045307e+18
14220.0	1.7538566280183805e+18
14221.0	1.7535312456581112e+18
14222.0	1.7531884116377597e+18
14223.0	1.7528837357174781e+18
14224.0	1.7525590177349627e+18
14225.0	1.7516481357021187e+18
14226.0	1.7519066776338427e+18
14227.0	1.7515853838811133e+18
14228.0	1.749730473069773e+18
14229.0	1.7506574847180787e+18
14230.0	1.7506131224035325e+18
14231.0	1.7502777525665787e+18
14232.0	1.749965369193267e+18
14233.0	1.74945178002391e+18
14234.0	1.749126280223129e+18
14235.0	1.7487991983308797e+18
14236.0	1.7484780354404347e+18
14237.0	1.7481525087961085e+18
14238.0	1.747829450080256e+18
14239.0	1.7474982544146432e+18
14240.0	1.7452906613571581e+18
14241.0	1.7468502394798077e+18
14242.0	1.7465317357780987e+18
14243.0	1.7460309778235387e+18
14244.0	1.7458878362943488e+18
14245.0	1.7455489986068477e+18
14246.0	1.74522199221207e+18
14247.0	1.744912721012326e+18
14248.0	1.7445749922988027e+18
14249.0	1.74426933994455e+18
14250.0	1.7439460010491904e+18
14251.0	1.7436259018342397e+18
14252.0	1.7432976488923128e+18
14253.0	1.7429219147513856e+18
14254.0	1.742596681708339e+18
14255.0	1.7422357836595197e+18
14256.0	1.7413443799744512e+18
14257.0	1.7415955952959488e+18
14258.0	1.7413076479377405e+18
14259.0	1.740963211693261e+18
14260.0	1.74063926378496e+18
14261.0	1.740317337531187e+18
14262.0	1.740039543744102e+18
14263.0	1.7388265409609733e+18
14264.0	1.7392167370620925e+18
14265.0	1.7390682100465661e+18
14266.0	1.7387509814132733e+18
14267.0	1.738430561753497e+18
14268.0	1.7381085935566843e+18
14269.0	1.7377760892682237e+18
14270.0	1.737464521267609e+18
14271.0	1.7371415531487227e+18
14272.0	1.736819883586355e+18
14273.0	1.7364932748115965e+18
14274.0	1.7348238864547843e+18
14275.0	1.7357115672756221e+18
14276.0	1.7354592144588797e+18
14277.0	1.7351398450528253e+18
14278.0	1.7348336776380408e+18
14279.0	1.734511087006515e+18
14280.0	1.734182352558489e+18
14281.0	1.7338694138593275e+18
14282.0	1.7335483784757243e+18
14283.0	1.7332269958037504e+18
14284.0	1.732905629908992e+18
14285.0	1.732584003967385e+18
14286.0	1.7322610660474875e+18
14287.0	1.7319417167740928e+18
14288.0	1.7316193325023232e+18
14289.0	1.730072246694705e+18
14290.0	1.7309763557654525e+18
14291.0	1.73065672631255e+18
14292.0	1.7303371908120576e+18
14293.0	1.7300135834812416e+18
14294.0	1.7295339950178304e+18
14295.0	1.7293587267977213e+18
14296.0	1.728062554321716e+18
14297.0	1.728729799301529e+18
14298.0	1.728111122684313e+18
14299.0	1.7280762915061757e+18
14300.0	1.727762170013286e+18
14301.0	1.7273923968172032e+18
14302.0	1.7270737303764987e+18
14303.0	1.7267156341227515e+18
14304.0	1.7264144579297275e+18
14305.0	1.7261126291030008e+18
14306.0	1.7257721489260541e+18
14307.0	1.725460148073267e+18
14308.0	1.7251490632564733e+18
14309.0	1.724821164313804e+18
14310.0	1.724410572151193e+18
14311.0	1.7240068771020797e+18
14312.0	1.7238028963545085e+18
14313.0	1.7234059876892672e+18
14314.0	1.7232243474825213e+18
14315.0	1.7229133817839608e+18
14316.0	1.7225346478768125e+18
14317.0	1.7222539029774333e+18
14318.0	1.7219581324034048e+18
14319.0	1.7216400565207035e+18
14320.0	1.721320390157926e+18
14321.0	1.7209986920742907e+18
14322.0	1.7206358227025923e+18
14323.0	1.720342097271193e+18
14324.0	1.720045214367744e+18
14325.0	1.719715451476377e+18
14326.0	1.7194076130508797e+18
14327.0	1.719081229090816e+18
14328.0	1.718748808688435e+18
14329.0	1.7183978075193344e+18
14330.0	1.7180790253158395e+18
14331.0	1.717759872335872e+18
14332.0	1.7174414105772027e+18
14333.0	1.7171227038711805e+18
14334.0	1.7168041129279488e+18
14335.0	1.716469892330291e+18
14336.0	1.7161039997042685e+18
14337.0	1.7158450618302461e+18
14338.0	1.7155264121667581e+18
14339.0	1.715198640730931e+18
14340.0	1.7148928457703421e+18
14341.0	1.7145709966917632e+18
14342.0	1.7142542562754557e+18
14343.0	1.7139349237792765e+18
14344.0	1.7136148597964797e+18
14345.0	1.713302370726707e+18
14346.0	1.7129795368255485e+18
14347.0	1.7126346576625661e+18
14348.0	1.712346868010188e+18
14349.0	1.7120308322369533e+18
14350.0	1.7116657885380603e+18
14351.0	1.711338688190873e+18
14352.0	1.71106689393623e+18
14353.0	1.7107581176643581e+18
14354.0	1.7104358642548733e+18
14355.0	1.7101074838061053e+18
14356.0	1.7097946927464443e+18
14357.0	1.709490952994816e+18
14358.0	1.709173564977971e+18
14359.0	1.7088393242476541e+18
14360.0	1.7085245215997947e+18
14361.0	1.7081679302623232e+18
14362.0	1.7078524112273403e+18
14363.0	1.7075345836474365e+18
14364.0	1.7070663416152061e+18
14365.0	1.706870982678937e+18
14366.0	1.706555869652582e+18
14367.0	1.7062669240500221e+18
14368.0	1.7059493749719037e+18
14369.0	1.7055608649809915e+18
14370.0	1.7050023766261757e+18
14371.0	1.7046858459250685e+18
14372.0	1.7043627318444032e+18
14373.0	1.7040509256073213e+18
14374.0	1.703735297520435e+18
14375.0	1.7034166931554304e+18
14376.0	1.7031029290172408e+18
14377.0	1.702785728905216e+18
14378.0	1.7024668913369085e+18
14379.0	1.7021537596997627e+18
14380.0	1.701836326384435e+18
14381.0	1.701507573481472e+18
14382.0	1.7012032280723456e+18
14383.0	1.700883900609331e+18
14384.0	1.7005516328796157e+18
14385.0	1.7002569058484221e+18
14386.0	1.6999204303929344e+18
14387.0	1.6996246262644733e+18
14388.0	1.6993065839362048e+18
14389.0	1.6989928248311805e+18
14390.0	1.6986748210905085e+18
14391.0	1.6983616743538685e+18
14392.0	1.6980444255879165e+18
14393.0	1.697730621184409e+18
14394.0	1.697370919351091e+18
14395.0	1.6970855623950333e+18
14396.0	1.6967839147622395e+18
14397.0	1.6964447868289021e+18
14398.0	1.6961016776622077e+18
14399.0	1.6957864740388861e+18
14400.0	1.6954474065035261e+18
14401.0	1.6951475204784125e+18
14402.0	1.694836746040115e+18
14403.0	1.6933923099508716e+18
14404.0	1.6890787652435945e+18
14405.0	1.691870572838907e+18
14406.0	1.6935741833609213e+18
14407.0	1.6916439126507523e+18
14408.0	1.6929289249226747e+18
14409.0	1.6926092468158467e+18
14410.0	1.6923070623121403e+18
14411.0	1.6920030037934077e+18
14412.0	1.6916850470289405e+18
14413.0	1.6913749319352315e+18
14414.0	1.6910570171138048e+18
14415.0	1.6907435901976579e+18
14416.0	1.6904277406515197e+18
14417.0	1.6901047255564285e+18
14418.0	1.6897760447954941e+18
14419.0	1.6894835290013693e+18
14420.0	1.6891644146089981e+18
14421.0	1.6888551249543165e+18
14422.0	1.688534743882137e+18
14423.0	1.688201709433651e+18
14424.0	1.6813363786940375e+18
14425.0	1.6875789525975035e+18
14426.0	1.687282526034329e+18
14427.0	1.6869687786733565e+18
14428.0	1.6866301809000448e+18
14429.0	1.6863366987382784e+18
14430.0	1.6860274678038528e+18
14431.0	1.6854491034812416e+18
14432.0	1.6853928998076413e+18
14433.0	1.683854091878399e+18
14434.0	1.684750459941683e+18
14435.0	1.684414377073049e+18
14436.0	1.6841438847303672e+18
14437.0	1.683830608809165e+18
14438.0	1.6834350288994304e+18
14439.0	1.6831423101009912e+18
14440.0	1.6828387163111421e+18
14441.0	1.6825143019962365e+18
14442.0	1.6821929394569216e+18
14443.0	1.6818291255279619e+18
14444.0	1.6815776233160696e+18
14445.0	1.681268600419123e+18
14446.0	1.6788655511175178e+18
14447.0	1.6806255397961725e+18
14448.0	1.6803293447585784e+18
14449.0	1.680016286941184e+18
14450.0	1.6796961357168635e+18
14451.0	1.6793843076694013e+18
14452.0	1.6790738066997243e+18
14453.0	1.678741882902937e+18
14454.0	1.6784479511117824e+18
14455.0	1.678123837109043e+18
14456.0	1.677814124668518e+18
14457.0	1.6775005752786941e+18
14458.0	1.677190815861965e+18
14459.0	1.676873796943872e+18
14460.0	1.6765561673351165e+18
14461.0	1.6761951518457853e+18
14462.0	1.6757658933526525e+18
14463.0	1.6756023373070339e+18
14464.0	1.6753082377437181e+18
14465.0	1.6749687927209981e+18
14466.0	1.6746845313171453e+18
14467.0	1.6743395582017533e+18
14468.0	1.6740572077228032e+18
14469.0	1.673707176276787e+18
14470.0	1.67339940160471e+18
14471.0	1.6731117545586688e+18
14472.0	1.6728052046233595e+18
14473.0	1.6724975322923003e+18
14474.0	1.672187655435059e+18
14475.0	1.6718720776798203e+18
14476.0	1.6714842941423613e+18
14477.0	1.6712494248624123e+18
14478.0	1.6709347279110144e+18
14479.0	1.670623698459033e+18
14480.0	1.6702910112989181e+18
14481.0	1.6700010154426363e+18
14482.0	1.669683924382515e+18
14483.0	1.6693627514257403e+18
14484.0	1.6690505542795261e+18
14485.0	1.668702782724505e+18
14486.0	1.6680623292809216e+18
14487.0	1.6681202761072637e+18
14488.0	1.6677502495752187e+18
14489.0	1.6674284189515776e+18
14490.0	1.6671321031180285e+18
14491.0	1.6668267846303741e+18
14492.0	1.6665162048077816e+18
14493.0	1.666195748238131e+18
14494.0	1.6658651632631803e+18
14495.0	1.6655783399784443e+18
14496.0	1.6650974294704125e+18
14497.0	1.6649530011287547e+18
14498.0	1.664642345808691e+18
14499.0	1.6643303868989437e+18
14500.0	1.664017688113971e+18
14501.0	1.6636643683336192e+18
14502.0	1.6630921578938368e+18
14503.0	1.663055857031577e+18
14504.0	1.6627616534495232e+18
14505.0	1.6624230539984893e+18
14506.0	1.66207415165911e+18
14507.0	1.661522788587929e+18
14508.0	1.661520516952883e+18
14509.0	1.6612089606963197e+18
14510.0	1.6608449722843133e+18
14511.0	1.6603572082835453e+18
14512.0	1.6600256686850048e+18
14513.0	1.6597326797733885e+18
14514.0	1.659378618440089e+18
14515.0	1.6591055340175357e+18
14516.0	1.6556887667376154e+18
14517.0	1.6584769756200957e+18
14518.0	1.658171683975987e+18
14519.0	1.6578602602594304e+18
14520.0	1.6575471437217787e+18
14521.0	1.657235589142937e+18
14522.0	1.6569225162260477e+18
14523.0	1.6565152291749885e+18
14524.0	1.6562188697206776e+18
14525.0	1.6559810526838781e+18
14526.0	1.6556731656044544e+18
14527.0	1.6553363277611003e+18
14528.0	1.6548792710987779e+18
14529.0	1.6547261488037885e+18
14530.0	1.6544054019883005e+18
14531.0	1.654113223416217e+18
14532.0	1.6536961485373435e+18
14533.0	1.653491349061632e+18
14534.0	1.6531814654935037e+18
14535.0	1.6528562928484347e+18
14536.0	1.652552964138598e+18
14537.0	1.652092333929267e+18
14538.0	1.6515395800268797e+18
14539.0	1.6512280992677888e+18
14540.0	1.6509164708691965e+18
14541.0	1.6505772959596541e+18
14542.0	1.6502904676417533e+18
14543.0	1.6499190066577403e+18
14544.0	1.6496271049097208e+18
14545.0	1.649298365428531e+18
14546.0	1.6404543818432458e+18
14547.0	1.6408562901188544e+18
14548.0	1.64835324109783e+18
14549.0	1.64790982934528e+18
14550.0	1.6477402368573435e+18
14551.0	1.6474399733448704e+18
14552.0	1.647126667224678e+18
14553.0	1.6468055513104381e+18
14554.0	1.64650472743895e+18
14555.0	1.646192436340326e+18
14556.0	1.6458787124674557e+18
14557.0	1.6455682937061376e+18
14558.0	1.645253403816755e+18
14559.0	1.6426241355677652e+18
14560.0	1.6446235669954557e+18
14561.0	1.6443108799545341e+18
14562.0	1.6439748188962816e+18
14563.0	1.6436939951439872e+18
14564.0	1.6433617207033856e+18
14565.0	1.6430725687410688e+18
14566.0	1.6427606618406912e+18
14567.0	1.642446993332633e+18
14568.0	1.6421159016857597e+18
14569.0	1.6418224480452605e+18
14570.0	1.640860455901593e+18
14571.0	1.6411949935886333e+18
14572.0	1.6408345200033792e+18
14573.0	1.6405130316349437e+18
14574.0	1.640212848653107e+18
14575.0	1.6399440390651904e+18
14576.0	1.6396284227223547e+18
14577.0	1.6393190827360253e+18
14578.0	1.639011324841164e+18
14579.0	1.6387034880933888e+18
14580.0	1.6383915140841467e+18
14581.0	1.6380729785057275e+18
14582.0	1.637762459081113e+18
14583.0	1.637454068685209e+18
14584.0	1.6371205778964477e+18
14585.0	1.6368290637021184e+18
14586.0	1.636512506157465e+18
14587.0	1.6362025403809787e+18
14588.0	1.635891477374566e+18
14589.0	1.635584350303027e+18
14590.0	1.6352771745775608e+18
14591.0	1.6349669974081533e+18
14592.0	1.6346544076750848e+18
14593.0	1.6342060063784952e+18
14594.0	1.6340464433102843e+18
14595.0	1.6337288187346941e+18
14596.0	1.633285945530777e+18
14597.0	1.6329518876721147e+18
14598.0	1.632799204940185e+18
14599.0	1.6325083668676605e+18
14600.0	1.632197047169843e+18
14601.0	1.631890918342656e+18
14602.0	1.6315741863149565e+18
14603.0	1.6312745418817533e+18
14604.0	1.6309057451196413e+18
14605.0	1.6306288505913341e+18
14606.0	1.6302577402511357e+18
14607.0	1.6300313552093181e+18
14608.0	1.6297312728907768e+18
14609.0	1.6293744517054461e+18
14610.0	1.6290269267755003e+18
14611.0	1.6287526494928893e+18
14612.0	1.6284564544552957e+18
14613.0	1.6281500152496125e+18
14614.0	1.6278371352707067e+18
14615.0	1.6275321305169915e+18
14616.0	1.6272249598246907e+18
14617.0	1.626915725534822e+18
14618.0	1.6265974483255293e+18
14619.0	1.6261964997066744e+18
14620.0	1.6256225209483267e+18
14621.0	1.6256798218518525e+18
14622.0	1.6253673092939776e+18
14623.0	1.6250617156599805e+18
14624.0	1.6246783176867835e+18
14625.0	1.6244384404078592e+18
14626.0	1.6241285299961853e+18
14627.0	1.623816307684147e+18
14628.0	1.6235132373434368e+18
14629.0	1.6232030417190907e+18
14630.0	1.6228893665001472e+18
14631.0	1.6225818988511232e+18
14632.0	1.6217286767542272e+18
14633.0	1.6218894695923707e+18
14634.0	1.6216445272719357e+18
14635.0	1.6212346632404984e+18
14636.0	1.6207566602239997e+18
14637.0	1.6207186816401405e+18
14638.0	1.6203991578836992e+18
14639.0	1.6200762937835512e+18
14640.0	1.6197773623820285e+18
14641.0	1.6173808377397233e+18
14642.0	1.6191521678163965e+18
14643.0	1.6188480472219648e+18
14644.0	1.618521904853811e+18
14645.0	1.6181953430552576e+18
14646.0	1.6178972773580797e+18
14647.0	1.617568252664217e+18
