# Flux units: erg / (cm m2 s)
# Wavelength units: Angstrom
wave	flux
14000.0	2.2148027154169853e+18
14001.0	2.214177846329344e+18
14002.0	2.2137217023475704e+18
14003.0	2.2131905189117947e+18
14004.0	2.2126493412884477e+18
14005.0	2.2121136363929595e+18
14006.0	2.211555225213337e+18
14007.0	2.2110055566409723e+18
14008.0	2.210236374974464e+18
14009.0	2.2099488806010877e+18
14010.0	2.2093703166296061e+18
14011.0	2.2075754950950915e+18
14012.0	2.2083205695799293e+18
14013.0	2.2077898508730365e+18
14014.0	2.2072316812853245e+18
14015.0	2.2067044623056893e+18
14016.0	2.206168007468646e+18
14017.0	2.2056282324205565e+18
14018.0	2.2050791611170816e+18
14019.0	2.2045420888784893e+18
14020.0	2.2039973058314232e+18
14021.0	2.2034609902452733e+18
14022.0	2.202909160767488e+18
14023.0	2.202225331509657e+18
14024.0	2.2017673755885563e+18
14025.0	2.2013040341811192e+18
14026.0	2.2007673192972283e+18
14027.0	2.200227670078259e+18
14028.0	2.1996799845728253e+18
14029.0	2.1991401910697976e+18
14030.0	2.1927898755629105e+18
14031.0	2.198008455443251e+18
14032.0	2.1975365794660347e+18
14033.0	2.1968189105635328e+18
14034.0	2.1964636228157437e+18
14035.0	2.1959263962267645e+18
14036.0	2.195383852938035e+18
14037.0	2.194827703327129e+18
14038.0	2.1943190550478843e+18
14039.0	2.1937696834322427e+18
14040.0	2.1932114148589563e+18
14041.0	2.192701612307251e+18
14042.0	2.1921530023772155e+18
14043.0	2.1915507254886395e+18
14044.0	2.1910845017554944e+18
14045.0	2.190560675128934e+18
14046.0	2.1900201400729595e+18
14047.0	2.189457517812121e+18
14048.0	2.1889504180699133e+18
14049.0	2.1884319886737405e+18
14050.0	2.1878960052764667e+18
14051.0	2.1873308211347453e+18
14052.0	2.1868160709820416e+18
14053.0	2.1862917209063421e+18
14054.0	2.1857646680211453e+18
14055.0	2.1852176099835896e+18
14056.0	2.184698276295475e+18
14057.0	2.1841577462726648e+18
14058.0	2.1836309534343165e+18
14059.0	2.1830926161936381e+18
14060.0	2.1825653670150136e+18
14061.0	2.1820077460422656e+18
14062.0	2.1814914037317627e+18
14063.0	2.1809195456135163e+18
14064.0	2.1796906313187333e+18
14065.0	2.1798780227551227e+18
14066.0	2.1793550819655677e+18
14067.0	2.1786211962060795e+18
14068.0	2.1783005869637627e+18
14069.0	2.1777500644311037e+18
14070.0	2.1772372755349501e+18
14071.0	2.1766999348609021e+18
14072.0	2.176172774601523e+18
14073.0	2.1756375646339067e+18
14074.0	2.1751142245466112e+18
14075.0	2.174533773138329e+18
14076.0	2.1738320493019133e+18
14077.0	2.1720428145803261e+18
14078.0	2.1728756607483901e+18
14079.0	2.1724408808734717e+18
14080.0	2.1719399400472573e+18
14081.0	2.1714087650000893e+18
14082.0	2.1707986481184765e+18
14083.0	2.1703437003522045e+18
14084.0	2.1698235731017728e+18
14085.0	2.167689700809113e+18
14086.0	2.1686355432046587e+18
14087.0	2.168228343395123e+18
14088.0	2.1676537036144632e+18
14089.0	2.1669723053752315e+18
14090.0	2.166612169012019e+18
14091.0	2.1661169274060792e+18
14092.0	2.1655843699163133e+18
14093.0	2.1650617864814587e+18
14094.0	2.1645348510367736e+18
14095.0	2.1640082511364093e+18
14096.0	2.163161028571955e+18
14097.0	2.1627721343827963e+18
14098.0	2.16224243908608e+18
14099.0	2.1618990581284861e+18
14100.0	2.161322596342169e+18
14101.0	2.160850448574054e+18
14102.0	2.1603164331442173e+18
14103.0	2.1597697005846525e+18
14104.0	2.1592656727506936e+18
14105.0	2.1587193059344381e+18
14106.0	2.1582223094317053e+18
14107.0	2.1576161251295224e+18
14108.0	2.1571191940579328e+18
14109.0	2.1566343996243968e+18
14110.0	2.1560325606211581e+18
14111.0	2.155417838393753e+18
14112.0	2.155039399765606e+18
14113.0	2.1544051018825725e+18
14114.0	2.1539436915326968e+18
14115.0	2.1534620092727296e+18
14116.0	2.152372017037311e+18
14117.0	2.1435112361033764e+18
14118.0	2.1519060701282301e+18
14119.0	2.15121131554734e+18
14120.0	2.150707014244761e+18
14121.0	2.1502715716698112e+18
14122.0	2.149659424745062e+18
14123.0	2.1489526895542267e+18
14124.0	2.14837635359703e+18
14125.0	2.147147355416166e+18
14126.0	2.1476403270647805e+18
14127.0	2.147213164045926e+18
14128.0	2.1466918506463227e+18
14129.0	2.14614368363479e+18
14130.0	2.145589859346022e+18
14131.0	2.145111141620121e+18
14132.0	2.144590094978252e+18
14133.0	2.1427997445717975e+18
14134.0	2.143566731778457e+18
14135.0	2.142967407679897e+18
14136.0	2.14171174043648e+18
14137.0	2.1419907220504573e+18
14138.0	2.1413326911176701e+18
14139.0	2.1409649160880125e+18
14140.0	2.140303174035046e+18
14141.0	2.1399041883504637e+18
14142.0	2.1384117593571333e+18
14143.0	2.1385769058828283e+18
14144.0	2.138364655645491e+18
14145.0	2.137837253794201e+18
14146.0	2.1373021847552e+18
14147.0	2.1367867584806912e+18
14148.0	2.1362187742216187e+18
14149.0	2.1356633292537848e+18
14150.0	2.1352419224977405e+18
14151.0	2.134580771002777e+18
14152.0	2.1342052767760384e+18
14153.0	2.133692081871257e+18
14154.0	2.133107229799219e+18
14155.0	2.1295995685961748e+18
14156.0	2.1320057032277996e+18
14157.0	2.1316103732985853e+18
14158.0	2.1310442999644163e+18
14159.0	2.1305842787680248e+18
14160.0	2.1300671143739384e+18
14161.0	2.1293886018158587e+18
14162.0	2.1287760757260283e+18
14163.0	2.1285170640322555e+18
14164.0	2.1276242292506614e+18
14165.0	2.1260397151518728e+18
14166.0	2.126949798589235e+18
14167.0	2.1264194221375483e+18
14168.0	2.1258511694430203e+18
14169.0	2.125419325580902e+18
14170.0	2.124855171560243e+18
14171.0	2.1243487563284477e+18
14172.0	2.1238813011476475e+18
14173.0	2.1227211549835264e+18
14174.0	2.1228203066523645e+18
14175.0	2.1223331298541568e+18
14176.0	2.121755852695142e+18
14177.0	2.12128643458007e+18
14178.0	2.1207756555943933e+18
14179.0	2.120141881160499e+18
14180.0	2.1197657259114493e+18
14181.0	2.1192410855899133e+18
14182.0	2.1187277967327227e+18
14183.0	2.118215214196326e+18
14184.0	2.11768717648855e+18
14185.0	2.1171836872032256e+18
14186.0	2.1147882446913544e+18
14187.0	2.116103387165491e+18
14188.0	2.1156393595699195e+18
14189.0	2.115103131225292e+18
14190.0	2.1146103525146621e+18
14191.0	2.1140897840234493e+18
14192.0	2.1135772014870525e+18
14193.0	2.1127701704212477e+18
14194.0	2.1125578513973243e+18
14195.0	2.1120677033541635e+18
14196.0	2.1115532434472955e+18
14197.0	2.1110404981719037e+18
14198.0	2.1105218322169856e+18
14199.0	2.1099819615387645e+18
14200.0	2.1084320554811397e+18
14201.0	2.1089849402458104e+18
14202.0	2.108485212412313e+18
14203.0	2.107824299153817e+18
14204.0	2.1074410152656893e+18
14205.0	2.10695256843223e+18
14206.0	2.1061463258955773e+18
14207.0	2.1059400265367547e+18
14208.0	2.1054306836807677e+18
14209.0	2.1045745373151222e+18
14210.0	2.1042129648222195e+18
14211.0	2.1038842874167293e+18
14212.0	2.1033909349253117e+18
14213.0	2.1028330153181181e+18
14214.0	2.1023738229161981e+18
14215.0	2.1018225756078075e+18
14216.0	2.1013537346289661e+18
14217.0	2.100851335862681e+18
14218.0	2.100312475172864e+18
14219.0	2.0998274810904573e+18
14220.0	2.0993199619178493e+18
14221.0	2.0987662651359224e+18
14222.0	2.0979488858832893e+18
14223.0	2.0977690156728315e+18
14224.0	2.0972881219420155e+18
14225.0	2.0939311822143508e+18
14226.0	2.096272615512473e+18
14227.0	2.095765197003161e+18
14228.0	2.0892087717199903e+18
14229.0	2.094000977110625e+18
14230.0	2.0942467683581947e+18
14231.0	2.0934137544179712e+18
14232.0	2.0932365165527037e+18
14233.0	2.0927069051420667e+18
14234.0	2.0922254963507197e+18
14235.0	2.091713054742937e+18
14236.0	2.0912012573802493e+18
14237.0	2.09069490086871e+18
14238.0	2.090190883101081e+18
14239.0	2.0896531599065083e+18
14240.0	2.086170983294568e+18
14241.0	2.0886676293287933e+18
14242.0	2.0881768370405373e+18
14243.0	2.0873054083088384e+18
14244.0	2.0871777169178624e+18
14245.0	2.0866205422190587e+18
14246.0	2.0860753296752635e+18
14247.0	2.0856481901445115e+18
14248.0	2.0851289436979197e+18
14249.0	2.0846455904272381e+18
14250.0	2.0841493606432765e+18
14251.0	2.0836479735431165e+18
14252.0	2.0831455445778427e+18
14253.0	2.0826362721861624e+18
14254.0	2.0821372104081405e+18
14255.0	2.0815734741401597e+18
14256.0	2.0790197000077325e+18
14257.0	2.0806049657257984e+18
14258.0	2.080133379994419e+18
14259.0	2.079531166859264e+18
14260.0	2.0790631831961592e+18
14261.0	2.0785675406147581e+18
14262.0	2.0781269054914557e+18
14263.0	2.074507368778959e+18
14264.0	2.0766794847354877e+18
14265.0	2.0765179436335101e+18
14266.0	2.0761203588464635e+18
14267.0	2.0756179802128384e+18
14268.0	2.0751116689997821e+18
14269.0	2.07459578806272e+18
14270.0	2.0741103695167483e+18
14271.0	2.0735837712941053e+18
14272.0	2.073100813965721e+18
14273.0	2.0726081745059837e+18
14274.0	2.0676344983584801e+18
14275.0	2.071200591249408e+18
14276.0	2.0709554610241533e+18
14277.0	2.0705286285164536e+18
14278.0	2.070113857149337e+18
14279.0	2.0696126579539965e+18
14280.0	2.0690966411214843e+18
14281.0	2.0686168882413563e+18
14282.0	2.0681174674309115e+18
14283.0	2.06761989546967e+18
14284.0	2.0671196005662717e+18
14285.0	2.0666226040635392e+18
14286.0	2.0661098621435896e+18
14287.0	2.0656205747716093e+18
14288.0	2.0651252979335165e+18
14289.0	2.0626884324753347e+18
14290.0	2.0640960241205245e+18
14291.0	2.063628775299481e+18
14292.0	2.063133449807462e+18
14293.0	2.062637921311129e+18
14294.0	2.0617967821651968e+18
14295.0	2.061595348199014e+18
14296.0	2.0595658201235466e+18
14297.0	2.0606560489177083e+18
14298.0	2.0588525686620152e+18
14299.0	2.059576253874176e+18
14300.0	2.0591436130942973e+18
14301.0	2.058628089511936e+18
14302.0	2.05816488567767e+18
14303.0	2.057571235633561e+18
14304.0	2.05714302739415e+18
14305.0	2.056664019422412e+18
14306.0	2.0558021872582656e+18
14307.0	2.0555744466173947e+18
14308.0	2.0551674045136896e+18
14309.0	2.054624881357619e+18
14310.0	2.0524987299397614e+18
14311.0	2.0519985893867517e+18
14312.0	2.052808101802803e+18
14313.0	2.0525294674771963e+18
14314.0	2.0521590131261435e+18
14315.0	2.0517150124933115e+18
14316.0	2.0511186999050237e+18
14317.0	2.0503033423069181e+18
14318.0	2.050258508552601e+18
14319.0	2.0497696355778555e+18
14320.0	2.0492755281117181e+18
14321.0	2.0487718827982845e+18
14322.0	2.0481772563202043e+18
14323.0	2.047766952725708e+18
14324.0	2.0472750413971448e+18
14325.0	2.0467810597601277e+18
14326.0	2.046314072663654e+18
14327.0	2.0457971347619837e+18
14328.0	2.0453094798131197e+18
14329.0	2.0448389342691325e+18
14330.0	2.0443442731548672e+18
14331.0	2.043808189094297e+18
14332.0	2.0433582912700416e+18
14333.0	2.0428712604336125e+18
14334.0	2.0423793306501117e+18
14335.0	2.041816555716608e+18
14336.0	2.0410269427564547e+18
14337.0	2.040897058583347e+18
14338.0	2.0404067226353661e+18
14339.0	2.03987629417431e+18
14340.0	2.0394367093047293e+18
14341.0	2.0389119884525565e+18
14342.0	2.0384434561744893e+18
14343.0	2.0378963947814907e+18
14344.0	2.0374292130693115e+18
14345.0	2.0369871686598653e+18
14346.0	2.036489081638092e+18
14347.0	2.035852659759513e+18
14348.0	2.0355072638582784e+18
14349.0	2.0350330290044925e+18
14350.0	2.0343070318919672e+18
14351.0	2.0337990429573112e+18
14352.0	2.033545351318732e+18
14353.0	2.033076995201433e+18
14354.0	2.0325632198049787e+18
14355.0	2.0320363078483963e+18
14356.0	2.03157090116567e+18
14357.0	2.0311290396278781e+18
14358.0	2.030639426777907e+18
14359.0	2.0301101509115901e+18
14360.0	2.029648086250291e+18
14361.0	2.0291741819076605e+18
14362.0	2.0286875956674555e+18
14363.0	2.028203369981542e+18
14364.0	2.026813157854413e+18
14365.0	2.0271209308487667e+18
14366.0	2.0266082627485696e+18
14367.0	2.0262521898270717e+18
14368.0	2.025767860122419e+18
14369.0	2.0252862751703035e+18
14370.0	2.0247986118328317e+18
14371.0	2.0243156847034365e+18
14372.0	2.0238041675202555e+18
14373.0	2.0233413529174016e+18
14374.0	2.022848921495142e+18
14375.0	2.022367742551654e+18
14376.0	2.02188399837184e+18
14377.0	2.0214010662092797e+18
14378.0	2.020911141303091e+18
14379.0	2.0204327591215101e+18
14380.0	2.019941424929177e+18
14381.0	2.019429288666726e+18
14382.0	2.0189714149539837e+18
14383.0	2.0183853280788475e+18
14384.0	2.017944961391001e+18
14385.0	2.017525764194304e+18
14386.0	2.0169935271493627e+18
14387.0	2.0165530849640445e+18
14388.0	2.0160616584970237e+18
14389.0	2.0155801490423803e+18
14390.0	2.0150920511750136e+18
14391.0	2.0145932494438397e+18
14392.0	2.0140726490759165e+18
14393.0	2.0136475731427325e+18
14394.0	2.0130661805326333e+18
14395.0	2.0120355527983096e+18
14396.0	2.0121671214039035e+18
14397.0	2.0117165004816381e+18
14398.0	2.0111808979271677e+18
14399.0	2.010722391713382e+18
14400.0	2.00982523847639e+18
14401.0	2.00975964962816e+18
14402.0	2.0092901946032128e+18
14403.0	1.9916204089016061e+18
14404.0	1.9668154762395584e+18
14405.0	2.0051399911931786e+18
14406.0	2.0073716025131003e+18
14407.0	1.9789514331390093e+18
14408.0	2.006132428950732e+18
14409.0	2.0058827973984253e+18
14410.0	2.0053746591465472e+18
14411.0	2.0049460499316733e+18
14412.0	2.0044772945166333e+18
14413.0	2.0040042357456893e+18
14414.0	2.0035216173170683e+18
14415.0	2.0030457382961147e+18
14416.0	2.0025049985581048e+18
14417.0	2.001819637540454e+18
14418.0	2.0013463472439293e+18
14419.0	2.001125919791513e+18
14420.0	2.000634724850073e+18
14421.0	2.0001680095444987e+18
14422.0	1.999674465792819e+18
14423.0	1.9991715670654973e+18
14424.0	1.915210207697266e+18
14425.0	1.998232472466227e+18
14426.0	1.9977709295763453e+18
14427.0	1.9972965303058432e+18
14428.0	1.9967198890033152e+18
14429.0	1.9963354827194365e+18
14430.0	1.9958639120875517e+18
14431.0	1.994046753367655e+18
14432.0	1.9947937287110653e+18
14433.0	1.9729815997251448e+18
14434.0	1.993912941648281e+18
14435.0	1.9932403313147896e+18
14436.0	1.992996759692902e+18
14437.0	1.9925194042769405e+18
14438.0	1.9912279344545797e+18
14439.0	1.9913848484003835e+18
14440.0	1.9910887422820347e+18
14441.0	1.9905981446094843e+18
14442.0	1.9901158785023997e+18
14443.0	1.9895492901076992e+18
14444.0	1.9891698146476027e+18
14445.0	1.9887028862713853e+18
14446.0	1.9659531726356575e+18
14447.0	1.987716275240959e+18
14448.0	1.987278660016537e+18
14449.0	1.9868033983971325e+18
14450.0	1.9863130288947197e+18
14451.0	1.9858408828043264e+18
14452.0	1.9853584086597632e+18
14453.0	1.9843881168273405e+18
14454.0	1.9844120663031803e+18
14455.0	1.9839254716743677e+18
14456.0	1.983354994320998e+18
14457.0	1.982810647481548e+18
14458.0	1.98220755018711e+18
14459.0	1.9819036091088893e+18
14460.0	1.981533597676339e+18
14461.0	1.9808258055208952e+18
14462.0	1.9790964956594179e+18
14463.0	1.980040378476134e+18
14464.0	1.9796507360231421e+18
14465.0	1.979154605224755e+18
14466.0	1.978705826440806e+18
14467.0	1.977874788856627e+18
14468.0	1.977731112134246e+18
14469.0	1.9771839383339003e+18
14470.0	1.9767552938868733e+18
14471.0	1.976303320720998e+18
14472.0	1.9758480055336955e+18
14473.0	1.975406994600755e+18
14474.0	1.974938871686758e+18
14475.0	1.9744437676539894e+18
14476.0	1.9724735973687304e+18
14477.0	1.9735170445737981e+18
14478.0	1.973038860363366e+18
14479.0	1.9725482593353725e+18
14480.0	1.9720665904971773e+18
14481.0	1.9716404139786237e+18
14482.0	1.9711602299240443e+18
14483.0	1.9706655419662333e+18
14484.0	1.9702152700100603e+18
14485.0	1.9696452070539264e+18
14486.0	1.9685727621087235e+18
14487.0	1.9687979207360507e+18
14488.0	1.9678701172031488e+18
14489.0	1.967714340752588e+18
14490.0	1.9673426096553984e+18
14491.0	1.966928829821747e+18
14492.0	1.96644707541975e+18
14493.0	1.9659208462958587e+18
14494.0	1.9654539514740733e+18
14495.0	1.965051051664998e+18
14496.0	1.9642563803742205e+18
14497.0	1.964106873569279e+18
14498.0	1.963633589983641e+18
14499.0	1.963175833711411e+18
14500.0	1.9627054475509755e+18
14501.0	1.961479330018099e+18
14502.0	1.9603564259180552e+18
14503.0	1.9611391937740792e+18
14504.0	1.9608125866770424e+18
14505.0	1.9596463470280686e+18
14506.0	1.9582545309990907e+18
14507.0	1.9588426999267328e+18
14508.0	1.958955617301299e+18
14509.0	1.958486123688755e+18
14510.0	1.9580150664396797e+18
14511.0	1.9575527249543163e+18
14512.0	1.9570399947784187e+18
14513.0	1.9566151419822077e+18
14514.0	1.9559104250904579e+18
14515.0	1.95566083548119e+18
14516.0	1.9506267496120353e+18
14517.0	1.9547454873534461e+18
14518.0	1.9542768829333501e+18
14519.0	1.953807107463577e+18
14520.0	1.9533427644563453e+18
14521.0	1.952860654377369e+18
14522.0	1.95237245920215e+18
14523.0	1.950097782446488e+18
14524.0	1.9497004962938862e+18
14525.0	1.950991800021811e+18
14526.0	1.950526423538073e+18
14527.0	1.9499056766124027e+18
14528.0	1.9490689851064315e+18
14529.0	1.9491149798440955e+18
14530.0	1.9486235382775805e+18
14531.0	1.9482036062388221e+18
14532.0	1.9450140863496195e+18
14533.0	1.9472735881134075e+18
14534.0	1.946813325325107e+18
14535.0	1.946314589025075e+18
14536.0	1.9458686237802496e+18
14537.0	1.9453766084329472e+18
14538.0	1.9449403471298555e+18
14539.0	1.944482691520921e+18
14540.0	1.9440200732114944e+18
14541.0	1.943491176510259e+18
14542.0	1.9430783747883003e+18
14543.0	1.941533231782297e+18
14544.0	1.9421532103114747e+18
14545.0	1.9416564470120443e+18
14546.0	1.8776785252515638e+18
14547.0	1.8827292792848118e+18
14548.0	1.94026362938327e+18
14549.0	1.9395477908750333e+18
14550.0	1.9393482560897021e+18
14551.0	1.9389118454693888e+18
14552.0	1.938412146157158e+18
14553.0	1.937934124685721e+18
14554.0	1.9375182091124733e+18
14555.0	1.9370494369202173e+18
14556.0	1.936544357154816e+18
14557.0	1.936118678919577e+18
14558.0	1.9356490594779133e+18
14559.0	1.9309674327179146e+18
14560.0	1.9339746966765553e+18
14561.0	1.9342482810601464e+18
14562.0	1.9337057595817981e+18
14563.0	1.9333371456913405e+18
14564.0	1.9327115065294845e+18
14565.0	1.9324201903063037e+18
14566.0	1.931958108867788e+18
14567.0	1.9314841072173053e+18
14568.0	1.9304745315336195e+18
14569.0	1.930555288662835e+18
14570.0	1.9288362464575488e+18
14571.0	1.929633883960115e+18
14572.0	1.9288875679612925e+18
14573.0	1.928555162658406e+18
14574.0	1.927803254813491e+18
14575.0	1.9277411321380861e+18
14576.0	1.9272921906151421e+18
14577.0	1.9268468310278144e+18
14578.0	1.9264054291857405e+18
14579.0	1.9259459985473533e+18
14580.0	1.9254870192160765e+18
14581.0	1.9249195667947515e+18
14582.0	1.9245507197009917e+18
14583.0	1.9241057359233024e+18
14584.0	1.9235855818293245e+18
14585.0	1.9231822743339005e+18
14586.0	1.922713666558361e+18
14587.0	1.922224942900838e+18
14588.0	1.9217858009497597e+18
14589.0	1.9213558797565947e+18
14590.0	1.9209171454918653e+18
14591.0	1.9204415718162427e+18
14592.0	1.9200080921755643e+18
14593.0	1.9192960268632061e+18
14594.0	1.9191379452231675e+18
14595.0	1.918683742365286e+18
14596.0	1.9174923620581363e+18
14597.0	1.917070574459288e+18
14598.0	1.917322685684121e+18
14599.0	1.9169358248935421e+18
14600.0	1.916463366746931e+18
14601.0	1.916035052811059e+18
14602.0	1.915449482674176e+18
14603.0	1.915105870191001e+18
14604.0	1.9145375856197632e+18
14605.0	1.9140528935272443e+18
14606.0	1.9135306959683584e+18
14607.0	1.913392082609766e+18
14608.0	1.912927803355955e+18
14609.0	1.9122892893585405e+18
14610.0	1.9116615614332925e+18
14611.0	1.9115710533861373e+18
14612.0	1.91118305174487e+18
14613.0	1.9107543905206272e+18
14614.0	1.9103050346004475e+18
14615.0	1.9097437410951165e+18
14616.0	1.9094329867894781e+18
14617.0	1.908989972656947e+18
14618.0	1.9082979963830272e+18
14619.0	1.9077037205487593e+18
14620.0	1.9056291926245373e+18
14621.0	1.9072292323590141e+18
14622.0	1.9067797187330045e+18
14623.0	1.9063446721003515e+18
14624.0	1.9057607595524093e+18
14625.0	1.9054537331441656e+18
14626.0	1.9049666972745725e+18
14627.0	1.9044847700672502e+18
14628.0	1.9041420903972861e+18
14629.0	1.9037007187542013e+18
14630.0	1.903245022724096e+18
14631.0	1.9027929488949243e+18
14632.0	1.892593846085228e+18
14633.0	1.9007785219915735e+18
14634.0	1.9014461041934333e+18
14635.0	1.8984357666488143e+18
14636.0	1.891384445370366e+18
14637.0	1.9001699653910525e+18
14638.0	1.899648539584102e+18
14639.0	1.8992359056343037e+18
14640.0	1.898832447143936e+18
14641.0	1.8648815191981847e+18
14642.0	1.8979482324959227e+18
14643.0	1.8975114292887547e+18
14644.0	1.8970315740676093e+18
14645.0	1.8965649141268472e+18
14646.0	1.8959322285342717e+18
14647.0	1.8955159304404987e+18
14648.0	1.895276217578291e+18
