# Flux units: erg / (cm m2 s)
# Wavelength units: Angstrom
wave	flux
14000.0	1.8470245014437883e+18
14001.0	1.8466931900153853e+18
14002.0	1.846496876455526e+18
14003.0	1.8461624411095037e+18
14004.0	1.8458261887909883e+18
14005.0	1.8454889516498944e+18
14006.0	1.8451442234818555e+18
14007.0	1.8448039060439037e+18
14008.0	1.8443931779858435e+18
14009.0	1.8441231235284987e+18
14010.0	1.8437771471355904e+18
14011.0	1.8428396715376637e+18
14012.0	1.843107333564006e+18
14013.0	1.8427920745758715e+18
14014.0	1.8424520423505917e+18
14015.0	1.842120511140659e+18
14016.0	1.8417860036526077e+18
14017.0	1.8414503519584253e+18
14018.0	1.8411106854764541e+18
14019.0	1.8407781560221696e+18
14020.0	1.8404413768990715e+18
14021.0	1.8401047219273728e+18
14022.0	1.8397688303190013e+18
14023.0	1.8394218254827515e+18
14024.0	1.8390865277878272e+18
14025.0	1.83876190208e+18
14026.0	1.8384252924067837e+18
14027.0	1.8380904493744125e+18
14028.0	1.8377473150418941e+18
14029.0	1.8374075478966272e+18
14030.0	1.83666709889024e+18
14031.0	1.836663850821222e+18
14032.0	1.8364083774423037e+18
14033.0	1.8360368023732221e+18
14034.0	1.8357437362864125e+18
14035.0	1.8354100877918203e+18
14036.0	1.8350757631754237e+18
14037.0	1.8347412724645885e+18
14038.0	1.834406758265651e+18
14039.0	1.8340678937346043e+18
14040.0	1.8337351361101824e+18
14041.0	1.8334019305340928e+18
14042.0	1.8330583113400315e+18
14043.0	1.8326966549610493e+18
14044.0	1.8323863301521403e+18
14045.0	1.8320604058877947e+18
14046.0	1.8317274754580475e+18
14047.0	1.8313906392924152e+18
14048.0	1.8310639365652477e+18
14049.0	1.8307308618514427e+18
14050.0	1.830397040551526e+18
14051.0	1.8300563171049472e+18
14052.0	1.829724631544627e+18
14053.0	1.8293964020908027e+18
14054.0	1.82906315121623e+18
14055.0	1.828729833232793e+18
14056.0	1.828396535382016e+18
14057.0	1.8280633667158013e+18
14058.0	1.827730204760473e+18
14059.0	1.827393910498918e+18
14060.0	1.827063958025011e+18
14061.0	1.8267243888508925e+18
14062.0	1.8263970066464763e+18
14063.0	1.8260494162853888e+18
14064.0	1.8256409397297147e+18
14065.0	1.8253908602257403e+18
14066.0	1.8250653621026816e+18
14067.0	1.824735359297126e+18
14068.0	1.8244029187620861e+18
14069.0	1.8240697886834685e+18
14070.0	1.8237381870092285e+18
14071.0	1.8234034865831933e+18
14072.0	1.8230742421078013e+18
14073.0	1.8227422495244288e+18
14074.0	1.8224102200311803e+18
14075.0	1.8220599419600893e+18
14076.0	1.8217425975640061e+18
14077.0	1.8213184175341568e+18
14078.0	1.8210697909370875e+18
14079.0	1.82074127459287e+18
14080.0	1.8204195244998656e+18
14081.0	1.8200884580188155e+18
14082.0	1.8197563832270843e+18
14083.0	1.8194228538507261e+18
14084.0	1.819084167158169e+18
14085.0	1.8185183974916093e+18
14086.0	1.8184048912367613e+18
14087.0	1.8180962290499581e+18
14088.0	1.8177583090761723e+18
14089.0	1.8174401073643515e+18
14090.0	1.8171091432243197e+18
14091.0	1.8167792930914296e+18
14092.0	1.8164489614524413e+18
14093.0	1.816118433520025e+18
14094.0	1.8157876941946875e+18
14095.0	1.8154559834685437e+18
14096.0	1.8151140352851963e+18
14097.0	1.8147755918622715e+18
14098.0	1.8144605794992125e+18
14099.0	1.814135388399206e+18
14100.0	1.8137950172741627e+18
14101.0	1.8134772886798333e+18
14102.0	1.8131454336696317e+18
14103.0	1.8128025174409208e+18
14104.0	1.8124852418314237e+18
14105.0	1.812158893103513e+18
14106.0	1.8118293684486141e+18
14107.0	1.8114970134773755e+18
14108.0	1.8111582730977277e+18
14109.0	1.8108369424351227e+18
14110.0	1.8105098974527485e+18
14111.0	1.8101754956611581e+18
14112.0	1.8098437866127355e+18
14113.0	1.8095226740539387e+18
14114.0	1.8091785548988413e+18
14115.0	1.8088566605217787e+18
14116.0	1.8084761499074555e+18
14117.0	1.807423356115353e+18
14118.0	1.8078506399301627e+18
14119.0	1.8075296498450427e+18
14120.0	1.807211095811686e+18
14121.0	1.8068786233999355e+18
14122.0	1.8065566216486907e+18
14123.0	1.8062268923117563e+18
14124.0	1.80587662934016e+18
14125.0	1.805150649004851e+18
14126.0	1.8052333623574525e+18
14127.0	1.80492158631936e+18
14128.0	1.804595111762329e+18
14129.0	1.804256977040179e+18
14130.0	1.8039183004139515e+18
14131.0	1.8036103042826237e+18
14132.0	1.8032546608578555e+18
14133.0	1.802456150940057e+18
14134.0	1.8026017872412672e+18
14135.0	1.8022884358225917e+18
14136.0	1.8019728882663421e+18
14137.0	1.8016467375095805e+18
14138.0	1.8013181389570048e+18
14139.0	1.8009947614740477e+18
14140.0	1.800665938106777e+18
14141.0	1.80032600318935e+18
14142.0	1.7999818555129853e+18
14143.0	1.799684212601651e+18
14144.0	1.7993621991063547e+18
14145.0	1.7990346206085115e+18
14146.0	1.79870771487703e+18
14147.0	1.7983834247135227e+18
14148.0	1.7980576296337403e+18
14149.0	1.7977321180889085e+18
14150.0	1.7974057811050493e+18
14151.0	1.7970777261342715e+18
14152.0	1.7967518706565117e+18
14153.0	1.7964278522839035e+18
14154.0	1.7960752690233341e+18
14155.0	1.7957649140154363e+18
14156.0	1.7954488312659963e+18
14157.0	1.7951237542510587e+18
14158.0	1.7947950097367035e+18
14159.0	1.7944716809076733e+18
14160.0	1.794128642205286e+18
14161.0	1.793766967371366e+18
14162.0	1.7933981974527997e+18
14163.0	1.793159632152166e+18
14164.0	1.7928183147921405e+18
14165.0	1.7925016599396347e+18
14166.0	1.7921927846821885e+18
14167.0	1.7918556582707197e+18
14168.0	1.7915432346320893e+18
14169.0	1.7912217110315005e+18
14170.0	1.7908942029979643e+18
14171.0	1.7905692836888576e+18
14172.0	1.7902470588006397e+18
14173.0	1.7899060954398715e+18
14174.0	1.7895905596276733e+18
14175.0	1.789274134623027e+18
14176.0	1.7889502722785277e+18
14177.0	1.7886261297545208e+18
14178.0	1.7883014906249213e+18
14179.0	1.787974051377971e+18
14180.0	1.7876537139265528e+18
14181.0	1.78732971065344e+18
14182.0	1.7870049473724413e+18
14183.0	1.7866812209233917e+18
14184.0	1.7863518824955896e+18
14185.0	1.7860257401274365e+18
14186.0	1.785569815927193e+18
14187.0	1.7853433218334715e+18
14188.0	1.785057085751296e+18
14189.0	1.784738409244262e+18
14190.0	1.7844153035522043e+18
14191.0	1.7840911643836413e+18
14192.0	1.783760436802355e+18
14193.0	1.7834271288852475e+18
14194.0	1.7831220452786176e+18
14195.0	1.7828015048228861e+18
14196.0	1.7824787699073021e+18
14197.0	1.782155885674496e+18
14198.0	1.7818283675746296e+18
14199.0	1.7815038442078203e+18
14200.0	1.7811079656636408e+18
14201.0	1.7808469004386304e+18
14202.0	1.780539504931635e+18
14203.0	1.7802153775071227e+18
14204.0	1.779894546805555e+18
14205.0	1.7795687852802043e+18
14206.0	1.7791375370092544e+18
14207.0	1.7789212736618493e+18
14208.0	1.7786043252080637e+18
14209.0	1.77816174896087e+18
14210.0	1.7778635842781181e+18
14211.0	1.7776326727434237e+18
14212.0	1.7773208446959608e+18
14213.0	1.7770007756799997e+18
14214.0	1.77667819175936e+18
14215.0	1.776345608617984e+18
14216.0	1.7760369783078907e+18
14217.0	1.7757158422609915e+18
14218.0	1.7753819202977787e+18
14219.0	1.7750731842912253e+18
14220.0	1.7747520130121725e+18
14221.0	1.7744304072032253e+18
14222.0	1.7740993759543293e+18
14223.0	1.7737871972630528e+18
14224.0	1.7734619491205117e+18
14225.0	1.7728724296269824e+18
14226.0	1.772800331218944e+18
14227.0	1.7724958549475325e+18
14228.0	1.7714485103951872e+18
14229.0	1.771664193250918e+18
14230.0	1.7715384966709243e+18
14231.0	1.7712200936325115e+18
14232.0	1.7709028398333947e+18
14233.0	1.7705813246214136e+18
14234.0	1.7702625558396925e+18
14235.0	1.7699399819853821e+18
14236.0	1.769612406842982e+18
14237.0	1.7692670528847872e+18
14238.0	1.7689432626823165e+18
14239.0	1.7685919410683904e+18
14240.0	1.7666546792923133e+18
14241.0	1.767922894215577e+18
14242.0	1.767645105461657e+18
14243.0	1.7672097501282296e+18
14244.0	1.7670258852626427e+18
14245.0	1.7667034070384635e+18
14246.0	1.766386161627955e+18
14247.0	1.7660685404078077e+18
14248.0	1.7657379168452605e+18
14249.0	1.7654309894225917e+18
14250.0	1.765114943583027e+18
14251.0	1.7647977904472061e+18
14252.0	1.7644783203778557e+18
14253.0	1.764157333648179e+18
14254.0	1.7638269701324797e+18
14255.0	1.7634412267044867e+18
14256.0	1.7629066156834816e+18
14257.0	1.7627586523824125e+18
14258.0	1.7625235146670077e+18
14259.0	1.7621889769799677e+18
14260.0	1.7618775834623997e+18
14261.0	1.7615482953662461e+18
14262.0	1.761259227290009e+18
14263.0	1.760571950314291e+18
14264.0	1.760445179992473e+18
14265.0	1.7603049576988672e+18
14266.0	1.7600041271164928e+18
14267.0	1.7596891550187515e+18
14268.0	1.759372052214579e+18
14269.0	1.7590448730144765e+18
14270.0	1.7587352964694013e+18
14271.0	1.7584154807894013e+18
14272.0	1.7580911990145021e+18
14273.0	1.7577368826675197e+18
14274.0	1.7567986973933565e+18
14275.0	1.7569657397444603e+18
14276.0	1.756768146083021e+18
14277.0	1.7564678506938363e+18
14278.0	1.7561598025531387e+18
14279.0	1.7558423440719864e+18
14280.0	1.7555223656529917e+18
14281.0	1.7552113982767096e+18
14282.0	1.7548948524761085e+18
14283.0	1.7545778117476347e+18
14284.0	1.7542605982138363e+18
14285.0	1.75394304074711e+18
14286.0	1.7536248155471872e+18
14287.0	1.753304718009958e+18
14288.0	1.7529623587848187e+18
14289.0	1.75161135501148e+18
14290.0	1.7523310539571195e+18
14291.0	1.7520365483851776e+18
14292.0	1.7517206065643512e+18
14293.0	1.75140116669399e+18
14294.0	1.750966036175257e+18
14295.0	1.7507316316241915e+18
14296.0	1.74962489908265e+18
14297.0	1.7500616049819648e+18
14298.0	1.749596220109619e+18
14299.0	1.7494477501366272e+18
14300.0	1.749150655840256e+18
14301.0	1.7488404618936315e+18
14302.0	1.748526971224064e+18
14303.0	1.7481745070817275e+18
14304.0	1.7478797884391421e+18
14305.0	1.7475791440838653e+18
14306.0	1.7472596840808448e+18
14307.0	1.7469424772579328e+18
14308.0	1.746629471449907e+18
14309.0	1.7463093588131835e+18
14310.0	1.7459756381765627e+18
14311.0	1.7456513396244477e+18
14312.0	1.745332928197427e+18
14313.0	1.744925491829145e+18
14314.0	1.7447357700374525e+18
14315.0	1.744419667155353e+18
14316.0	1.744064985065062e+18
14317.0	1.7437896357183485e+18
14318.0	1.7434824398602237e+18
14319.0	1.743169808184115e+18
14320.0	1.7428552454504448e+18
14321.0	1.7425370940702717e+18
14322.0	1.742185500665446e+18
14323.0	1.7418530785853437e+18
14324.0	1.7415618747695104e+18
14325.0	1.7412382254956541e+18
14326.0	1.740934465611366e+18
14327.0	1.7406127188738043e+18
14328.0	1.7402975169282043e+18
14329.0	1.7399919065169915e+18
14330.0	1.7396779309858813e+18
14331.0	1.7393636199104507e+18
14332.0	1.7390498037628928e+18
14333.0	1.738735816487731e+18
14334.0	1.738421629563699e+18
14335.0	1.7380947355762685e+18
14336.0	1.7377656655839224e+18
14337.0	1.7374763877924861e+18
14338.0	1.7371638433579005e+18
14339.0	1.7368411419967485e+18
14340.0	1.736539064867225e+18
14341.0	1.7362253460275197e+18
14342.0	1.7359100484517885e+18
14343.0	1.735598284157747e+18
14344.0	1.735280154587955e+18
14345.0	1.7349715024674813e+18
14346.0	1.734656226702131e+18
14347.0	1.7343350487121915e+18
14348.0	1.7340310271033336e+18
14349.0	1.733719219188531e+18
14350.0	1.7333705768959997e+18
14351.0	1.7330286689779707e+18
14352.0	1.732733863093862e+18
14353.0	1.7324305444503547e+18
14354.0	1.7321165353648125e+18
14355.0	1.7317992262008827e+18
14356.0	1.731487916569395e+18
14357.0	1.7311823900442621e+18
14358.0	1.7308704193904637e+18
14359.0	1.7305417486958587e+18
14360.0	1.7302435940794363e+18
14361.0	1.7299319438704637e+18
14362.0	1.729620317149593e+18
14363.0	1.7293057091174397e+18
14364.0	1.7289305907003387e+18
14365.0	1.728652045293977e+18
14366.0	1.728355549944217e+18
14367.0	1.7280601736347648e+18
14368.0	1.7277485905346557e+18
14369.0	1.7274374486753277e+18
14370.0	1.7271258756415488e+18
14371.0	1.7268143395176443e+18
14372.0	1.726496896135987e+18
14373.0	1.7261908528726013e+18
14374.0	1.7258792748056568e+18
14375.0	1.725565508989747e+18
14376.0	1.7252567914381307e+18
14377.0	1.7249447352205307e+18
14378.0	1.724631546540851e+18
14379.0	1.724322659539353e+18
14380.0	1.7240105227911165e+18
14381.0	1.723688000946176e+18
14382.0	1.7233785686851581e+18
14383.0	1.723040491005542e+18
14384.0	1.722711184454451e+18
14385.0	1.7224198615203835e+18
14386.0	1.7220893805641728e+18
14387.0	1.72179751740375e+18
14388.0	1.7214835569721341e+18
14389.0	1.7211751732871168e+18
14390.0	1.7208634559692797e+18
14391.0	1.7205546662756347e+18
14392.0	1.7202435680370685e+18
14393.0	1.719933619037798e+18
14394.0	1.7195808159956987e+18
14395.0	1.7193013964963837e+18
14396.0	1.719001673210265e+18
14397.0	1.7186909491036157e+18
14398.0	1.718379825699225e+18
14399.0	1.7180682711203835e+18
14400.0	1.717737783453286e+18
14401.0	1.7174337131905021e+18
14402.0	1.7171129831522304e+18
14403.0	1.7164866796126203e+18
14404.0	1.713671846966066e+18
14405.0	1.714242909844272e+18
14406.0	1.715840266901913e+18
14407.0	1.715220461178061e+18
14408.0	1.715243086931558e+18
14409.0	1.714944574960435e+18
14410.0	1.7146533510119421e+18
14411.0	1.7143497857433597e+18
14412.0	1.7140393653043197e+18
14413.0	1.7137344830242813e+18
14414.0	1.7134233159991293e+18
14415.0	1.7131150296219648e+18
14416.0	1.7128065318518781e+18
14417.0	1.7124943095398397e+18
14418.0	1.7121827214065661e+18
14419.0	1.711858991602073e+18
14420.0	1.7115260796272635e+18
14421.0	1.711219630355251e+18
14422.0	1.710898739255705e+18
14423.0	1.7105403963768832e+18
14424.0	1.7088624113745912e+18
14425.0	1.709916263809024e+18
14426.0	1.7096687495413752e+18
14427.0	1.709366670734131e+18
14428.0	1.7090351193915387e+18
14429.0	1.7087497590800381e+18
14430.0	1.7084368270917632e+18
14431.0	1.7080126537727997e+18
14432.0	1.7078123120033787e+18
14433.0	1.7072365498269693e+18
14434.0	1.7071836596535293e+18
14435.0	1.706884236679577e+18
14436.0	1.706594359941529e+18
14437.0	1.706288128773324e+18
14438.0	1.705965001270886e+18
14439.0	1.705665237719449e+18
14440.0	1.7053643014406141e+18
14441.0	1.7050463463538685e+18
14442.0	1.7047314229100544e+18
14443.0	1.7043826581438461e+18
14444.0	1.704119950429388e+18
14445.0	1.703805842358272e+18
14446.0	1.702488998674432e+18
14447.0	1.7031379229343736e+18
14448.0	1.7028967538098176e+18
14449.0	1.7025946817134587e+18
14450.0	1.7022820382932987e+18
14451.0	1.7019777063059453e+18
14452.0	1.7016737081851904e+18
14453.0	1.7013645594591227e+18
14454.0	1.7010591772180472e+18
14455.0	1.7007433679372285e+18
14456.0	1.7004443023179776e+18
14457.0	1.7001342123900928e+18
14458.0	1.6998281422831613e+18
14459.0	1.6995182218051581e+18
14460.0	1.699189081348505e+18
14461.0	1.6988420161142784e+18
14462.0	1.698535550065049e+18
14463.0	1.6982427624800253e+18
14464.0	1.6979442119213056e+18
14465.0	1.697616873337651e+18
14466.0	1.6973336537989112e+18
14467.0	1.6970101873967104e+18
14468.0	1.6967188996947963e+18
14469.0	1.6963908262690813e+18
14470.0	1.69608056185815e+18
14471.0	1.6957964178948093e+18
14472.0	1.6954949850103803e+18
14473.0	1.6951936259457021e+18
14474.0	1.6948908458508288e+18
14475.0	1.6945825728954365e+18
14476.0	1.6942627656040448e+18
14477.0	1.69397217918976e+18
14478.0	1.6936639951536125e+18
14479.0	1.6933582001930237e+18
14480.0	1.6930350643019768e+18
14481.0	1.692748955726643e+18
14482.0	1.6924372736409595e+18
14483.0	1.692126467325952e+18
14484.0	1.6918096027582461e+18
14485.0	1.691467805569843e+18
14486.0	1.6909184121438205e+18
14487.0	1.6909026163949563e+18
14488.0	1.690604228575232e+18
14489.0	1.690292675674112e+18
14490.0	1.6899933684629504e+18
14491.0	1.6896920362418176e+18
14492.0	1.689388737730969e+18
14493.0	1.689075671524966e+18
14494.0	1.6887528208465915e+18
14495.0	1.688459377272422e+18
14496.0	1.688036477344153e+18
14497.0	1.6878558454480893e+18
14498.0	1.6875570784632832e+18
14499.0	1.6872525233389568e+18
14500.0	1.68694620660695e+18
14501.0	1.686615715584409e+18
14502.0	1.6861084765913085e+18
14503.0	1.686012121684377e+18
14504.0	1.6857168678486013e+18
14505.0	1.6854119570472957e+18
14506.0	1.6850863565832187e+18
14507.0	1.68456593908695e+18
14508.0	1.6844992211320832e+18
14509.0	1.684202599953203e+18
14510.0	1.6838571218436096e+18
14511.0	1.6835522278195197e+18
14512.0	1.6832352055459837e+18
14513.0	1.6829373227204605e+18
14514.0	1.6826020552245243e+18
14515.0	1.68228557988823e+18
14516.0	1.6792933986467853e+18
14517.0	1.6815933234348032e+18
14518.0	1.681408505623347e+18
14519.0	1.6811158757441539e+18
14520.0	1.680813911021977e+18
14521.0	1.6805120838729725e+18
14522.0	1.6802073391661053e+18
14523.0	1.6798840573132795e+18
14524.0	1.6795824717561853e+18
14525.0	1.67929114043351e+18
14526.0	1.6789892562419707e+18
14527.0	1.6786472073953275e+18
14528.0	1.6782514832015357e+18
14529.0	1.6780682172825595e+18
14530.0	1.6777602026962941e+18
14531.0	1.6774723123806203e+18
14532.0	1.6771529043869693e+18
14533.0	1.6768667857453053e+18
14534.0	1.676566218565222e+18
14535.0	1.676250328753766e+18
14536.0	1.675953969299456e+18
14537.0	1.6756422050054141e+18
14538.0	1.675352081642291e+18
14539.0	1.6750493552345085e+18
14540.0	1.674745748022886e+18
14541.0	1.674416830703206e+18
14542.0	1.6741343678169085e+18
14543.0	1.6738096716447741e+18
14544.0	1.6735230899519485e+18
14545.0	1.673194196120371e+18
14546.0	1.670824209678335e+18
14547.0	1.6705443841703926e+18
14548.0	1.672264100819763e+18
14549.0	1.671883387201126e+18
14550.0	1.6716929171456e+18
14551.0	1.6714100113407995e+18
14552.0	1.6711074426388475e+18
14553.0	1.6707979147476987e+18
14554.0	1.670504677533286e+18
14555.0	1.6702013588897787e+18
14556.0	1.6698966158606333e+18
14557.0	1.6695878429442043e+18
14558.0	1.6692389187944443e+18
14559.0	1.6669545867509734e+18
14560.0	1.6686293471723515e+18
14561.0	1.6683706894778365e+18
14562.0	1.6680528300212221e+18
14563.0	1.667777443764633e+18
14564.0	1.66747285005271e+18
14565.0	1.6671789920813056e+18
14566.0	1.6668535644225533e+18
14567.0	1.6665375169052672e+18
14568.0	1.6662272793378813e+18
14569.0	1.6659134732566525e+18
14570.0	1.6650718861590525e+18
14571.0	1.6653127952367613e+18
14572.0	1.664985053999923e+18
14573.0	1.6646690316484605e+18
14574.0	1.6644118318940157e+18
14575.0	1.664116420352409e+18
14576.0	1.66381248095191e+18
14577.0	1.6635086908686333e+18
14578.0	1.6632148882620416e+18
14579.0	1.6629162320068605e+18
14580.0	1.662614852809523e+18
14581.0	1.6623100141502461e+18
14582.0	1.6620107069390848e+18
14583.0	1.661709022396416e+18
14584.0	1.661395870626611e+18
14585.0	1.6611049620897787e+18
14586.0	1.6608022054830077e+18
14587.0	1.660503237171609e+18
14588.0	1.6602024552431613e+18
14589.0	1.6599021128777725e+18
14590.0	1.6596015456976893e+18
14591.0	1.6592976130080763e+18
14592.0	1.6589831408713725e+18
14593.0	1.6585820278358013e+18
14594.0	1.6583900897738747e+18
14595.0	1.6580890880638976e+18
14596.0	1.6577230696087547e+18
14597.0	1.6574114210775037e+18
14598.0	1.657186446999552e+18
14599.0	1.6568985331957757e+18
14600.0	1.6565987830661115e+18
14601.0	1.6562987108139003e+18
14602.0	1.6559952596303867e+18
14603.0	1.6556962426650621e+18
14604.0	1.6553559738810365e+18
14605.0	1.655084318877286e+18
14606.0	1.6547053702217728e+18
14607.0	1.6544926938431485e+18
14608.0	1.6541936231907325e+18
14609.0	1.6538930845319165e+18
14610.0	1.6535892088848381e+18
14611.0	1.6532894117789693e+18
14612.0	1.6530007010574333e+18
14613.0	1.6527026689146877e+18
14614.0	1.6523972698963965e+18
14615.0	1.6520996722835453e+18
14616.0	1.6518046919163904e+18
14617.0	1.651497787981824e+18
14618.0	1.651193452639027e+18
14619.0	1.6508145090166781e+18
14620.0	1.650441737732096e+18
14621.0	1.6503005071278077e+18
14622.0	1.650003149429145e+18
14623.0	1.649706118886195e+18
14624.0	1.649354072496537e+18
14625.0	1.6491018991960061e+18
14626.0	1.648806475910348e+18
14627.0	1.6485080864129024e+18
14628.0	1.64821369660375e+18
14629.0	1.64791464272855e+18
14630.0	1.6476122870972413e+18
14631.0	1.6472880254550008e+18
14632.0	1.6468575439028221e+18
14633.0	1.6466506070097915e+18
14634.0	1.646378648338432e+18
14635.0	1.6460706572402688e+18
14636.0	1.6457435854143485e+18
14637.0	1.645484248242585e+18
14638.0	1.6451785069690877e+18
14639.0	1.644870294411673e+18
14640.0	1.6445643836882941e+18
14641.0	1.6438292094386176e+18
14642.0	1.6439643499134968e+18
14643.0	1.6436845697040381e+18
14644.0	1.6433740754452483e+18
14645.0	1.6430656531726333e+18
14646.0	1.6427777897005053e+18
14647.0	1.642478786156953e+18
14648.0	1.6421873994694653e+18
