# Flux units: erg / (cm m2 s)
# Wavelength units: Angstrom
wave	flux
14000.0	1.9339113039659003e+18
14001.0	1.933538089762816e+18
14002.0	1.9331854360379387e+18
14003.0	1.9328215147347965e+18
14004.0	1.9324575984648187e+18
14005.0	1.9320937459482621e+18
14006.0	1.9317291837554683e+18
14007.0	1.9313657590579197e+18
14008.0	1.9309925867978747e+18
14009.0	1.9306387049807864e+18
14010.0	1.9302755000647677e+18
14011.0	1.92984548156375e+18
14012.0	1.9295487077122043e+18
14013.0	1.929185955781017e+18
14014.0	1.928822896826777e+18
14015.0	1.9284596566786043e+18
14016.0	1.9280969836003325e+18
14017.0	1.92773415281623e+18
14018.0	1.927371395851878e+18
14019.0	1.9270087328399355e+18
14020.0	1.9266460564062205e+18
14021.0	1.9262834756026365e+18
14022.0	1.9259210709598203e+18
14023.0	1.925558621018521e+18
14024.0	1.9251955989741563e+18
14025.0	1.9248343888691197e+18
14026.0	1.9244721201217533e+18
14027.0	1.9241102993260541e+18
14028.0	1.923748374511616e+18
14029.0	1.9233864111095803e+18
14030.0	1.9229904201580541e+18
14031.0	1.922661757852057e+18
14032.0	1.9223014168068093e+18
14033.0	1.9219355107590141e+18
14034.0	1.9215784815362043e+18
14035.0	1.9212172378767355e+18
14036.0	1.9208559925395456e+18
14037.0	1.9204948143112187e+18
14038.0	1.9201337317130237e+18
14039.0	1.919772729645465e+18
14040.0	1.919411789653606e+18
14041.0	1.9190509452918784e+18
14042.0	1.9186890288660477e+18
14043.0	1.918325277012787e+18
14044.0	1.9179676203220987e+18
14045.0	1.9176083765067773e+18
14046.0	1.9172479566086141e+18
14047.0	1.9168874494689275e+18
14048.0	1.9165273131057147e+18
14049.0	1.9161671566098432e+18
14050.0	1.9158070454124544e+18
14051.0	1.9154460970319872e+18
14052.0	1.9150870629318653e+18
14053.0	1.9147272386248704e+18
14054.0	1.914367473038131e+18
14055.0	1.914007777915699e+18
14056.0	1.9136481700347904e+18
14057.0	1.913288651073126e+18
14058.0	1.9129292008980475e+18
14059.0	1.9125698396422141e+18
14060.0	1.9122105538838525e+18
14061.0	1.9118506389798907e+18
14062.0	1.9114922222813181e+18
14063.0	1.911131525559091e+18
14064.0	1.910767881080012e+18
14065.0	1.9104144589586424e+18
14066.0	1.9100565959081981e+18
14067.0	1.909697895674675e+18
14068.0	1.9093392675831805e+18
14069.0	1.9089805740605437e+18
14070.0	1.9086222144045056e+18
14071.0	1.908263549403136e+18
14072.0	1.9079055638790144e+18
14073.0	1.9075473535401981e+18
14074.0	1.9071892186988541e+18
14075.0	1.906831137544601e+18
14076.0	1.9064731637645312e+18
14077.0	1.9061078835068928e+18
14078.0	1.9057568571719675e+18
14079.0	1.9053990863962107e+18
14080.0	1.90504212931543e+18
14081.0	1.904684568254873e+18
14082.0	1.9043269048532984e+18
14083.0	1.903969494787686e+18
14084.0	1.9036121702858744e+18
14085.0	1.9032282203422715e+18
14086.0	1.9028969458237437e+18
14087.0	1.9025408477364221e+18
14088.0	1.9021838101250045e+18
14089.0	1.9018269922951163e+18
14090.0	1.9014700805128187e+18
14091.0	1.901113428777369e+18
14092.0	1.9007567686533115e+18
14093.0	1.9004001773158397e+18
14094.0	1.9000437000634365e+18
14095.0	1.8996873134079992e+18
14096.0	1.8993296516841464e+18
14097.0	1.8989744629219325e+18
14098.0	1.8986178950725627e+18
14099.0	1.8982624496189437e+18
14100.0	1.897905162027008e+18
14101.0	1.8975505336238075e+18
14102.0	1.8971946469294075e+18
14103.0	1.896837293906329e+18
14104.0	1.8964832090849275e+18
14105.0	1.8961275790819325e+18
14106.0	1.895772043031347e+18
14107.0	1.895416542212915e+18
14108.0	1.895061225943859e+18
14109.0	1.8947054030028797e+18
14110.0	1.8943504373776381e+18
14111.0	1.893994874483507e+18
14112.0	1.8936402846679035e+18
14113.0	1.893285517013811e+18
14114.0	1.8929306151419904e+18
14115.0	1.8925755572420605e+18
14116.0	1.892219600083353e+18
14117.0	1.891804867303833e+18
14118.0	1.8915114270851072e+18
14119.0	1.8911563524079616e+18
14120.0	1.890802111558451e+18
14121.0	1.8904482700066808e+18
14122.0	1.8900934704758781e+18
14123.0	1.8897394494078973e+18
14124.0	1.8893848881135616e+18
14125.0	1.8889822399627261e+18
14126.0	1.8886777687244797e+18
14127.0	1.8883242727833592e+18
14128.0	1.8879704161320955e+18
14129.0	1.8876155981463547e+18
14130.0	1.887261613988249e+18
14131.0	1.8869096833613824e+18
14132.0	1.886555764634419e+18
14133.0	1.8861445986910203e+18
14134.0	1.885849057964851e+18
14135.0	1.8854949261672443e+18
14136.0	1.8851426130198528e+18
14137.0	1.8847900482142205e+18
14138.0	1.884436674746777e+18
14139.0	1.8840843163009021e+18
14140.0	1.8837311911362555e+18
14141.0	1.883378008929075e+18
14142.0	1.883022102102016e+18
14143.0	1.8826732836487163e+18
14144.0	1.882321139951206e+18
14145.0	1.8819687580172288e+18
14146.0	1.8816162552872952e+18
14147.0	1.8812640646135805e+18
14148.0	1.8809119343378427e+18
14149.0	1.8805599114362877e+18
14150.0	1.880207900278784e+18
14151.0	1.879855697861017e+18
14152.0	1.879504111167078e+18
14153.0	1.879152329857433e+18
14154.0	1.878797859160064e+18
14155.0	1.878447537468211e+18
14156.0	1.8780972627525632e+18
14157.0	1.8777459864371197e+18
14158.0	1.8773941698953216e+18
14159.0	1.8770432777781245e+18
14160.0	1.87669115085783e+18
14161.0	1.8763345377099773e+18
14162.0	1.8759784295563261e+18
14163.0	1.8756384526958584e+18
14164.0	1.8752861663920125e+18
14165.0	1.8749327979577336e+18
14166.0	1.8745860917559293e+18
14167.0	1.8742356811448317e+18
14168.0	1.8738849584775163e+18
14169.0	1.873534593164902e+18
14170.0	1.8731838436540413e+18
14171.0	1.8728334833745917e+18
14172.0	1.872483495549337e+18
14173.0	1.8721299777978363e+18
14174.0	1.871782577019289e+18
14175.0	1.8714331478753275e+18
14176.0	1.871083185215897e+18
14177.0	1.870733304764825e+18
14178.0	1.870383425991475e+18
14179.0	1.8700331193991165e+18
14180.0	1.8696841163964413e+18
14181.0	1.8693345228357627e+18
14182.0	1.8689849510854653e+18
14183.0	1.8686356142161915e+18
14184.0	1.8682857085992955e+18
14185.0	1.8679368800796664e+18
14186.0	1.867574774071296e+18
14187.0	1.8672357233131515e+18
14188.0	1.8668895338495992e+18
14189.0	1.8665405996335104e+18
14190.0	1.8661917493035005e+18
14191.0	1.865842912395264e+18
14192.0	1.8654934077538296e+18
14193.0	1.8651438913683453e+18
14194.0	1.864796977129062e+18
14195.0	1.8644486754140155e+18
14196.0	1.864100256258457e+18
14197.0	1.8637519243444221e+18
14198.0	1.863403120990617e+18
14199.0	1.8630552873598976e+18
14200.0	1.8627005767483387e+18
14201.0	1.8623589221662717e+18
14202.0	1.862011440857088e+18
14203.0	1.8616629193605117e+18
14204.0	1.8613154648948733e+18
14205.0	1.8609677235388416e+18
14206.0	1.860607496578662e+18
14207.0	1.8602727005224955e+18
14208.0	1.8599253567864827e+18
14209.0	1.8595639403216896e+18
14210.0	1.8592204301795323e+18
14211.0	1.858883355777433e+18
14212.0	1.85853623182295e+18
14213.0	1.85818923705303e+18
14214.0	1.8578421432975355e+18
14215.0	1.8574940261318653e+18
14216.0	1.857148490979737e+18
14217.0	1.856801715991347e+18
14218.0	1.8564245507538941e+18
14219.0	1.856037386295705e+18
14220.0	1.8556906163404797e+18
14221.0	1.8553438765842424e+18
14222.0	1.8549972626571261e+18
14223.0	1.8546507108057088e+18
14224.0	1.854304200897331e+18
14225.0	1.8539368369094653e+18
14226.0	1.8536111643033597e+18
14227.0	1.85326520804311e+18
14228.0	1.8528650982850555e+18
14229.0	1.85256345904087e+18
14230.0	1.852226997007155e+18
14231.0	1.8518811061780475e+18
14232.0	1.8515352606474235e+18
14233.0	1.8511894788702203e+18
14234.0	1.8508437675573243e+18
14235.0	1.8504978465292283e+18
14236.0	1.8501115964293115e+18
14237.0	1.8497017223315453e+18
14238.0	1.849356078127513e+18
14239.0	1.8490095313092603e+18
14240.0	1.8484909492404221e+18
14241.0	1.8483184526163965e+18
14242.0	1.8479737596805117e+18
14243.0	1.8476121804767232e+18
14244.0	1.8472836238671872e+18
14245.0	1.8469377884028928e+18
14246.0	1.8465920754122752e+18
14247.0	1.8462484914503677e+18
14248.0	1.8459017835708416e+18
14249.0	1.8455584630112253e+18
14250.0	1.8452136744452093e+18
14251.0	1.844869223101235e+18
14252.0	1.8445245670752253e+18
14253.0	1.8441799043383293e+18
14254.0	1.843835201336115e+18
14255.0	1.8434872854970365e+18
14256.0	1.8430774566977533e+18
14257.0	1.8427078026199035e+18
14258.0	1.8423654702383104e+18
14259.0	1.8420211329794043e+18
14260.0	1.841676141409075e+18
14261.0	1.8413335254925307e+18
14262.0	1.841013864162918e+18
14263.0	1.840637156943462e+18
14264.0	1.840317030884966e+18
14265.0	1.8399818304978941e+18
14266.0	1.8396380837969915e+18
14267.0	1.8392943085748221e+18
14268.0	1.8389505669070845e+18
14269.0	1.8386065920360445e+18
14270.0	1.838263266443264e+18
14271.0	1.8379196657041405e+18
14272.0	1.8375761421402112e+18
14273.0	1.837232100160307e+18
14274.0	1.8368385553268733e+18
14275.0	1.8365403621228541e+18
14276.0	1.8362025998548987e+18
14277.0	1.8358594755887096e+18
14278.0	1.835516904970649e+18
14279.0	1.8351273917022205e+18
14280.0	1.8347586385608704e+18
14281.0	1.8344163263119355e+18
14282.0	1.8340733446520827e+18
14283.0	1.833730391513497e+18
14284.0	1.8333875054837752e+18
14285.0	1.833044671463424e+18
14286.0	1.832701862608896e+18
14287.0	1.832359181261209e+18
14288.0	1.832016112359833e+18
14289.0	1.8315622551126016e+18
14290.0	1.8313310550097915e+18
14291.0	1.8309890212626427e+18
14292.0	1.8306468415537147e+18
14293.0	1.8303042558361597e+18
14294.0	1.82994740445184e+18
14295.0	1.8296196716036093e+18
14296.0	1.8291881364422653e+18
14297.0	1.8289348709449725e+18
14298.0	1.8285757999349752e+18
14299.0	1.8282518100836347e+18
14300.0	1.8279105111785472e+18
14301.0	1.82756876264407e+18
14302.0	1.8272267708399613e+18
14303.0	1.8268814688911355e+18
14304.0	1.8265132324880381e+18
14305.0	1.8261308277260285e+18
14306.0	1.825788230264422e+18
14307.0	1.8254469380702203e+18
14308.0	1.8251059227000832e+18
14309.0	1.8247640416255997e+18
14310.0	1.8244179192709115e+18
14311.0	1.824077692429926e+18
14312.0	1.8237375360532475e+18
14313.0	1.8233875968819197e+18
14314.0	1.823057917876633e+18
14315.0	1.8227170518237184e+18
14316.0	1.8223706308345853e+18
14317.0	1.8220299392647165e+18
14318.0	1.8216525995442176e+18
14319.0	1.8213119113297917e+18
14320.0	1.820971144262451e+18
14321.0	1.820630524834611e+18
14322.0	1.820285610439475e+18
14323.0	1.8199472358031355e+18
14324.0	1.8196089567969277e+18
14325.0	1.8192685806387197e+18
14326.0	1.8189282564898813e+18
14327.0	1.818587980994969e+18
14328.0	1.818247076354457e+18
14329.0	1.8179076581752827e+18
14330.0	1.8175675840069632e+18
14331.0	1.81722754842624e+18
14332.0	1.8168418033205243e+18
14333.0	1.8164770398011387e+18
14334.0	1.8161369622773755e+18
14335.0	1.8157957053153277e+18
14336.0	1.8154547922862077e+18
14337.0	1.81511704847319e+18
14338.0	1.8147770665795584e+18
14339.0	1.8144373011120125e+18
14340.0	1.8140978091130875e+18
14341.0	1.8137580570673147e+18
14342.0	1.813418601978265e+18
14343.0	1.8130789573066747e+18
14344.0	1.812739540805222e+18
14345.0	1.8124002249670653e+18
14346.0	1.81206057526231e+18
14347.0	1.8117202225922043e+18
14348.0	1.8113823328174077e+18
14349.0	1.811043292125593e+18
14350.0	1.810702464660275e+18
14351.0	1.8103634172575741e+18
14352.0	1.8100262891683837e+18
14353.0	1.8096873894051837e+18
14354.0	1.8093482111401981e+18
14355.0	1.8090090781736955e+18
14356.0	1.8086704887889915e+18
14357.0	1.80833234232279e+18
14358.0	1.807993722739097e+18
14359.0	1.8076550880559104e+18
14360.0	1.8073164214960125e+18
14361.0	1.806978078736384e+18
14362.0	1.8066397443653627e+18
14363.0	1.806301351274086e+18
14364.0	1.805916411474739e+18
14365.0	1.8055535639134205e+18
14366.0	1.8052154946224123e+18
14367.0	1.80487813332992e+18
14368.0	1.8045397654044664e+18
14369.0	1.804201561895731e+18
14370.0	1.8038633684533245e+18
14371.0	1.8035252354088963e+18
14372.0	1.8031871359188987e+18
14373.0	1.80284908676055e+18
14374.0	1.802511156720435e+18
14375.0	1.8021732434575355e+18
14376.0	1.801835387237171e+18
14377.0	1.801497522628198e+18
14378.0	1.801159565744537e+18
14379.0	1.800822175930777e+18
14380.0	1.8004845311033341e+18
14381.0	1.8001466950156288e+18
14382.0	1.799809328689971e+18
14383.0	1.7994717241278461e+18
14384.0	1.7991346228822008e+18
14385.0	1.798797352186675e+18
14386.0	1.7984600781357053e+18
14387.0	1.7981228326060027e+18
14388.0	1.797785498157056e+18
14389.0	1.7974485512617981e+18
14390.0	1.7971113191538688e+18
14391.0	1.7967745802960896e+18
14392.0	1.796437536092979e+18
14393.0	1.7961007938797565e+18
14394.0	1.7957596828794875e+18
14395.0	1.795426029351731e+18
14396.0	1.795090493420339e+18
14397.0	1.7947538401263616e+18
14398.0	1.7944171801214976e+18
14399.0	1.7940806358794237e+18
14400.0	1.7937419844190205e+18
14401.0	1.7933479329136635e+18
14402.0	1.7930010354515963e+18
14403.0	1.7925910674014203e+18
14404.0	1.7919229416177656e+18
14405.0	1.7918074506182646e+18
14406.0	1.7916543149015035e+18
14407.0	1.7912164614406144e+18
14408.0	1.7909811123322875e+18
14409.0	1.790642588378726e+18
14410.0	1.7902659180691453e+18
14411.0	1.7899297412481021e+18
14412.0	1.7895933966548987e+18
14413.0	1.7892578120695805e+18
14414.0	1.78892152284119e+18
14415.0	1.788585688275353e+18
14416.0	1.7882498990079995e+18
14417.0	1.7879137926512635e+18
14418.0	1.7875771712339968e+18
14419.0	1.7872420916428797e+18
14420.0	1.7869058812674043e+18
14421.0	1.7865705869279227e+18
14422.0	1.7862346248552448e+18
14423.0	1.7858959851388925e+18
14424.0	1.7851465636773885e+18
14425.0	1.7852246867836925e+18
14426.0	1.7848925817929723e+18
14427.0	1.7845575659552765e+18
14428.0	1.7842196896022523e+18
14429.0	1.7838865863671805e+18
14430.0	1.7835517097803776e+18
14431.0	1.7832069329584123e+18
14432.0	1.7828805573869565e+18
14433.0	1.782468824373657e+18
14434.0	1.7822091097145341e+18
14435.0	1.78187404354519e+18
14436.0	1.7815411584139261e+18
14437.0	1.781206265049907e+18
14438.0	1.7808688131604475e+18
14439.0	1.780535783745126e+18
14440.0	1.780201636967219e+18
14441.0	1.779866017149747e+18
14442.0	1.7794678485155837e+18
14443.0	1.7791236219863037e+18
14444.0	1.7787942097387515e+18
14445.0	1.7784595512557565e+18
14446.0	1.7779693579141117e+18
14447.0	1.7777877126742013e+18
14448.0	1.7774556429156352e+18
14449.0	1.777121105228595e+18
14450.0	1.7767864635228152e+18
14451.0	1.7764518671155197e+18
14452.0	1.7761171247464443e+18
14453.0	1.7757816240472061e+18
14454.0	1.775448230566297e+18
14455.0	1.775113208017715e+18
14456.0	1.774779130026393e+18
14457.0	1.7744446359601147e+18
14458.0	1.7741105244143616e+18
14459.0	1.7737759867273216e+18
14460.0	1.7734415731916797e+18
14461.0	1.7731048360116221e+18
14462.0	1.7727696456908797e+18
14463.0	1.7724384533807104e+18
14464.0	1.7721053367238653e+18
14465.0	1.7717688176476155e+18
14466.0	1.771437655536435e+18
14467.0	1.7711019216338941e+18
14468.0	1.770769586795315e+18
14469.0	1.7704331247615997e+18
14470.0	1.7700985283543037e+18
14471.0	1.7697670843858936e+18
14472.0	1.7694346069409787e+18
14473.0	1.769100950057779e+18
14474.0	1.768767291496857e+18
14475.0	1.7684334735523837e+18
14476.0	1.7680951307927547e+18
14477.0	1.767766339302195e+18
14478.0	1.7674328267030525e+18
14479.0	1.7670992402841597e+18
14480.0	1.766764742862438e+18
14481.0	1.7664322603843581e+18
14482.0	1.766098331710259e+18
14483.0	1.76576414131159e+18
14484.0	1.7654305196605437e+18
14485.0	1.7650938529447933e+18
14486.0	1.7647302839631872e+18
14487.0	1.764431783736115e+18
14488.0	1.7640987123777533e+18
14489.0	1.7637646276755453e+18
14490.0	1.7634319640035323e+18
14491.0	1.7630694368870397e+18
14492.0	1.7627002458603515e+18
14493.0	1.7623668590903293e+18
14494.0	1.7620310882779133e+18
14495.0	1.7616999882424317e+18
14496.0	1.761351319106355e+18
14497.0	1.7610335905120253e+18
14498.0	1.7607006214946813e+18
14499.0	1.760367484705177e+18
14500.0	1.7600342824845307e+18
14501.0	1.759698947879731e+18
14502.0	1.759342473982771e+18
14503.0	1.7590333370007547e+18
14504.0	1.7587013511282685e+18
14505.0	1.7583667681427453e+18
14506.0	1.758031468770099e+18
14507.0	1.7576743808270333e+18
14508.0	1.757370126014873e+18
14509.0	1.757037385167667e+18
14510.0	1.7567045084250107e+18
14511.0	1.7563715746398203e+18
14512.0	1.756036951388979e+18
14513.0	1.7557057725005821e+18
14514.0	1.755369226580787e+18
14515.0	1.7550394284572664e+18
14516.0	1.7544194583166976e+18
14517.0	1.7543724468797437e+18
14518.0	1.7540420145774587e+18
14519.0	1.753709590819635e+18
14520.0	1.7533770244554752e+18
14521.0	1.753044427892326e+18
14522.0	1.7527117843529725e+18
14523.0	1.75237386773463e+18
14524.0	1.7520414859198461e+18
14525.0	1.751713496380211e+18
14526.0	1.7513816313036797e+18
14527.0	1.7510465198358523e+18
14528.0	1.750700912541696e+18
14529.0	1.750382751095193e+18
14530.0	1.7500498592530427e+18
14531.0	1.7497190008094717e+18
14532.0	1.7493801597665277e+18
14533.0	1.7490542204026877e+18
14534.0	1.7487220516585472e+18
14535.0	1.7483895641473021e+18
14536.0	1.748057195754291e+18
14537.0	1.7477234684067837e+18
14538.0	1.7473925428543485e+18
14539.0	1.7470602281484288e+18
14540.0	1.7467278714994688e+18
14541.0	1.7463949226147837e+18
14542.0	1.746063018950656e+18
14543.0	1.745727677634969e+18
14544.0	1.7453979617198077e+18
14545.0	1.745064727622451e+18
14546.0	1.744187549338828e+18
14547.0	1.743881605061017e+18
14548.0	1.7440025788547072e+18
14549.0	1.74365864928215e+18
14550.0	1.743339692595609e+18
14551.0	1.7430074550648827e+18
14552.0	1.7426748635348987e+18
14553.0	1.7423415489069053e+18
14554.0	1.7420100193746944e+18
14555.0	1.7416774714654717e+18
14556.0	1.7413448396701693e+18
14557.0	1.7410123387371515e+18
14558.0	1.7406789804883965e+18
14559.0	1.7401347057909752e+18
14560.0	1.74001380917248e+18
14561.0	1.7396816001630205e+18
14562.0	1.739347159783833e+18
14563.0	1.7390174807785464e+18
14564.0	1.7386844379414525e+18
14565.0	1.738352650040115e+18
14566.0	1.7380201390407675e+18
14567.0	1.7376875290558461e+18
14568.0	1.7373547345215485e+18
14569.0	1.73700993253376e+18
14570.0	1.7366053097046016e+18
14571.0	1.7363309401473021e+18
14572.0	1.735994570388275e+18
14573.0	1.735662465397555e+18
14574.0	1.7353325229899776e+18
14575.0	1.7350011108982781e+18
14576.0	1.7346687290834941e+18
14577.0	1.734336427799347e+18
14578.0	1.734003650042265e+18
14579.0	1.733671373923942e+18
14580.0	1.7333388411142141e+18
14581.0	1.7330058939072512e+18
14582.0	1.7326736446324733e+18
14583.0	1.7323410833014781e+18
14584.0	1.7320071177175037e+18
14585.0	1.7316757307916285e+18
14586.0	1.731342651044659e+18
14587.0	1.7310102323199997e+18
14588.0	1.7306779562016763e+18
14589.0	1.7303483979923453e+18
14590.0	1.7300192944455675e+18
14591.0	1.7296900818468861e+18
14592.0	1.7293607081869307e+18
14593.0	1.729018015095193e+18
14594.0	1.7287025480695805e+18
14595.0	1.7283728187326461e+18
14596.0	1.728038921935257e+18
14597.0	1.727708848665395e+18
14598.0	1.727385174225715e+18
14599.0	1.727056693113651e+18
14600.0	1.7267273865625597e+18
14601.0	1.726398153831219e+18
14602.0	1.726068649308979e+18
14603.0	1.7257394501320704e+18
14604.0	1.725405172491878e+18
14605.0	1.7250797834207227e+18
14606.0	1.7247426872082432e+18
14607.0	1.7244208632954877e+18
14608.0	1.7240919963074557e+18
14609.0	1.7237618374737915e+18
14610.0	1.723431400138342e+18
14611.0	1.723101984535347e+18
14612.0	1.7227356171141115e+18
14613.0	1.722314785816576e+18
14614.0	1.7219842511732733e+18
14615.0	1.7216545000259581e+18
14616.0	1.7213243713912832e+18
14617.0	1.720994100150272e+18
14618.0	1.7206637953548285e+18
14619.0	1.720329125127782e+18
14620.0	1.7199895895080957e+18
14621.0	1.7196727232626688e+18
14622.0	1.7193423631024125e+18
14623.0	1.7190118469140477e+18
14624.0	1.7186745023987712e+18
14625.0	1.718350624954777e+18
14626.0	1.7180199175061504e+18
14627.0	1.71768886109143e+18
14628.0	1.7173586032721915e+18
14629.0	1.7170277951602685e+18
14630.0	1.7166968142430205e+18
14631.0	1.716365880301977e+18
14632.0	1.7160008164704253e+18
14633.0	1.715699133605478e+18
14634.0	1.7153724409446395e+18
14635.0	1.715039802438451e+18
14636.0	1.714705096979251e+18
14637.0	1.7143790821179387e+18
14638.0	1.7140473999130621e+18
14639.0	1.7137148973023227e+18
14640.0	1.7133836311724027e+18
14641.0	1.71292174099415e+18
14642.0	1.7127203221274621e+18
14643.0	1.712389935123661e+18
14644.0	1.7120581941985277e+18
14645.0	1.7117238058287104e+18
14646.0	1.7113938533548027e+18
14647.0	1.711061813795225e+18
14648.0	1.7107302490308603e+18
14649.0	1.7103983722102781e+18
