# Flux units: erg / (cm m2 s)
# Wavelength units: Angstrom
wave	flux
14000.0	1.8890602607280125e+18
14001.0	1.8886417228759037e+18
14002.0	1.888418914736537e+18
14003.0	1.8880669924982784e+18
14004.0	1.887713942831104e+18
14005.0	1.8873606784155645e+18
14006.0	1.8869987468902397e+18
14007.0	1.886643949037158e+18
14008.0	1.8861906286608381e+18
14009.0	1.8859450941046781e+18
14010.0	1.88557880721408e+18
14011.0	1.8845256158019581e+18
14012.0	1.8848868745609213e+18
14013.0	1.8845364874379267e+18
14014.0	1.8841775439347712e+18
14015.0	1.8838288429219837e+18
14016.0	1.8834790027362296e+18
14017.0	1.8831267332095997e+18
14018.0	1.8827742975885307e+18
14019.0	1.8824220901375997e+18
14020.0	1.8820689934942205e+18
14021.0	1.8817160243576827e+18
14022.0	1.881359724943769e+18
14023.0	1.880994461463347e+18
14024.0	1.880641079607296e+18
14025.0	1.8803083874140155e+18
14026.0	1.8799558276415483e+18
14027.0	1.879606267635302e+18
14028.0	1.87924725366784e+18
14029.0	1.878896787691929e+18
14030.0	1.8770526495309837e+18
14031.0	1.8781428883914744e+18
14032.0	1.877845337754828e+18
14033.0	1.8774415873409021e+18
14034.0	1.8771431626113021e+18
14035.0	1.8767957115011072e+18
14036.0	1.8764408415059965e+18
14037.0	1.8760946956632061e+18
14038.0	1.8757440535265277e+18
14039.0	1.875388715447091e+18
14040.0	1.8750365667164155e+18
14041.0	1.8746897715953667e+18
14042.0	1.8743294724931581e+18
14043.0	1.87394590507008e+18
14044.0	1.873627367813939e+18
14045.0	1.8732866460450816e+18
14046.0	1.8729357790937083e+18
14047.0	1.87257842607063e+18
14048.0	1.8722382680162304e+18
14049.0	1.8718910232657915e+18
14050.0	1.8715413625962493e+18
14051.0	1.8711818000138237e+18
14052.0	1.8708374996647933e+18
14053.0	1.8704923000569856e+18
14054.0	1.8701430655287296e+18
14055.0	1.8697859742302205e+18
14056.0	1.8694292268646392e+18
14057.0	1.8690800292462587e+18
14058.0	1.868730861826867e+18
14059.0	1.86838178332672e+18
14060.0	1.8680327518027776e+18
14061.0	1.8676760329584637e+18
14062.0	1.8673347726409725e+18
14063.0	1.8669678096285693e+18
14064.0	1.8663614793646077e+18
14065.0	1.8662787844669437e+18
14066.0	1.8659402907123707e+18
14067.0	1.8655821692927992e+18
14068.0	1.865243489311129e+18
14069.0	1.8648916123713533e+18
14070.0	1.8645458775703547e+18
14071.0	1.8641954938028032e+18
14072.0	1.8638507471798264e+18
14073.0	1.8635027289997307e+18
14074.0	1.8631547812839424e+18
14075.0	1.862786340198809e+18
14076.0	1.8624468649771003e+18
14077.0	1.8617775563997181e+18
14078.0	1.8617382087950333e+18
14079.0	1.8614044780920832e+18
14080.0	1.8610689220280317e+18
14081.0	1.8607216856662013e+18
14082.0	1.8603720199634941e+18
14083.0	1.8600252919513083e+18
14084.0	1.859678105921126e+18
14085.0	1.8589190660816893e+18
14086.0	1.8589559273029632e+18
14087.0	1.8586384721772536e+18
14088.0	1.8582759769374717e+18
14089.0	1.857936493327155e+18
14090.0	1.857593936130867e+18
14091.0	1.8572522849042427e+18
14092.0	1.856906023298662e+18
14093.0	1.8565595670773752e+18
14094.0	1.8562130001264637e+18
14095.0	1.8558657251770365e+18
14096.0	1.8554557252501504e+18
14097.0	1.8551455346589693e+18
14098.0	1.8547984845242365e+18
14099.0	1.8544817424302077e+18
14100.0	1.8541227016192e+18
14101.0	1.853791110011289e+18
14102.0	1.8534451822723072e+18
14103.0	1.8530824303411197e+18
14104.0	1.8527509846949883e+18
14105.0	1.8524085365506043e+18
14106.0	1.8520632195022845e+18
14107.0	1.851717219621273e+18
14108.0	1.851359554541977e+18
14109.0	1.8510215087390715e+18
14110.0	1.8506781395255293e+18
14111.0	1.850324626807193e+18
14112.0	1.8499827994198013e+18
14113.0	1.8496441278267384e+18
14114.0	1.849286425837568e+18
14115.0	1.8489527840538621e+18
14116.0	1.848564294195609e+18
14117.0	1.8456578747269125e+18
14118.0	1.8479130009927677e+18
14119.0	1.84753067172823e+18
14120.0	1.8471982009942013e+18
14121.0	1.8468691494567933e+18
14122.0	1.846504162800435e+18
14123.0	1.8461728027181053e+18
14124.0	1.8458233500860413e+18
14125.0	1.8449826236596216e+18
14126.0	1.8451627253956605e+18
14127.0	1.8448261157224445e+18
14128.0	1.844481451307827e+18
14129.0	1.8441261031620603e+18
14130.0	1.8437721039044603e+18
14131.0	1.8434524476080125e+18
14132.0	1.8431003492089856e+18
14133.0	1.8421463061102577e+18
14134.0	1.8424192932249597e+18
14135.0	1.842057854949785e+18
14136.0	1.8416998325157888e+18
14137.0	1.841385529828966e+18
14138.0	1.8410219021271035e+18
14139.0	1.8407060609695736e+18
14140.0	1.840358252504678e+18
14141.0	1.8399951415410688e+18
14142.0	1.8394926907654141e+18
14143.0	1.839330164840857e+18
14144.0	1.8389939561431037e+18
14145.0	1.8386504560672765e+18
14146.0	1.8383042229829632e+18
14147.0	1.837964667230617e+18
14148.0	1.8376198954418176e+18
14149.0	1.837279227360051e+18
14150.0	1.8369419969298432e+18
14151.0	1.836590487411097e+18
14152.0	1.8362583069229053e+18
14153.0	1.8359163402846205e+18
14154.0	1.8355459396206587e+18
14155.0	1.8351466301358077e+18
14156.0	1.834880043529011e+18
14157.0	1.8345498779844605e+18
14158.0	1.834203879781171e+18
14159.0	1.8338671275016187e+18
14160.0	1.833518055712358e+18
14161.0	1.8331159377215485e+18
14162.0	1.8327217972969464e+18
14163.0	1.8324973751894016e+18
14164.0	1.832074832615833e+18
14165.0	1.8317629894688763e+18
14166.0	1.83147709899735e+18
14167.0	1.8311224034852861e+18
14168.0	1.830793947539046e+18
14169.0	1.8304578764144637e+18
14170.0	1.830112322807398e+18
14171.0	1.829773654569779e+18
14172.0	1.8294366170775547e+18
14173.0	1.82905644032983e+18
14174.0	1.828750085010227e+18
14175.0	1.8284161362034685e+18
14176.0	1.8280762063192061e+18
14177.0	1.8277362613354493e+18
14178.0	1.8273955177562112e+18
14179.0	1.8270487209574392e+18
14180.0	1.826716758573056e+18
14181.0	1.8263770870579192e+18
14182.0	1.8260364810518525e+18
14183.0	1.8256976886628344e+18
14184.0	1.8253519672836093e+18
14185.0	1.825015761941299e+18
14186.0	1.8241996795674621e+18
14187.0	1.8243047133282304e+18
14188.0	1.823995715597107e+18
14189.0	1.8236573443162107e+18
14190.0	1.8233189914902525e+18
14191.0	1.8229781791244285e+18
14192.0	1.8226344827551741e+18
14193.0	1.8222274809167872e+18
14194.0	1.8219626542399488e+18
14195.0	1.8216291617734653e+18
14196.0	1.8212904499150843e+18
14197.0	1.8209519947481085e+18
14198.0	1.8206076507783165e+18
14199.0	1.820272598030745e+18
14200.0	1.819641722699776e+18
14201.0	1.819582425307545e+18
14202.0	1.8192577677230075e+18
14203.0	1.8189136468901885e+18
14204.0	1.818581364060979e+18
14205.0	1.8182433132249085e+18
14206.0	1.8177645904658432e+18
14207.0	1.8175700351582203e+18
14208.0	1.8172333332103165e+18
14209.0	1.8167411417022456e+18
14210.0	1.8164512498647032e+18
14211.0	1.81621511726039e+18
14212.0	1.8158828075876347e+18
14213.0	1.8155447919837181e+18
14214.0	1.8152083567935485e+18
14215.0	1.8148576139935736e+18
14216.0	1.8144826247610365e+18
14217.0	1.8141168931962877e+18
14218.0	1.8137660866428925e+18
14219.0	1.8134424004591613e+18
14220.0	1.8131025460723707e+18
14221.0	1.8127653374525435e+18
14222.0	1.81240635368407e+18
14223.0	1.8120938478370813e+18
14224.0	1.8117559815503875e+18
14225.0	1.8105177978437637e+18
14226.0	1.8110744339939325e+18
14227.0	1.810745246561075e+18
14228.0	1.8080839069859848e+18
14229.0	1.809665776995531e+18
14230.0	1.809737425774182e+18
14231.0	1.8093862853541885e+18
14232.0	1.809066404243046e+18
14233.0	1.8087265750220792e+18
14234.0	1.808344292733747e+18
14235.0	1.8079731018629115e+18
14236.0	1.8076397520027643e+18
14237.0	1.8073020182560765e+18
14238.0	1.8069665947320317e+18
14239.0	1.8066195127205885e+18
14240.0	1.80443543460905e+18
14241.0	1.8059450552156155e+18
14242.0	1.8056181125742587e+18
14243.0	1.8051096857542653e+18
14244.0	1.8049522752028664e+18
14245.0	1.8046030574518272e+18
14246.0	1.8042647935451133e+18
14247.0	1.8039410033426432e+18
14248.0	1.8035919835627517e+18
14249.0	1.8032735167709181e+18
14250.0	1.8029381049909243e+18
14251.0	1.8026058003513336e+18
14252.0	1.8022705060118523e+18
14253.0	1.8019343694561275e+18
14254.0	1.8015365799870456e+18
14255.0	1.8011398978142203e+18
14256.0	1.7998945183596547e+18
14257.0	1.800444873120153e+18
14258.0	1.800175363922329e+18
14259.0	1.7998195242041341e+18
14260.0	1.7994736199532541e+18
14261.0	1.799148376843878e+18
14262.0	1.798857473340211e+18
14263.0	1.7971356293398533e+18
14264.0	1.7978913842003963e+18
14265.0	1.7978497314062333e+18
14266.0	1.7975240520892416e+18
14267.0	1.7971918531461115e+18
14268.0	1.7968579076947963e+18
14269.0	1.7965131879153661e+18
14270.0	1.796189350736691e+18
14271.0	1.7958539356012541e+18
14272.0	1.7955185741529085e+18
14273.0	1.795172154841497e+18
14274.0	1.7927239395966984e+18
14275.0	1.7942975703154685e+18
14276.0	1.7941650756075517e+18
14277.0	1.7937653215264765e+18
14278.0	1.7934354814599165e+18
14279.0	1.7931010276589568e+18
14280.0	1.7927603729989627e+18
14281.0	1.7924352255197181e+18
14282.0	1.792102051820339e+18
14283.0	1.7917685023113208e+18
14284.0	1.7914349125369853e+18
14285.0	1.7911008496451581e+18
14286.0	1.7907653858557947e+18
14287.0	1.7904341499248637e+18
14288.0	1.790098447899033e+18
14289.0	1.7885731187851238e+18
14290.0	1.789431494842777e+18
14291.0	1.7891005860675581e+18
14292.0	1.7887663436595195e+18
14293.0	1.7884329971548155e+18
14294.0	1.78794321149952e+18
14295.0	1.787752181084979e+18
14296.0	1.786472346261914e+18
14297.0	1.7870966700900352e+18
14298.0	1.786388654797619e+18
14299.0	1.7864173488701437e+18
14300.0	1.7860968553906176e+18
14301.0	1.7857696023707643e+18
14302.0	1.7852693007564797e+18
14303.0	1.7848069961809915e+18
14304.0	1.78449384776663e+18
14305.0	1.7841787196407805e+18
14306.0	1.7838227238944763e+18
14307.0	1.7834959037267963e+18
14308.0	1.7831731788775421e+18
14309.0	1.7828274608537597e+18
14310.0	1.7823979892899837e+18
14311.0	1.7819483850670077e+18
14312.0	1.7817598829789181e+18
14313.0	1.7813744717398016e+18
14314.0	1.7811722861543421e+18
14315.0	1.7808550893977595e+18
14316.0	1.7804666867810304e+18
14317.0	1.780163940240588e+18
14318.0	1.7798664164474877e+18
14319.0	1.7795372558581755e+18
14320.0	1.779205912553062e+18
14321.0	1.7788722120491005e+18
14322.0	1.778497942559129e+18
14323.0	1.7781916795142136e+18
14324.0	1.7778829032423421e+18
14325.0	1.7775408980164605e+18
14326.0	1.7772212081655803e+18
14327.0	1.776882642268979e+18
14328.0	1.7765517284605947e+18
14329.0	1.7762286881996797e+18
14330.0	1.775827945940582e+18
14331.0	1.775486140363571e+18
14332.0	1.7751554413035515e+18
14333.0	1.7748245627273213e+18
14334.0	1.7744936405303293e+18
14335.0	1.7741477597675517e+18
14336.0	1.773736031787417e+18
14337.0	1.7734976476807163e+18
14338.0	1.7731670761275387e+18
14339.0	1.7728267385569277e+18
14340.0	1.7725084747694077e+18
14341.0	1.772172982458777e+18
14342.0	1.7718458267467776e+18
14343.0	1.7715149951467517e+18
14344.0	1.7711818499686397e+18
14345.0	1.7708568367071227e+18
14346.0	1.7705203260194813e+18
14347.0	1.7701565070573563e+18
14348.0	1.7698630131515387e+18
14349.0	1.7695363456565243e+18
14350.0	1.7691321238028285e+18
14351.0	1.7687923952451581e+18
14352.0	1.7685365527674877e+18
14353.0	1.7682159519137787e+18
14354.0	1.7678779245658107e+18
14355.0	1.7675304113799163e+18
14356.0	1.7672076831752187e+18
14357.0	1.7669000544649213e+18
14358.0	1.7665707009376256e+18
14359.0	1.766223865551257e+18
14360.0	1.7659049088647165e+18
14361.0	1.765579664077619e+18
14362.0	1.765188452954931e+18
14363.0	1.764842775196467e+18
14364.0	1.7642757640159227e+18
14365.0	1.7641346676293627e+18
14366.0	1.763812568570265e+18
14367.0	1.7635268592926715e+18
14368.0	1.7631972440408061e+18
14369.0	1.7628687813836797e+18
14370.0	1.762539916073369e+18
14371.0	1.7622112319569915e+18
14372.0	1.7618757648121853e+18
14373.0	1.7615511307157504e+18
14374.0	1.76122389111767e+18
14375.0	1.7608930846834688e+18
14376.0	1.7605667778985981e+18
14377.0	1.7602372767318013e+18
14378.0	1.7599061364310013e+18
14379.0	1.7595806232084475e+18
14380.0	1.7592509660135421e+18
14381.0	1.7589094691373053e+18
14382.0	1.758593059232153e+18
14383.0	1.7582620967698427e+18
14384.0	1.757916509608345e+18
14385.0	1.757609696270745e+18
14386.0	1.7572605120741376e+18
14387.0	1.7569527357243387e+18
14388.0	1.756622462805606e+18
14389.0	1.7562962449399805e+18
14390.0	1.7559659636326397e+18
14391.0	1.7556405024194557e+18
14392.0	1.7553110868164603e+18
14393.0	1.7549846642687997e+18
14394.0	1.754612027201945e+18
14395.0	1.7543142467174397e+18
14396.0	1.7540007443038205e+18
14397.0	1.7536732211707904e+18
14398.0	1.7533377842249725e+18
14399.0	1.7529383556218875e+18
14400.0	1.7525870658846715e+18
14401.0	1.7522739745128443e+18
14402.0	1.7519493169283072e+18
14403.0	1.7506855966212078e+18
14404.0	1.7466402441002982e+18
14405.0	1.749011876387221e+18
14406.0	1.750634738168627e+18
14407.0	1.7489761191067648e+18
14408.0	1.7499631059468285e+18
14409.0	1.7496365089161213e+18
14410.0	1.749315327570739e+18
14411.0	1.7490051084582907e+18
14412.0	1.7486751408848893e+18
14413.0	1.7483525049548797e+18
14414.0	1.7480222471356413e+18
14415.0	1.747696299383193e+18
14416.0	1.7473670129647613e+18
14417.0	1.7470279773061123e+18
14418.0	1.746683938681651e+18
14419.0	1.746386023979417e+18
14420.0	1.7460547410722813e+18
14421.0	1.745732519539507e+18
14422.0	1.7453980321841147e+18
14423.0	1.7450391037804541e+18
14424.0	1.7392050064326623e+18
14425.0	1.7443962730053624e+18
14426.0	1.7440969355952123e+18
14427.0	1.743772313242828e+18
14428.0	1.7434209748516861e+18
14429.0	1.7431163324858365e+18
14430.0	1.7427196771565565e+18
14431.0	1.7419568590880765e+18
14432.0	1.7420054811377661e+18
14433.0	1.7406667364761597e+18
14434.0	1.7413374677614587e+18
14435.0	1.7409751453270016e+18
14436.0	1.7407065706201088e+18
14437.0	1.7403817972727805e+18
14438.0	1.7399911632863232e+18
14439.0	1.7397047225221115e+18
14440.0	1.7393260943114237e+18
14441.0	1.7389899544002557e+18
14442.0	1.738655965328179e+18
14443.0	1.7382805449211904e+18
14444.0	1.7380141227311096e+18
14445.0	1.7376913173512195e+18
14446.0	1.7355120761110533e+18
14447.0	1.7370201246924795e+18
14448.0	1.7367150108868603e+18
14449.0	1.7363896201379835e+18
14450.0	1.73605663098798e+18
14451.0	1.7357322837819387e+18
14452.0	1.735408815702016e+18
14453.0	1.7350681409093627e+18
14454.0	1.7347564487573504e+18
14455.0	1.7344203239456763e+18
14456.0	1.734096773657395e+18
14457.0	1.7337715506806781e+18
14458.0	1.7334464837320704e+18
14459.0	1.7331146824089597e+18
14460.0	1.732778789122867e+18
14461.0	1.732386126770995e+18
14462.0	1.7319173612896253e+18
14463.0	1.731777649023385e+18
14464.0	1.7314831199633405e+18
14465.0	1.7311363349086205e+18
14466.0	1.7308401969135616e+18
14467.0	1.7304862614093821e+18
14468.0	1.7301893013307387e+18
14469.0	1.729817444404428e+18
14470.0	1.72950601901015e+18
14471.0	1.7292083056345085e+18
14472.0	1.7288890620575741e+18
14473.0	1.728568612198809e+18
14474.0	1.7282469812240381e+18
14475.0	1.7279191561011197e+18
14476.0	1.727532214779904e+18
14477.0	1.7272703073386493e+18
14478.0	1.7269439820988413e+18
14479.0	1.7266171166326781e+18
14480.0	1.7262747808956413e+18
14481.0	1.7259724101648381e+18
14482.0	1.7256426170744827e+18
14483.0	1.7253090222669821e+18
14484.0	1.7249834771677181e+18
14485.0	1.7246228962082813e+18
14486.0	1.7239749953585152e+18
14487.0	1.7240192519766013e+18
14488.0	1.7236742117523453e+18
14489.0	1.7232806081986552e+18
14490.0	1.7229612757024765e+18
14491.0	1.72264598315991e+18
14492.0	1.7223225335349243e+18
14493.0	1.721984353514291e+18
14494.0	1.7216452624908285e+18
14495.0	1.7213452942573565e+18
14496.0	1.720854500291379e+18
14497.0	1.720695088218112e+18
14498.0	1.7203718969622525e+18
14499.0	1.7200470648946685e+18
14500.0	1.7197214409424893e+18
14501.0	1.7193601922498557e+18
14502.0	1.7187801602719741e+18
14503.0	1.7187197539057661e+18
14504.0	1.7184141753712637e+18
14505.0	1.718067594998579e+18
14506.0	1.7177121931657213e+18
14507.0	1.7171407444115453e+18
14508.0	1.7171215999303677e+18
14509.0	1.7167978265051133e+18
14510.0	1.7164689796497403e+18
14511.0	1.7161478570246141e+18
14512.0	1.7158040516034557e+18
14513.0	1.715497869089177e+18
14514.0	1.71513243280343e+18
14515.0	1.7148437120155643e+18
14516.0	1.7114601267134484e+18
14517.0	1.7141858941534205e+18
14518.0	1.7138738933006333e+18
14519.0	1.7135381979856893e+18
14520.0	1.7129797314412544e+18
14521.0	1.7126558372200443e+18
14522.0	1.7123290422181885e+18
14523.0	1.7119108147445757e+18
14524.0	1.7116132204871677e+18
14525.0	1.7113509993119741e+18
14526.0	1.7110306333392893e+18
14527.0	1.7106828835946488e+18
14528.0	1.7102139838955515e+18
14529.0	1.7100460439633915e+18
14530.0	1.709712645449318e+18
14531.0	1.7094077765910525e+18
14532.0	1.7089978118963195e+18
14533.0	1.7087604511997947e+18
14534.0	1.7084381441032187e+18
14535.0	1.7081001519874048e+18
14536.0	1.707784141379993e+18
14537.0	1.7074466123153403e+18
14538.0	1.7071399835271165e+18
14539.0	1.706815710140825e+18
14540.0	1.706491114631987e+18
14541.0	1.706138489428377e+18
14542.0	1.7058388550615037e+18
14543.0	1.705462132742553e+18
14544.0	1.7051898351714304e+18
14545.0	1.7048182013820928e+18
14546.0	1.6975464526512087e+18
14547.0	1.697766618379054e+18
14548.0	1.703797348053811e+18
14549.0	1.7033450510876667e+18
14550.0	1.7031612315205624e+18
14551.0	1.7028489236447227e+18
14552.0	1.702523126887219e+18
14553.0	1.7021894565822461e+18
14554.0	1.7018753434779648e+18
14555.0	1.7015502228422646e+18
14556.0	1.701223855659417e+18
14557.0	1.700899855741747e+18
14558.0	1.7005696834863096e+18
14559.0	1.6979863982309332e+18
14560.0	1.699912914200166e+18
14561.0	1.69959077487575e+18
14562.0	1.699238869414707e+18
14563.0	1.6989456674324477e+18
14564.0	1.6985923174531075e+18
14565.0	1.6983011337699325e+18
14566.0	1.6979765533605888e+18
14567.0	1.6976487433371643e+18
14568.0	1.6973022804049915e+18
14569.0	1.6969976833376253e+18
14570.0	1.696036578708684e+18
14571.0	1.6963450748010493e+18
14572.0	1.69597097476096e+18
14573.0	1.6956354606399488e+18
14574.0	1.6953026979823608e+18
14575.0	1.695035643291238e+18
14576.0	1.6947079070875648e+18
14577.0	1.6943917270302715e+18
14578.0	1.6940706010497021e+18
14579.0	1.6937503407734784e+18
14580.0	1.6934252285263872e+18
14581.0	1.693092081670553e+18
14582.0	1.692767123773849e+18
14583.0	1.6924484053237757e+18
14584.0	1.6920960552665085e+18
14585.0	1.6917971322535933e+18
14586.0	1.6914681461473277e+18
14587.0	1.69114541794263e+18
14588.0	1.690821074092032e+18
14589.0	1.690500320565657e+18
14590.0	1.690179558650675e+18
14591.0	1.6898543591620605e+18
14592.0	1.6895256968560637e+18
14593.0	1.6890687442124797e+18
14594.0	1.6888937830154235e+18
14595.0	1.688562526951833e+18
14596.0	1.688029316828364e+18
14597.0	1.6876622850293752e+18
14598.0	1.687582413737164e+18
14599.0	1.6872866163195904e+18
14600.0	1.6869600243220477e+18
14601.0	1.686640329438003e+18
14602.0	1.6863084274515965e+18
14603.0	1.6859958008086523e+18
14604.0	1.6856102050201597e+18
14605.0	1.6853110404153341e+18
14606.0	1.6849373262512125e+18
14607.0	1.6847006735532032e+18
14608.0	1.6843835959148536e+18
14609.0	1.6840531132809213e+18
14610.0	1.6836451501080576e+18
14611.0	1.683335897363251e+18
14612.0	1.6830328706433024e+18
14613.0	1.682714445794508e+18
14614.0	1.6823869679599613e+18
14615.0	1.6820691806453757e+18
14616.0	1.681749970622873e+18
14617.0	1.6814247996555261e+18
14618.0	1.681091070630297e+18
14619.0	1.6806139467399163e+18
14620.0	1.6798812337078272e+18
14621.0	1.6801353531654141e+18
14622.0	1.679810440567193e+18
14623.0	1.6794914603925504e+18
14624.0	1.6790953671000061e+18
14625.0	1.678840772847206e+18
14626.0	1.6785163954421757e+18
14627.0	1.678190996304691e+18
14628.0	1.677875128303616e+18
14629.0	1.677551066310246e+18
14630.0	1.677220848756326e+18
14631.0	1.6769013317107707e+18
14632.0	1.6761311065014275e+18
14633.0	1.676192341662105e+18
14634.0	1.675922528796672e+18
14635.0	1.675496993167769e+18
14636.0	1.6749790285004795e+18
14637.0	1.674958726391398e+18
14638.0	1.6746207393087485e+18
14639.0	1.6742845020897275e+18
14640.0	1.673974838303129e+18
14641.0	1.6719347707805678e+18
14642.0	1.6733223421739005e+18
14643.0	1.6730059993776128e+18
14644.0	1.6726653229072381e+18
14645.0	1.6723260456566781e+18
14646.0	1.6720098773434365e+18
14647.0	1.6716591966191613e+18
14648.0	1.6713665013088253e+18
