# Flux units: erg / (cm m2 s)
# Wavelength units: Angstrom
wave	flux
14000.0	1.4387527251132413e+18
14001.0	1.4383883072045053e+18
14002.0	1.4384931429941245e+18
14003.0	1.4382669760561147e+18
14004.0	1.4380309927690237e+18
14005.0	1.4377947276247037e+18
14006.0	1.4375473408638973e+18
14007.0	1.4372984726749181e+18
14008.0	1.4369450455203837e+18
14009.0	1.436806896890675e+18
14010.0	1.4365225499230208e+18
14011.0	1.4358699564859387e+18
14012.0	1.436023454590566e+18
14013.0	1.4358783551602685e+18
14014.0	1.435650577609523e+18
14015.0	1.4354232228446203e+18
14016.0	1.435188516303667e+18
14017.0	1.4349522645811197e+18
14018.0	1.4346300329820157e+18
14019.0	1.4344801889550336e+18
14020.0	1.434243053073203e+18
14021.0	1.4340059037695997e+18
14022.0	1.4337688601624573e+18
14023.0	1.4335224464801787e+18
14024.0	1.4332878204698621e+18
14025.0	1.4330573753417725e+18
14026.0	1.4328198602948603e+18
14027.0	1.4325812647952381e+18
14028.0	1.4323331046047741e+18
14029.0	1.4320761430867963e+18
14030.0	1.4316952096866304e+18
14031.0	1.4315261372923901e+18
14032.0	1.4313814203826176e+18
14033.0	1.4311219221495808e+18
14034.0	1.430928158726553e+18
14035.0	1.430689712544153e+18
14036.0	1.4304206059995136e+18
14037.0	1.4302105518997501e+18
14038.0	1.4299881061482493e+18
14039.0	1.4297484301959165e+18
14040.0	1.429515424864665e+18
14041.0	1.4292785825841147e+18
14042.0	1.4290321219256315e+18
14043.0	1.4287789168263165e+18
14044.0	1.4285132982648832e+18
14045.0	1.4282804237959165e+18
14046.0	1.428098649371443e+18
14047.0	1.4278605337001981e+18
14048.0	1.4276277364064253e+18
14049.0	1.4273952511688701e+18
14050.0	1.4271603936329725e+18
14051.0	1.4269196338724864e+18
14052.0	1.4266856688844797e+18
14053.0	1.4264542255120381e+18
14054.0	1.4262203947417597e+18
14055.0	1.425985424798515e+18
14056.0	1.425750372646912e+18
14057.0	1.4255153506942976e+18
14058.0	1.4252801710358525e+18
14059.0	1.4249661082632187e+18
14060.0	1.4248093738336253e+18
14061.0	1.4245693321379835e+18
14062.0	1.424335427547955e+18
14063.0	1.4240820764868608e+18
14064.0	1.4237991589380093e+18
14065.0	1.4236220670345213e+18
14066.0	1.423398000603955e+18
14067.0	1.4231671477895163e+18
14068.0	1.4229331173703677e+18
14069.0	1.4226974729830397e+18
14070.0	1.422462263125606e+18
14071.0	1.422227450888192e+18
14072.0	1.421995760890675e+18
14073.0	1.4217593648840701e+18
14074.0	1.421526953466265e+18
14075.0	1.4212737315897341e+18
14076.0	1.4210512254402557e+18
14077.0	1.4207823638429693e+18
14078.0	1.4205725312024573e+18
14079.0	1.4203473809637373e+18
14080.0	1.420087352570675e+18
14081.0	1.4198811555528701e+18
14082.0	1.4196513513144317e+18
14083.0	1.4194111854673917e+18
14084.0	1.4191542759587837e+18
14085.0	1.4188300713590781e+18
14086.0	1.4186419400474621e+18
14087.0	1.4184202492706813e+18
14088.0	1.4182376359854075e+18
14089.0	1.4180195976085501e+18
14090.0	1.4177877935259645e+18
14091.0	1.4175546472660992e+18
14092.0	1.4173224891842557e+18
14093.0	1.4170895861940221e+18
14094.0	1.4168563275268093e+18
14095.0	1.4166227064717307e+18
14096.0	1.4163875301687293e+18
14097.0	1.4161398229630973e+18
14098.0	1.4159230747541501e+18
14099.0	1.4156890896334845e+18
14100.0	1.415450351527526e+18
14101.0	1.4152255468994557e+18
14102.0	1.4149890200305664e+18
14103.0	1.4147462453264381e+18
14104.0	1.4145250327003136e+18
14105.0	1.4142957904986107e+18
14106.0	1.4140633253937147e+18
14107.0	1.4137645449871357e+18
14108.0	1.413584226825011e+18
14109.0	1.4133645342146557e+18
14110.0	1.4131321496403965e+18
14111.0	1.4128953409142781e+18
14112.0	1.4126545996087293e+18
14113.0	1.4124291540910077e+18
14114.0	1.4121781551955965e+18
14115.0	1.4119376017948672e+18
14116.0	1.4116139911086075e+18
14117.0	1.4111577884065792e+18
14118.0	1.411193443346022e+18
14119.0	1.4110117746180093e+18
14120.0	1.4107937647624187e+18
14121.0	1.410558328412569e+18
14122.0	1.4103330976432128e+18
14123.0	1.4100906131849213e+18
14124.0	1.4098014779998208e+18
14125.0	1.4094174626250747e+18
14126.0	1.409352920675123e+18
14127.0	1.409169847694131e+18
14128.0	1.4089478331170813e+18
14129.0	1.408709388612403e+18
14130.0	1.4084512342343677e+18
14131.0	1.4082245790793725e+18
14132.0	1.4079450874380285e+18
14133.0	1.407531322703872e+18
14134.0	1.4074233361530877e+18
14135.0	1.4073134462271485e+18
14136.0	1.407101043317145e+18
14137.0	1.406876674896691e+18
14138.0	1.406647521614233e+18
14139.0	1.406418942112563e+18
14140.0	1.4061882604257277e+18
14141.0	1.4059548289531901e+18
14142.0	1.4057245197205501e+18
14143.0	1.4054978620489728e+18
14144.0	1.4052668959883261e+18
14145.0	1.4050371991240701e+18
14146.0	1.4048082882723837e+18
14147.0	1.4045808924033021e+18
14148.0	1.404350466569011e+18
14149.0	1.404121457570611e+18
14150.0	1.403891080390246e+18
14151.0	1.4036592519806973e+18
14152.0	1.4034296759123965e+18
14153.0	1.403201688646451e+18
14154.0	1.4029472839761917e+18
14155.0	1.4027316715847677e+18
14156.0	1.4025109631139837e+18
14157.0	1.402280212640563e+18
14158.0	1.4020470999351293e+18
14159.0	1.4018153646391293e+18
14160.0	1.4015689979330557e+18
14161.0	1.4013202698338301e+18
14162.0	1.4010777073614845e+18
14163.0	1.400827523838771e+18
14164.0	1.4006539954159613e+18
14165.0	1.4004370643353595e+18
14166.0	1.4002106935541757e+18
14167.0	1.3999703909728253e+18
14168.0	1.399755417793331e+18
14169.0	1.399528958931763e+18
14170.0	1.3992975767961597e+18
14171.0	1.3990663246839803e+18
14172.0	1.398839511823155e+18
14173.0	1.398607336125235e+18
14174.0	1.3983780846960637e+18
14175.0	1.398154862998323e+18
14176.0	1.3979265938751485e+18
14177.0	1.3976981922119675e+18
14178.0	1.397469622776627e+18
14179.0	1.3972395719131136e+18
14180.0	1.3970124109250557e+18
14181.0	1.396782654501683e+18
14182.0	1.3965533233807357e+18
14183.0	1.3963234721660928e+18
14184.0	1.396091487728435e+18
14185.0	1.3958561931460605e+18
14186.0	1.3955455730581501e+18
14187.0	1.3953687009361917e+18
14188.0	1.3951587844095997e+18
14189.0	1.3949448119910397e+18
14190.0	1.3947263382454272e+18
14191.0	1.3944976329146365e+18
14192.0	1.3942588805480445e+18
14193.0	1.3940368231890941e+18
14194.0	1.3938147423420413e+18
14195.0	1.3935874320367613e+18
14196.0	1.3933612617433085e+18
14197.0	1.3931329464827901e+18
14198.0	1.3929013454045181e+18
14199.0	1.3926676211695613e+18
14200.0	1.3924166558285821e+18
14201.0	1.3921982961680384e+18
14202.0	1.3919864620056573e+18
14203.0	1.3917602640297981e+18
14204.0	1.391531536049766e+18
14205.0	1.3912918357704701e+18
14206.0	1.3910207620972541e+18
14207.0	1.390826998674227e+18
14208.0	1.3906047995478013e+18
14209.0	1.390318359622451e+18
14210.0	1.3901015191388157e+18
14211.0	1.389925228347392e+18
14212.0	1.3897166909079547e+18
14213.0	1.3894925917618173e+18
14214.0	1.3892660557250557e+18
14215.0	1.3890329321144317e+18
14216.0	1.3888128578224123e+18
14217.0	1.3885891923673085e+18
14218.0	1.3883519424004093e+18
14219.0	1.388134383851929e+18
14220.0	1.387907033281331e+18
14221.0	1.387681195176755e+18
14222.0	1.3874470137626621e+18
14223.0	1.3872200843001853e+18
14224.0	1.3869799293583357e+18
14225.0	1.3866265357582333e+18
14226.0	1.386484860557721e+18
14227.0	1.386241886204723e+18
14228.0	1.3855675377516544e+18
14229.0	1.3855680335183867e+18
14230.0	1.3856133177409533e+18
14231.0	1.3854062818623485e+18
14232.0	1.385187038881382e+18
14233.0	1.3849620035665917e+18
14234.0	1.384736408731648e+18
14235.0	1.3845076329365501e+18
14236.0	1.3842781818585085e+18
14237.0	1.384041248142131e+18
14238.0	1.3837858838151165e+18
14239.0	1.3834102587260923e+18
14240.0	1.3819937281802237e+18
14241.0	1.3828389601279995e+18
14242.0	1.3828375273537533e+18
14243.0	1.3826127076261885e+18
14244.0	1.3824535505666045e+18
14245.0	1.3822416618782717e+18
14246.0	1.3820239372353533e+18
14247.0	1.3817973055684605e+18
14248.0	1.3815657632104445e+18
14249.0	1.3813522538430461e+18
14250.0	1.381130598298419e+18
14251.0	1.380904684696371e+18
14252.0	1.3806761932750845e+18
14253.0	1.3804375214391293e+18
14254.0	1.380206060450611e+18
14255.0	1.3799382893723645e+18
14256.0	1.3796514660876285e+18
14257.0	1.379454298567475e+18
14258.0	1.379295045038899e+18
14259.0	1.3790661350260733e+18
14260.0	1.3788465623728125e+18
14261.0	1.3786065491984384e+18
14262.0	1.3783765436334077e+18
14263.0	1.3780269240680445e+18
14264.0	1.377837891819929e+18
14265.0	1.3777106206982144e+18
14266.0	1.377523441493606e+18
14267.0	1.3773127850917885e+18
14268.0	1.3770909366091773e+18
14269.0	1.376862373884723e+18
14270.0	1.3766415219687421e+18
14271.0	1.3764064245186557e+18
14272.0	1.3761592776720381e+18
14273.0	1.3758639047180285e+18
14274.0	1.3754562812837885e+18
14275.0	1.3753569115111421e+18
14276.0	1.375235755684659e+18
14277.0	1.3750569575383037e+18
14278.0	1.3748495752101885e+18
14279.0	1.3746319956901885e+18
14280.0	1.3744115766263808e+18
14281.0	1.3741912372543485e+18
14282.0	1.3739691731845117e+18
14283.0	1.3737445732384765e+18
14284.0	1.373518078305894e+18
14285.0	1.3732946292768765e+18
14286.0	1.3730636439224317e+18
14287.0	1.3728176815472637e+18
14288.0	1.3724668993208317e+18
14289.0	1.3715186695274493e+18
14290.0	1.372029407408947e+18
14291.0	1.3719206591725565e+18
14292.0	1.371709365236531e+18
14293.0	1.3714797782630397e+18
14294.0	1.3712011816861693e+18
14295.0	1.3709396760592381e+18
14296.0	1.3701787512995837e+18
14297.0	1.370372485362483e+18
14298.0	1.3702355363037181e+18
14299.0	1.3701139425918973e+18
14300.0	1.3699323216789501e+18
14301.0	1.3697227717345277e+18
14302.0	1.369503038019993e+18
14303.0	1.3692485763071997e+18
14304.0	1.36905190539264e+18
14305.0	1.3688390931185661e+18
14306.0	1.368619460067328e+18
14307.0	1.368396886808985e+18
14308.0	1.3681750987243517e+18
14309.0	1.3679518988369917e+18
14310.0	1.367727154606899e+18
14311.0	1.3674900103364605e+18
14312.0	1.3672161029914621e+18
14313.0	1.3668581761875968e+18
14314.0	1.366833642025779e+18
14315.0	1.3666085647679485e+18
14316.0	1.3663766088515581e+18
14317.0	1.3661685755674621e+18
14318.0	1.3659570962431997e+18
14319.0	1.365736018673664e+18
14320.0	1.365512906866688e+18
14321.0	1.365285135187968e+18
14322.0	1.365054414074675e+18
14323.0	1.3648367540240381e+18
14324.0	1.3646235978170365e+18
14325.0	1.3643952322248701e+18
14326.0	1.3641841446486013e+18
14327.0	1.3639580347531261e+18
14328.0	1.3637421740589053e+18
14329.0	1.363526379634688e+18
14330.0	1.363305901011763e+18
14331.0	1.3630848435748861e+18
14332.0	1.3628629590212603e+18
14333.0	1.3626422983655424e+18
14334.0	1.3624202804330493e+18
14335.0	1.3621884495069181e+18
14336.0	1.3619654173917181e+18
14337.0	1.3617527074586621e+18
14338.0	1.3615361505099773e+18
14339.0	1.3613069250854912e+18
14340.0	1.3610967384457213e+18
14341.0	1.3608749570719741e+18
14342.0	1.3606351712288765e+18
14343.0	1.360431871636275e+18
14344.0	1.3601707200086013e+18
14345.0	1.3599700124958717e+18
14346.0	1.3597689568559104e+18
14347.0	1.359546823160627e+18
14348.0	1.3593285616467965e+18
14349.0	1.3591075000156157e+18
14350.0	1.3588768829210621e+18
14351.0	1.3586523433730045e+18
14352.0	1.3584293087412221e+18
14353.0	1.358221256163328e+18
14354.0	1.3580072812281853e+18
14355.0	1.3577866390274045e+18
14356.0	1.3575493773164541e+18
14357.0	1.3573277125443581e+18
14358.0	1.3571279747547133e+18
14359.0	1.356897419735859e+18
14360.0	1.3566867264241664e+18
14361.0	1.3564700218359805e+18
14362.0	1.3562474678714365e+18
14363.0	1.3560228754751485e+18
14364.0	1.355781260915507e+18
14365.0	1.3555653113020416e+18
14366.0	1.3553568736870397e+18
14367.0	1.3551503428026365e+18
14368.0	1.3549267419398141e+18
14369.0	1.3547118048313341e+18
14370.0	1.354493441815347e+18
14371.0	1.354277141558067e+18
14372.0	1.3540486081937403e+18
14373.0	1.3538331300200445e+18
14374.0	1.3536103160086523e+18
14375.0	1.3533799539277821e+18
14376.0	1.3531809534967803e+18
14377.0	1.3529609211478016e+18
14378.0	1.352741351849984e+18
14379.0	1.3525225014558717e+18
14380.0	1.3523031787831293e+18
14381.0	1.3520765378887677e+18
14382.0	1.351867035759411e+18
14383.0	1.3516491408277501e+18
14384.0	1.3514132707868667e+18
14385.0	1.351212236957286e+18
14386.0	1.3509759919456256e+18
14387.0	1.3507745219084285e+18
14388.0	1.3505537790443517e+18
14389.0	1.3503350821617664e+18
14390.0	1.3501162804215805e+18
14391.0	1.3498995624116221e+18
14392.0	1.349678200468275e+18
14393.0	1.3494602904371197e+18
14394.0	1.3492021159264253e+18
14395.0	1.3490122574004221e+18
14396.0	1.3487930152583165e+18
14397.0	1.3485797634211837e+18
14398.0	1.3483588880171005e+18
14399.0	1.3481245790961664e+18
14400.0	1.3478927968239616e+18
14401.0	1.3476578218475517e+18
14402.0	1.3473879494230016e+18
14403.0	1.3469539949871101e+18
14404.0	1.3447552770768893e+18
14405.0	1.3446408522694648e+18
14406.0	1.3463149004980221e+18
14407.0	1.346260299887411e+18
14408.0	1.3461233281794045e+18
14409.0	1.3459267839328253e+18
14410.0	1.3457316649107453e+18
14411.0	1.3455245610844157e+18
14412.0	1.3453108235468797e+18
14413.0	1.345096120480563e+18
14414.0	1.3448833694433277e+18
14415.0	1.3446675615973376e+18
14416.0	1.3444499862716413e+18
14417.0	1.3442335476023293e+18
14418.0	1.3440170233692157e+18
14419.0	1.3437987459170301e+18
14420.0	1.3435779384606717e+18
14421.0	1.343357737500672e+18
14422.0	1.3431341139886077e+18
14423.0	1.3428880559833083e+18
14424.0	1.3425549737197565e+18
14425.0	1.3424513576337403e+18
14426.0	1.3422727138377725e+18
14427.0	1.3420582439747581e+18
14428.0	1.341818263515955e+18
14429.0	1.3416181390114813e+18
14430.0	1.341395007910707e+18
14431.0	1.3411414219685885e+18
14432.0	1.3409591131897853e+18
14433.0	1.3407162160119805e+18
14434.0	1.3405271208493053e+18
14435.0	1.3403200824541181e+18
14436.0	1.3401126724435965e+18
14437.0	1.3398985792290813e+18
14438.0	1.3396779286396925e+18
14439.0	1.3394604766265341e+18
14440.0	1.339249218761523e+18
14441.0	1.3390145709408253e+18
14442.0	1.3387875701751805e+18
14443.0	1.3385479764312061e+18
14444.0	1.3383444679622653e+18
14445.0	1.3380828859990013e+18
14446.0	1.3373050330284035e+18
14447.0	1.3375365971968e+18
14448.0	1.3374872201723901e+18
14449.0	1.3372964951031805e+18
14450.0	1.337082517651456e+18
14451.0	1.3368732613083133e+18
14452.0	1.3366612971225083e+18
14453.0	1.3364473582583808e+18
14454.0	1.3362303609077757e+18
14455.0	1.3360108629131261e+18
14456.0	1.3357955105685501e+18
14457.0	1.335579701883699e+18
14458.0	1.3353669315526653e+18
14459.0	1.3351493570658301e+18
14460.0	1.3349347689234432e+18
14461.0	1.3347130169098237e+18
14462.0	1.3344978709250048e+18
14463.0	1.3342880298958845e+18
14464.0	1.3340648442691584e+18
14465.0	1.3338315444977664e+18
14466.0	1.333638200505139e+18
14467.0	1.3334153462284285e+18
14468.0	1.333206854087475e+18
14469.0	1.332944110302003e+18
14470.0	1.3327638399549437e+18
14471.0	1.3325598566907901e+18
14472.0	1.332351383843635e+18
14473.0	1.3321429705555965e+18
14474.0	1.331931532335513e+18
14475.0	1.3317178770063357e+18
14476.0	1.331502213444403e+18
14477.0	1.3312889297305597e+18
14478.0	1.3310716454895613e+18
14479.0	1.330856621978419e+18
14480.0	1.330624567915315e+18
14481.0	1.330426970898432e+18
14482.0	1.330207691846451e+18
14483.0	1.3299863089315837e+18
14484.0	1.3297542380912637e+18
14485.0	1.329491287946035e+18
14486.0	1.32919353933824e+18
14487.0	1.3290991591096317e+18
14488.0	1.3289135091482621e+18
14489.0	1.3287059691143165e+18
14490.0	1.328496726192947e+18
14491.0	1.328287497532211e+18
14492.0	1.328072786077286e+18
14493.0	1.3278528611024896e+18
14494.0	1.3276147697582077e+18
14495.0	1.3274046435164157e+18
14496.0	1.3271547485618176e+18
14497.0	1.3269818492846077e+18
14498.0	1.326782111494963e+18
14499.0	1.3265730027913216e+18
14500.0	1.3263540752220157e+18
14501.0	1.3260888953847805e+18
14502.0	1.325759070417715e+18
14503.0	1.3256860652011517e+18
14504.0	1.3254923143610365e+18
14505.0	1.325277505598259e+18
14506.0	1.3250271618531323e+18
14507.0	1.3247349035892736e+18
14508.0	1.3246123678367744e+18
14509.0	1.3244263621984253e+18
14510.0	1.3242132395458557e+18
14511.0	1.32400006823936e+18
14512.0	1.3237777063739392e+18
14513.0	1.3235443663372285e+18
14514.0	1.3232809732734973e+18
14515.0	1.3228521719595005e+18
14516.0	1.3206559177834499e+18
14517.0	1.322118162048614e+18
14518.0	1.3224058745257981e+18
14519.0	1.3222203688484864e+18
14520.0	1.3220783690088445e+18
14521.0	1.3218775004348416e+18
14522.0	1.3216701977985021e+18
14523.0	1.3214590347247613e+18
14524.0	1.321244579961241e+18
14525.0	1.3210336207306752e+18
14526.0	1.3208129030324221e+18
14527.0	1.3205476166598653e+18
14528.0	1.3203041331183613e+18
14529.0	1.3201727868108797e+18
14530.0	1.319965678790246e+18
14531.0	1.3197655307976701e+18
14532.0	1.3195559061946365e+18
14533.0	1.3193421233586173e+18
14534.0	1.319131956851507e+18
14535.0	1.3189120494927867e+18
14536.0	1.3187061913747456e+18
14537.0	1.318489783743283e+18
14538.0	1.3182862475919357e+18
14539.0	1.3180737859616763e+18
14540.0	1.3178619392163837e+18
14541.0	1.3176237539196928e+18
14542.0	1.3174335707545597e+18
14543.0	1.3172061262315517e+18
14544.0	1.3169938701221885e+18
14545.0	1.3167477198422016e+18
14546.0	1.3161044713144317e+18
14547.0	1.315840803943219e+18
14548.0	1.3160705687551997e+18
14549.0	1.315863990055731e+18
14550.0	1.3157023491293181e+18
14551.0	1.3155211795234816e+18
14552.0	1.3153066081583101e+18
14553.0	1.315094461100851e+18
14554.0	1.3148911623471101e+18
14555.0	1.3146725535449085e+18
14556.0	1.314443589006131e+18
14557.0	1.3141909140668413e+18
14558.0	1.3137427250020352e+18
14559.0	1.3121222950780925e+18
14560.0	1.3133055996723195e+18
14561.0	1.3133401305382912e+18
14562.0	1.3131506880872445e+18
14563.0	1.3129808607182845e+18
14564.0	1.312713723818803e+18
14565.0	1.3125722524614653e+18
14566.0	1.3123620658216957e+18
14567.0	1.3121465968754685e+18
14568.0	1.311919666574131e+18
14569.0	1.3116308962934781e+18
14570.0	1.3110650393853952e+18
14571.0	1.3112344322244608e+18
14572.0	1.3110574955102205e+18
14573.0	1.3108458853236736e+18
14574.0	1.310674461602611e+18
14575.0	1.3104716435161085e+18
14576.0	1.3102578313199616e+18
14577.0	1.3100452824481792e+18
14578.0	1.309843318321971e+18
14579.0	1.3096358143590397e+18
14580.0	1.3094265789874173e+18
14581.0	1.3092156281454592e+18
14582.0	1.3090045950951421e+18
14583.0	1.3087953555292157e+18
14584.0	1.308582225326899e+18
14585.0	1.308375349670707e+18
14586.0	1.3081663986728957e+18
14587.0	1.3079569359699965e+18
14588.0	1.3077464490180608e+18
14589.0	1.3075376389488637e+18
14590.0	1.3073245657890816e+18
14591.0	1.307107227022131e+18
14592.0	1.3068782129905664e+18
14593.0	1.3066388885209085e+18
14594.0	1.306464294744883e+18
14595.0	1.3062607057453053e+18
14596.0	1.3060113459838973e+18
14597.0	1.3058019797499901e+18
14598.0	1.3056331699191808e+18
14599.0	1.3054378378264573e+18
14600.0	1.3052316970123264e+18
14601.0	1.3050217385426941e+18
14602.0	1.304809037837107e+18
14603.0	1.3045987320791037e+18
14604.0	1.3043645397598205e+18
14605.0	1.3041057067433981e+18
14606.0	1.3038542112423933e+18
14607.0	1.3037635287121917e+18
14608.0	1.3035076375805952e+18
14609.0	1.303263852049203e+18
14610.0	1.3030536578596861e+18
14611.0	1.30281191243776e+18
14612.0	1.3027219790102528e+18
14613.0	1.3025148173025277e+18
14614.0	1.3022435934732285e+18
14615.0	1.3020518592544765e+18
14616.0	1.3018854183665664e+18
14617.0	1.3015372567412733e+18
14618.0	1.3013523860815867e+18
14619.0	1.3011877462278141e+18
14620.0	1.3009710466727936e+18
14621.0	1.3008190761336832e+18
14622.0	1.3006205832134653e+18
14623.0	1.3004169958916093e+18
14624.0	1.3001951214043133e+18
14625.0	1.2999983397601277e+18
14626.0	1.299745997009715e+18
14627.0	1.2995418132578301e+18
14628.0	1.2993874100223997e+18
14629.0	1.2991817356148736e+18
14630.0	1.2989251742334973e+18
14631.0	1.298713992704819e+18
14632.0	1.2984434441584637e+18
14633.0	1.298315911312179e+18
14634.0	1.298138328675123e+18
14635.0	1.2979256220975101e+18
14636.0	1.297696051901235e+18
14637.0	1.2975151817687037e+18
14638.0	1.2973019861352445e+18
14639.0	1.2970911594446845e+18
14640.0	1.2968754983993341e+18
14641.0	1.296633123831808e+18
14642.0	1.2964601012420605e+18
14643.0	1.2962635720949757e+18
14644.0	1.296044674724659e+18
14645.0	1.2957832588558333e+18
14646.0	1.295579639657267e+18
