# Flux units: erg / (cm m2 s)
# Wavelength units: Angstrom
wave	flux
14000.0	1.6807673307594744e+18
14001.0	1.6803370136240128e+18
14002.0	1.6801865068969981e+18
14003.0	1.6798797388578816e+18
14004.0	1.679568221188915e+18
14005.0	1.679256634733363e+18
14006.0	1.6789358946287613e+18
14007.0	1.6786242360311805e+18
14008.0	1.678212352022937e+18
14009.0	1.6779488541016061e+18
14010.0	1.6774628802297853e+18
14011.0	1.6764747877711875e+18
14012.0	1.6768541944446976e+18
14013.0	1.6765434468499453e+18
14014.0	1.6762262551265277e+18
14015.0	1.6759187723780093e+18
14016.0	1.6756104625127421e+18
14017.0	1.6752996796858368e+18
14018.0	1.67498874921943e+18
14019.0	1.6746781693968381e+18
14020.0	1.6743667389693947e+18
14021.0	1.6740553253191675e+18
14022.0	1.6737402072596477e+18
14023.0	1.6734134021914621e+18
14024.0	1.6731029465202688e+18
14025.0	1.6728139371642877e+18
14026.0	1.6725027919495168e+18
14027.0	1.6721947689746432e+18
14028.0	1.6718781124444157e+18
14029.0	1.6715708058566653e+18
14030.0	1.6697472348848136e+18
14031.0	1.6708973784727547e+18
14032.0	1.6706413581565947e+18
14033.0	1.670277658312704e+18
14034.0	1.6700230858702843e+18
14035.0	1.66971579605975e+18
14036.0	1.6694064074194944e+18
14037.0	1.6690969936134141e+18
14038.0	1.6687876032954365e+18
14039.0	1.6684738844557307e+18
14040.0	1.6681606253117437e+18
14041.0	1.6678557564534781e+18
14042.0	1.6675363618815997e+18
14043.0	1.667193933869875e+18
14044.0	1.666917569501593e+18
14045.0	1.6666187689623547e+18
14046.0	1.666310625191526e+18
14047.0	1.6659933864919037e+18
14048.0	1.6656929199751163e+18
14049.0	1.6653886097981437e+18
14050.0	1.6650800734404605e+18
14051.0	1.66476173583319e+18
14052.0	1.6644593617469437e+18
14053.0	1.6641543116947456e+18
14054.0	1.6638464447479805e+18
14055.0	1.6635381969584128e+18
14056.0	1.6632299860787197e+18
14057.0	1.6629219178053632e+18
14058.0	1.6626138713423872e+18
14059.0	1.6623059104432128e+18
14060.0	1.6619980032311293e+18
14061.0	1.6616819959791613e+18
14062.0	1.6613823632900088e+18
14063.0	1.6610572359434235e+18
14064.0	1.660462000452403e+18
14065.0	1.6604492480905213e+18
14066.0	1.6601519692447741e+18
14067.0	1.6598312677277693e+18
14068.0	1.6595372000411643e+18
14069.0	1.659226031338291e+18
14070.0	1.6589217547157504e+18
14071.0	1.658612022142566e+18
14072.0	1.658308374665625e+18
14073.0	1.6580013482573821e+18
14074.0	1.6576944627777533e+18
14075.0	1.6573680049979392e+18
14076.0	1.6570642300141565e+18
14077.0	1.6564276823064576e+18
14078.0	1.6564424479342592e+18
14079.0	1.656149616728473e+18
14080.0	1.6558541766655995e+18
14081.0	1.6555477190049792e+18
14082.0	1.65523747808215e+18
14083.0	1.65493326521303e+18
14084.0	1.6546283762221053e+18
14085.0	1.6539003037679616e+18
14086.0	1.653988964643635e+18
14087.0	1.6537101591904253e+18
14088.0	1.653388036643225e+18
14089.0	1.65308638733271e+18
14090.0	1.652785191007027e+18
14091.0	1.6524866119270397e+18
14092.0	1.6521809394401275e+18
14093.0	1.6518752652754944e+18
14094.0	1.6515696313761792e+18
14095.0	1.6512639521783805e+18
14096.0	1.650889222992691e+18
14097.0	1.6506306592505853e+18
14098.0	1.650317294410137e+18
14099.0	1.6500425171664893e+18
14100.0	1.64972285919232e+18
14101.0	1.649432398607155e+18
14102.0	1.649127093541273e+18
14103.0	1.648803486210457e+18
14104.0	1.6485144097456128e+18
14105.0	1.6482121564553208e+18
14106.0	1.64790759629783e+18
14107.0	1.6476017627496448e+18
14108.0	1.647286139695923e+18
14109.0	1.6469879263592448e+18
14110.0	1.6466832890265597e+18
14111.0	1.6463726739718141e+18
14112.0	1.6460719641853947e+18
14113.0	1.6457720664162304e+18
14114.0	1.6454573711425533e+18
14115.0	1.645165177470976e+18
14116.0	1.6448150923378688e+18
14117.0	1.6419174439976957e+18
14118.0	1.6442533760466941e+18
14119.0	1.6439066413236221e+18
14120.0	1.6436132497588224e+18
14121.0	1.6432453606440957e+18
14122.0	1.64258670224343e+18
14123.0	1.6423127319838715e+18
14124.0	1.6420005767806968e+18
14125.0	1.6412112104456184e+18
14126.0	1.6414276465983488e+18
14127.0	1.6411311663480832e+18
14128.0	1.6408264870723584e+18
14129.0	1.640511729722982e+18
14130.0	1.6401999536848893e+18
14131.0	1.639918864852582e+18
14132.0	1.6396099476520957e+18
14133.0	1.6386970892632054e+18
14134.0	1.6390095582003197e+18
14135.0	1.6386859642912765e+18
14136.0	1.638345376740147e+18
14137.0	1.6380967065223165e+18
14138.0	1.6377695189336056e+18
14139.0	1.637496239895347e+18
14140.0	1.6371866499284987e+18
14141.0	1.6368796772073467e+18
14142.0	1.6363919199174653e+18
14143.0	1.636281450338713e+18
14144.0	1.6359851328274432e+18
14145.0	1.6356813947535352e+18
14146.0	1.635375440409395e+18
14147.0	1.6350761701081085e+18
14148.0	1.6347701956313088e+18
14149.0	1.63446967542743e+18
14150.0	1.6341740038389752e+18
14151.0	1.633860248089395e+18
14152.0	1.6335707253506043e+18
14153.0	1.6332689971871741e+18
14154.0	1.6329405999611904e+18
14155.0	1.6324289871478781e+18
14156.0	1.6323229685645307e+18
14157.0	1.6320634585874432e+18
14158.0	1.6317575864516605e+18
14159.0	1.6314606431502333e+18
14160.0	1.631150449203609e+18
14161.0	1.6307937639137277e+18
14162.0	1.6304381221666813e+18
14163.0	1.6302546314330112e+18
14164.0	1.629868423276134e+18
14165.0	1.6295710538334205e+18
14166.0	1.6293524265762813e+18
14167.0	1.6290385198317568e+18
14168.0	1.6287462573735933e+18
14169.0	1.6284527534014461e+18
14170.0	1.628145490434457e+18
14171.0	1.627848392782643e+18
14172.0	1.6275515551776765e+18
14173.0	1.6271999449956344e+18
14174.0	1.6269443961192443e+18
14175.0	1.626650976033177e+18
14176.0	1.6263499374133243e+18
14177.0	1.6260504573968381e+18
14178.0	1.6257496872124413e+18
14179.0	1.625440635794227e+18
14180.0	1.6251512724389885e+18
14181.0	1.6248515206316032e+18
14182.0	1.6245508813094907e+18
14183.0	1.6242521914998781e+18
14184.0	1.6239467958370304e+18
14185.0	1.623652677818777e+18
14186.0	1.6228826002489341e+18
14187.0	1.6230261360427005e+18
14188.0	1.6227505232936957e+18
14189.0	1.6224509828792315e+18
14190.0	1.622152707466854e+18
14191.0	1.621851799709286e+18
14192.0	1.6215488853966843e+18
14193.0	1.6211820096258043e+18
14194.0	1.620955473589043e+18
14195.0	1.6206617666125824e+18
14196.0	1.6203626976378877e+18
14197.0	1.6200639658852347e+18
14198.0	1.6197596221538304e+18
14199.0	1.6194638465466365e+18
14200.0	1.6188765231906816e+18
14201.0	1.6188502349709307e+18
14202.0	1.6185687921393661e+18
14203.0	1.6182609235148797e+18
14204.0	1.6179716021026808e+18
14205.0	1.6176735364055035e+18
14206.0	1.6172357987074043e+18
14207.0	1.617080127953305e+18
14208.0	1.6167824883974141e+18
14209.0	1.6163356457041915e+18
14210.0	1.6160570466107392e+18
14211.0	1.6158608253255677e+18
14212.0	1.6155673951731707e+18
14213.0	1.6152675930341376e+18
14214.0	1.614971879502643e+18
14215.0	1.6146594088878075e+18
14216.0	1.6143780365205501e+18
14217.0	1.614080400320102e+18
14218.0	1.6137705184296957e+18
14219.0	1.6134855121174528e+18
14220.0	1.613185319069286e+18
14221.0	1.6128865990606843e+18
14222.0	1.6125638893109243e+18
14223.0	1.612295802821017e+18
14224.0	1.6119993561251837e+18
14225.0	1.610767291069236e+18
14226.0	1.6114002803294203e+18
14227.0	1.6111084222021632e+18
14228.0	1.6083493066899459e+18
14229.0	1.6099259170422766e+18
14230.0	1.610195993310003e+18
14231.0	1.609876779932057e+18
14232.0	1.609602658677555e+18
14233.0	1.609301188883251e+18
14234.0	1.6090097971625984e+18
14235.0	1.608710354055987e+18
14236.0	1.6084168366620667e+18
14237.0	1.608118999135027e+18
14238.0	1.6078237452992512e+18
14239.0	1.6075177993437181e+18
14240.0	1.6052727008198656e+18
14241.0	1.6069278654529533e+18
14242.0	1.6066361599983608e+18
14243.0	1.606166827447091e+18
14244.0	1.606047618616524e+18
14245.0	1.6057334350479357e+18
14246.0	1.6054331765686272e+18
14247.0	1.6051548090007547e+18
14248.0	1.6048222996791293e+18
14249.0	1.6045449739763712e+18
14250.0	1.604249144682086e+18
14251.0	1.6039564107841533e+18
14252.0	1.6036608113377275e+18
14253.0	1.60336441329582e+18
14254.0	1.6030671579381757e+18
14255.0	1.6027338751868925e+18
14256.0	1.6015640754126853e+18
14257.0	1.602129472625049e+18
14258.0	1.6018888823144443e+18
14259.0	1.601572990825267e+18
14260.0	1.601264863831654e+18
14261.0	1.6009832733605885e+18
14262.0	1.6007278201143293e+18
14263.0	1.5991048945795077e+18
14264.0	1.5998599934509053e+18
14265.0	1.599838528680755e+18
14266.0	1.599548672075366e+18
14267.0	1.5992560304521216e+18
14268.0	1.598961595344486e+18
14269.0	1.5986571593383933e+18
14270.0	1.598369024075366e+18
14271.0	1.5980555384389632e+18
14272.0	1.5977620160118784e+18
14273.0	1.5974649133268987e+18
14274.0	1.5951300717969416e+18
14275.0	1.5966932033339392e+18
14276.0	1.596567496687616e+18
14277.0	1.596273630327603e+18
14278.0	1.5959971350970363e+18
14279.0	1.5957018745503741e+18
14280.0	1.5954016479477757e+18
14281.0	1.5951158145187837e+18
14282.0	1.5948224212762621e+18
14283.0	1.5945286723567608e+18
14284.0	1.5942349855129597e+18
14285.0	1.5939410218450944e+18
14286.0	1.5936439560699901e+18
14287.0	1.5933542789808125e+18
14288.0	1.5930605350944765e+18
14289.0	1.5915114813194225e+18
14290.0	1.592472357778227e+18
14291.0	1.5921799493582843e+18
14292.0	1.5918879352029181e+18
14293.0	1.5915921293967352e+18
14294.0	1.5911433539682304e+18
14295.0	1.5909944142331904e+18
14296.0	1.589683573437236e+18
14297.0	1.5903985009426432e+18
14298.0	1.589720884287897e+18
14299.0	1.5897982893293565e+18
14300.0	1.5895140514136064e+18
14301.0	1.5892261594202112e+18
14302.0	1.5889351015661563e+18
14303.0	1.5886066288427005e+18
14304.0	1.5883314841780221e+18
14305.0	1.588057448487321e+18
14306.0	1.5877363090849787e+18
14307.0	1.5874563929800701e+18
14308.0	1.5871783827668992e+18
14309.0	1.5868784631873533e+18
14310.0	1.586467339186995e+18
14311.0	1.585925919971737e+18
14312.0	1.585922900072857e+18
14313.0	1.5855558800179197e+18
14314.0	1.5854151627964413e+18
14315.0	1.5851364462624768e+18
14316.0	1.584786060817203e+18
14317.0	1.5845186001174525e+18
14318.0	1.5842633515532288e+18
14319.0	1.5839726174994432e+18
14320.0	1.5836804322164733e+18
14321.0	1.583386715173683e+18
14322.0	1.5830541756530685e+18
14323.0	1.582779931924889e+18
14324.0	1.582495036342272e+18
14325.0	1.5821936722444288e+18
14326.0	1.581912439128064e+18
14327.0	1.5816140831850493e+18
14328.0	1.5813221545934848e+18
14329.0	1.5810388981448701e+18
14330.0	1.5807478201581563e+18
14331.0	1.580456430115225e+18
14332.0	1.5801657363267581e+18
14333.0	1.5798748697329664e+18
14334.0	1.5795840148832253e+18
14335.0	1.579275767093657e+18
14336.0	1.5789043195314176e+18
14337.0	1.578708708936908e+18
14338.0	1.5784174313013248e+18
14339.0	1.5781184395018237e+18
14340.0	1.5773985190969344e+18
14341.0	1.5770790859374587e+18
14342.0	1.576793109902131e+18
14343.0	1.5765003541938176e+18
14344.0	1.576209232586342e+18
14345.0	1.5759248721969147e+18
14346.0	1.575629685470003e+18
14347.0	1.5752936864874488e+18
14348.0	1.575053208584192e+18
14349.0	1.574764996145971e+18
14350.0	1.5744019220922365e+18
14351.0	1.5741009522589693e+18
14352.0	1.5738850949201915e+18
14353.0	1.5736033282883581e+18
14354.0	1.5733061450727421e+18
14355.0	1.5729965232291835e+18
14356.0	1.5726964593655805e+18
14357.0	1.572427627967283e+18
14358.0	1.5721378015608824e+18
14359.0	1.571833295090483e+18
14360.0	1.571552519992115e+18
14361.0	1.5712672184008701e+18
14362.0	1.570980769248051e+18
14363.0	1.5706911458459643e+18
14364.0	1.5701792914407421e+18
14365.0	1.570063805474406e+18
14366.0	1.5697799232356347e+18
14367.0	1.5695355916058621e+18
14368.0	1.569246063833907e+18
14369.0	1.5689577809313787e+18
14370.0	1.5686691222192123e+18
14371.0	1.5683806312792064e+18
14372.0	1.5680852918796285e+18
14373.0	1.5678005741355003e+18
14374.0	1.567513531069235e+18
14375.0	1.5672228020486141e+18
14376.0	1.5668374528851968e+18
14377.0	1.5663256840437757e+18
14378.0	1.566034689943142e+18
14379.0	1.565749361508352e+18
14380.0	1.565459226401177e+18
14381.0	1.5651601792368635e+18
14382.0	1.5648823116300285e+18
14383.0	1.5645897136275453e+18
14384.0	1.5642875190575101e+18
14385.0	1.5640193889468413e+18
14386.0	1.563712305496064e+18
14387.0	1.5634428868952064e+18
14388.0	1.5631527031341056e+18
14389.0	1.562866653279027e+18
14390.0	1.5625766943326205e+18
14391.0	1.5622910353866744e+18
14392.0	1.5619920687529981e+18
14393.0	1.5616952529584125e+18
14394.0	1.5613657366921216e+18
14395.0	1.5611039399804925e+18
14396.0	1.5608317816602621e+18
14397.0	1.5605444701585403e+18
14398.0	1.5602560580714493e+18
14399.0	1.5599690150051835e+18
14400.0	1.559657530890649e+18
14401.0	1.5593862735069181e+18
14402.0	1.5591049179168765e+18
14403.0	1.5572125033168873e+18
14404.0	1.5525866121461737e+18
14405.0	1.5560816753377244e+18
14406.0	1.5579559604781053e+18
14407.0	1.5554436378132488e+18
14408.0	1.5573531634958333e+18
14409.0	1.557071534437171e+18
14410.0	1.5567910059638781e+18
14411.0	1.556520780378931e+18
14412.0	1.5562309506170877e+18
14413.0	1.5559489189052413e+18
14414.0	1.5556591226978301e+18
14415.0	1.5553737086992381e+18
14416.0	1.5550827716411392e+18
14417.0	1.5547841606844416e+18
14418.0	1.5544766796136448e+18
14419.0	1.5542261068595197e+18
14420.0	1.5539350892707837e+18
14421.0	1.5536542135091197e+18
14422.0	1.5533630264705021e+18
14423.0	1.553065470800691e+18
14424.0	1.543755916115964e+18
14425.0	1.5524991424528381e+18
14426.0	1.552222905591398e+18
14427.0	1.5519358927241216e+18
14428.0	1.5516278798155776e+18
14429.0	1.551358582010675e+18
14430.0	1.5510790148718592e+18
14431.0	1.5503780241997821e+18
14432.0	1.550500420701388e+18
14433.0	1.5485208652414966e+18
14434.0	1.549894476313395e+18
14435.0	1.549567617558118e+18
14436.0	1.5493431467966464e+18
14437.0	1.54905784352768e+18
14438.0	1.5486942057594877e+18
14439.0	1.5484711543504896e+18
14440.0	1.5481998768340987e+18
14441.0	1.547901784293376e+18
14442.0	1.5476095134466043e+18
14443.0	1.5472739959701504e+18
14444.0	1.547051874018918e+18
14445.0	1.5467725065289725e+18
14446.0	1.5439319393107978e+18
14447.0	1.5461848241405947e+18
14448.0	1.545917193990963e+18
14449.0	1.5456320618495997e+18
14450.0	1.5453409519861757e+18
14451.0	1.545059611495628e+18
14452.0	1.5447745951170557e+18
14453.0	1.544464248497766e+18
14454.0	1.544204528805478e+18
14455.0	1.5439100551102464e+18
14456.0	1.5436258943696893e+18
14457.0	1.5433415490797565e+18
14458.0	1.543061934964736e+18
14459.0	1.5427744926007293e+18
14460.0	1.5424863053283325e+18
14461.0	1.5421466405240832e+18
14462.0	1.5415813540413437e+18
14463.0	1.5416172237291512e+18
14464.0	1.5413515531583485e+18
14465.0	1.5410390573776893e+18
14466.0	1.5407841493909501e+18
14467.0	1.5404640652754941e+18
14468.0	1.5402128851861501e+18
14469.0	1.5398782535467005e+18
14470.0	1.5396135409549312e+18
14471.0	1.5393517895417853e+18
14472.0	1.5390743883415555e+18
14473.0	1.538794925221478e+18
14474.0	1.5385130176610301e+18
14475.0	1.5382247381139453e+18
14476.0	1.5378370619506688e+18
14477.0	1.5376598123413501e+18
14478.0	1.537374426864025e+18
14479.0	1.537090021176115e+18
14480.0	1.536788076586598e+18
14481.0	1.5365261792116733e+18
14482.0	1.536205249524531e+18
14483.0	1.5356528898867195e+18
14484.0	1.5353676772147195e+18
14485.0	1.5350540573605885e+18
14486.0	1.5344458665033725e+18
14487.0	1.534527083328307e+18
14488.0	1.5342190905524221e+18
14489.0	1.533923444129792e+18
14490.0	1.5336676385619965e+18
14491.0	1.5333938931171325e+18
14492.0	1.533111727187558e+18
14493.0	1.5328170169335805e+18
14494.0	1.5325190233784315e+18
14495.0	1.5322617196052477e+18
14496.0	1.5318135280238587e+18
14497.0	1.531693577640345e+18
14498.0	1.5314117841649656e+18
14499.0	1.5311288750047224e+18
14500.0	1.5308452326801405e+18
14501.0	1.5305110942908413e+18
14502.0	1.5299566794440704e+18
14503.0	1.5299673195544576e+18
14504.0	1.5297050866352125e+18
14505.0	1.5293846535536637e+18
14506.0	1.5290551087661053e+18
14507.0	1.528560187604992e+18
14508.0	1.5285806524530685e+18
14509.0	1.528297852344729e+18
14510.0	1.5280107572690944e+18
14511.0	1.527731529030041e+18
14512.0	1.5274299971600381e+18
14513.0	1.5271660093439995e+18
14514.0	1.526840390424985e+18
14515.0	1.5265990669500416e+18
14516.0	1.523092538209077e+18
14517.0	1.526032233607987e+18
14518.0	1.5257517873430525e+18
14519.0	1.5254691516514301e+18
14520.0	1.525185247602278e+18
14521.0	1.5249024038731773e+18
14522.0	1.524618441103769e+18
14523.0	1.5242040405131264e+18
14524.0	1.5239497365061624e+18
14525.0	1.5237664554876925e+18
14526.0	1.5234878110957563e+18
14527.0	1.5231715991617536e+18
14528.0	1.522756812695142e+18
14529.0	1.5226287438168064e+18
14530.0	1.522339127125606e+18
14531.0	1.5220748993953792e+18
14532.0	1.5216469981790205e+18
14533.0	1.521511241980313e+18
14534.0	1.5212312973541373e+18
14535.0	1.5209361408262144e+18
14536.0	1.5206621319790587e+18
14537.0	1.5203692487639035e+18
14538.0	1.520101974291251e+18
14539.0	1.5198023348912123e+18
14540.0	1.5195182798471165e+18
14541.0	1.5192102015074304e+18
14542.0	1.518951434761011e+18
14543.0	1.5185944994906107e+18
14544.0	1.5183883125391357e+18
14545.0	1.5180965248761853e+18
14546.0	1.5055065614122957e+18
14547.0	1.506259051426604e+18
14548.0	1.517242193805312e+18
14549.0	1.516828608587366e+18
14550.0	1.5166860257394685e+18
14551.0	1.5164141207552e+18
14552.0	1.516129716745011e+18
14553.0	1.5158387897532413e+18
14554.0	1.515568265533849e+18
14555.0	1.5152858160693248e+18
14556.0	1.5150015596986363e+18
14557.0	1.514721965716275e+18
14558.0	1.514438861940326e+18
14559.0	1.5117761449557985e+18
14560.0	1.5138618767048704e+18
14561.0	1.513584551002112e+18
14562.0	1.5132763418001403e+18
14563.0	1.5130268897640448e+18
14564.0	1.5127114109943803e+18
14565.0	1.5124659318030336e+18
14566.0	1.5121839890104315e+18
14567.0	1.511900180591411e+18
14568.0	1.511582163428966e+18
14569.0	1.511337093601689e+18
14570.0	1.5103767523360763e+18
14571.0	1.5107697552654336e+18
14572.0	1.510430561900953e+18
14573.0	1.5101471745900541e+18
14574.0	1.5098420322631677e+18
14575.0	1.509636903954022e+18
14576.0	1.509350224953344e+18
14577.0	1.5086939170406397e+18
14578.0	1.5083575808360448e+18
14579.0	1.508080661141913e+18
14580.0	1.5077986831171584e+18
14581.0	1.507508591630745e+18
14582.0	1.5072278702194685e+18
14583.0	1.5069511518519293e+18
14584.0	1.5066428117876736e+18
14585.0	1.5063867746942976e+18
14586.0	1.506100679540736e+18
14587.0	1.5058203339390976e+18
14588.0	1.505540038669107e+18
14589.0	1.5052642933800952e+18
14590.0	1.5049885363470336e+18
14591.0	1.5047079709638653e+18
14592.0	1.5044289406959616e+18
14593.0	1.504015112208384e+18
14594.0	1.503883498304307e+18
14595.0	1.5035979400216573e+18
14596.0	1.503100785813094e+18
14597.0	1.5027853523419128e+18
14598.0	1.502753270949478e+18
14599.0	1.502502907910553e+18
14600.0	1.5022203460386813e+18
14601.0	1.5019484058222587e+18
14602.0	1.5016531620528123e+18
14603.0	1.5013952542998525e+18
14604.0	1.501031958786867e+18
14605.0	1.500771331447193e+18
14606.0	1.5004555926306813e+18
14607.0	1.5002544287776765e+18
14608.0	1.499990444317081e+18
14609.0	1.4997080200183803e+18
14610.0	1.499347046472089e+18
14611.0	1.4991517798105085e+18
14612.0	1.498888959688704e+18
14613.0	1.4986141958668288e+18
14614.0	1.4983317480800253e+18
14615.0	1.4980574842191872e+18
14616.0	1.4977846782984192e+18
14617.0	1.497506825791078e+18
14618.0	1.4972178583781376e+18
14619.0	1.4967885193543675e+18
14620.0	1.4961389240057853e+18
14621.0	1.4964000395624443e+18
14622.0	1.4961196285296635e+18
14623.0	1.4958460944777213e+18
14624.0	1.495496915314278e+18
14625.0	1.4952881715150848e+18
14626.0	1.4950081799127035e+18
14627.0	1.4947278376665088e+18
14628.0	1.4944597796978685e+18
14629.0	1.4941822845452285e+18
14630.0	1.4938980902502397e+18
14631.0	1.4936254269358077e+18
14632.0	1.4926118666633216e+18
14633.0	1.49295871379374e+18
14634.0	1.4927846837321725e+18
14635.0	1.492132081906482e+18
14636.0	1.4914120658714621e+18
14637.0	1.4919604191100925e+18
14638.0	1.4916697806864381e+18
14639.0	1.491380172383846e+18
14640.0	1.4911206523404285e+18
14641.0	1.4879466480205806e+18
14642.0	1.490561768043315e+18
14643.0	1.4902877524852739e+18
14644.0	1.489994822293913e+18
14645.0	1.4897004626837504e+18
14646.0	1.4894289284759547e+18
14647.0	1.4891248246587392e+18
14648.0	1.4888852426588157e+18
