# Flux units: erg / (cm m2 s)
# Wavelength units: Angstrom
wave	flux
14000.0	2.104087115569561e+18
14001.0	2.1036102617923584e+18
14002.0	2.103233499208089e+18
14003.0	2.1027992092278776e+18
14004.0	2.1023642867466235e+18
14005.0	2.1019293172891645e+18
14006.0	2.101488871748403e+18
14007.0	2.1010523050999803e+18
14008.0	2.1005467891269627e+18
14009.0	2.100188817024614e+18
14010.0	2.09974457312215e+18
14011.0	2.0988596336984061e+18
14012.0	2.0988864420118525e+18
14013.0	2.0984532073185272e+18
14014.0	2.098014578750259e+18
14015.0	2.097583456308428e+18
14016.0	2.097151531915673e+18
14017.0	2.0967178777919483e+18
14018.0	2.0962841313935355e+18
14019.0	2.0958507691933693e+18
14020.0	2.095416769458995e+18
14021.0	2.0949828871651325e+18
14022.0	2.0945491474776056e+18
14023.0	2.0941061752881144e+18
14024.0	2.0936721017339901e+18
14025.0	2.093251488540262e+18
14026.0	2.0928175307489277e+18
14027.0	2.0923864351506427e+18
14028.0	2.091953846380134e+18
14029.0	2.0915208381792253e+18
14030.0	2.0906558804197379e+18
14031.0	2.0906326909517821e+18
14032.0	2.0902226574704637e+18
14033.0	2.0897569219543037e+18
14034.0	2.0893595485601787e+18
14035.0	2.0889288388378621e+18
14036.0	2.0884972952879101e+18
14037.0	2.0880657618042875e+18
14038.0	2.087634295429529e+18
14039.0	2.087199421602201e+18
14040.0	2.086765656748851e+18
14041.0	2.0863378478071803e+18
14042.0	2.0859003399569405e+18
14043.0	2.0854483852460027e+18
14044.0	2.0850390329196536e+18
14045.0	2.0846146213642237e+18
14046.0	2.084182074536755e+18
14047.0	2.083749237463449e+18
14048.0	2.08332383101911e+18
14049.0	2.0828947453313024e+18
14050.0	2.082464557380403e+18
14051.0	2.0820275092258808e+18
14052.0	2.0816008981774333e+18
14053.0	2.0811742216978427e+18
14054.0	2.0807446847029243e+18
14055.0	2.0803149715472381e+18
14056.0	2.0798853456330747e+18
14057.0	2.0794558656806904e+18
14058.0	2.0790264545148925e+18
14059.0	2.0785971557564416e+18
14060.0	2.0781679593390075e+18
14061.0	2.0777338555858944e+18
14062.0	2.0773098148069373e+18
14063.0	2.07686837773271e+18
14064.0	2.0763830699163645e+18
14065.0	2.076017063205273e+18
14066.0	2.0755949316734973e+18
14067.0	2.0751614671323133e+18
14068.0	2.0747381309964283e+18
14069.0	2.0743084866273277e+18
14070.0	2.0738814192386045e+18
14071.0	2.0734515165003779e+18
14072.0	2.0730256637820925e+18
14073.0	2.072597812897382e+18
14074.0	2.0721701247516667e+18
14075.0	2.071728120607539e+18
14076.0	2.0713090089746427e+18
14077.0	2.070789895068057e+18
14078.0	2.0704525723631616e+18
14079.0	2.0700246812131325e+18
14080.0	2.0696058497597437e+18
14081.0	2.0691788578684925e+18
14082.0	2.0687484954345464e+18
14083.0	2.068323894296576e+18
14084.0	2.0678978452848635e+18
14085.0	2.067244517005721e+18
14086.0	2.0670360852627456e+18
14087.0	2.066618768791961e+18
14088.0	2.0661828564549624e+18
14089.0	2.0657617734991867e+18
14090.0	2.06533886518231e+18
14091.0	2.0649143999397883e+18
14092.0	2.0644885925199867e+18
14093.0	2.0640628203323387e+18
14094.0	2.0636370699550717e+18
14095.0	2.063211223947673e+18
14096.0	2.0627646446567424e+18
14097.0	2.0623474489819133e+18
14098.0	2.0619260086714363e+18
14099.0	2.0615100293447677e+18
14100.0	2.0610761772498936e+18
14101.0	2.06066037072855e+18
14102.0	2.060235346804736e+18
14103.0	2.0598000820682747e+18
14104.0	2.059386171372339e+18
14105.0	2.0589612514672637e+18
14106.0	2.0585370831814648e+18
14107.0	2.0581117052583936e+18
14108.0	2.0576789319385083e+18
14109.0	2.0572604242853883e+18
14110.0	2.056835745972224e+18
14111.0	2.056406289507942e+18
14112.0	2.0559858826739707e+18
14113.0	2.0555686668664824e+18
14114.0	2.0551341537492987e+18
14115.0	2.0547199007981565e+18
14116.0	2.0542749690298363e+18
14117.0	2.0531312880254973e+18
14118.0	2.053449509869977e+18
14119.0	2.052985386644275e+18
14120.0	2.0522227497697275e+18
14121.0	2.051798541218611e+18
14122.0	2.0513766160465912e+18
14123.0	2.0509527698833405e+18
14124.0	2.050528766014259e+18
14125.0	2.0497544438087672e+18
14126.0	2.0496966899204093e+18
14127.0	2.049275405638041e+18
14128.0	2.048852378202931e+18
14129.0	2.048421604727193e+18
14130.0	2.047992025789235e+18
14131.0	2.0475874633580544e+18
14132.0	2.047160186254131e+18
14133.0	2.046316741918719e+18
14134.0	2.0463210083647488e+18
14135.0	2.0458879246663677e+18
14136.0	2.0454611810779133e+18
14137.0	2.0450559509135352e+18
14138.0	2.0446284489949176e+18
14139.0	2.0442154040033275e+18
14140.0	2.0437878752411645e+18
14141.0	2.043366211793715e+18
14142.0	2.0428943492382717e+18
14143.0	2.0425266312511483e+18
14144.0	2.0421122105278461e+18
14145.0	2.0416918976462843e+18
14146.0	2.0412702358765563e+18
14147.0	2.0408501461319677e+18
14148.0	2.040428915536691e+18
14149.0	2.0400088878678016e+18
14150.0	2.0395912845066235e+18
14151.0	2.039166050867609e+18
14152.0	2.0387517509402621e+18
14153.0	2.0383319581523963e+18
14154.0	2.0378916770283515e+18
14155.0	2.037466138044006e+18
14156.0	2.0370693468192768e+18
14157.0	2.036654347282022e+18
14158.0	2.0362319137603576e+18
14159.0	2.035816149182054e+18
14160.0	2.035391605086617e+18
14161.0	2.034931192981094e+18
14162.0	2.0344751312076797e+18
14163.0	2.0341387530600443e+18
14164.0	2.0336905279242235e+18
14165.0	2.0332302601027581e+18
14166.0	2.0328827100069883e+18
14167.0	2.032455370827366e+18
14168.0	2.0320467533430781e+18
14169.0	2.0316311330488315e+18
14170.0	2.0312102228983805e+18
14171.0	2.030793218483814e+18
14172.0	2.0303775327584248e+18
14173.0	2.0299173018468347e+18
14174.0	2.0295379874480128e+18
14175.0	2.0291249961435133e+18
14176.0	2.0287077031608315e+18
14177.0	2.0282904638652416e+18
14178.0	2.0278721743159296e+18
14179.0	2.0273889586184192e+18
14180.0	2.026908155484569e+18
14181.0	2.026490974909235e+18
14182.0	2.0260732541075453e+18
14183.0	2.025656845284147e+18
14184.0	2.025235802593689e+18
14185.0	2.0248224824557565e+18
14186.0	2.0242532348723192e+18
14187.0	2.0239690204446712e+18
14188.0	2.0235723298832376e+18
14189.0	2.02315499831296e+18
14190.0	2.022739282388582e+18
14191.0	2.0223226504282107e+18
14192.0	2.0219013376245755e+18
14193.0	2.021468748854067e+18
14194.0	2.0210743752261624e+18
14195.0	2.0206604796297219e+18
14196.0	2.0202445338574843e+18
14197.0	2.019768822608691e+18
14198.0	2.0192758257942525e+18
14199.0	2.018861720482611e+18
14200.0	2.0183650310029307e+18
14201.0	2.018027946534502e+18
14202.0	2.017616874543513e+18
14203.0	2.01719223985111e+18
14204.0	2.0167836542435328e+18
14205.0	2.016368448346521e+18
14206.0	2.0158558775541755e+18
14207.0	2.015540024652595e+18
14208.0	2.015125493199667e+18
14209.0	2.014604778746675e+18
14210.0	2.0142215787446264e+18
14211.0	2.0138771240452093e+18
14212.0	2.0134659883007997e+18
14213.0	2.013051430004326e+18
14214.0	2.0126372642947072e+18
14215.0	2.0122146311241725e+18
14216.0	2.011809622419046e+18
14217.0	2.011158654694195e+18
14218.0	2.0105955274391552e+18
14219.0	2.01019106567127e+18
14220.0	2.0097771113545725e+18
14221.0	2.0093614155628536e+18
14222.0	2.0089344622591997e+18
14223.0	2.0085350386892792e+18
14224.0	2.0081213511303165e+18
14225.0	2.0074638302248955e+18
14226.0	2.0072925314940925e+18
14227.0	2.006880773314969e+18
14228.0	2.00589921222656e+18
14229.0	2.0059439436398584e+18
14230.0	2.00564129440727e+18
14231.0	2.0052204782092288e+18
14232.0	2.0048154057506816e+18
14233.0	2.0043988358660093e+18
14234.0	2.0039898861928443e+18
14235.0	2.00357526414295e+18
14236.0	2.0031644807200763e+18
14237.0	2.0027510297198587e+18
14238.0	2.0023392044318715e+18
14239.0	2.0019221345861627e+18
14240.0	2.0002383765438461e+18
14241.0	2.000967230816256e+18
14242.0	2.0005560799723515e+18
14243.0	2.0000217273204733e+18
14244.0	1.9997322985340925e+18
14245.0	1.999307754438656e+18
14246.0	1.9988922935279616e+18
14247.0	1.9984923699970045e+18
14248.0	1.9980728355782653e+18
14249.0	1.9976710195773435e+18
14250.0	1.9972591221473275e+18
14251.0	1.9968495164850173e+18
14252.0	1.996437884135014e+18
14253.0	1.9960257417576443e+18
14254.0	1.995612985334169e+18
14255.0	1.9951781702270968e+18
14256.0	1.9945282712109053e+18
14257.0	1.9943656714665981e+18
14258.0	1.993969959016857e+18
14259.0	1.9935431667744763e+18
14260.0	1.9931382906093563e+18
14261.0	1.992720678859571e+18
14262.0	1.992347577063833e+18
14263.0	1.9915506274271227e+18
14264.0	1.9914421543370747e+18
14265.0	1.9910236349399037e+18
14266.0	1.9905736884617208e+18
14267.0	1.9901632607158264e+18
14268.0	1.9897527809605627e+18
14269.0	1.989337648883302e+18
14270.0	1.9889318734594045e+18
14271.0	1.9885204239810555e+18
14272.0	1.988110804896972e+18
14273.0	1.9876977615831037e+18
14274.0	1.9866969889046528e+18
14275.0	1.9868225160347645e+18
14276.0	1.9864557191167997e+18
14277.0	1.9860486736576507e+18
14278.0	1.985651602253414e+18
14279.0	1.9852412718153725e+18
14280.0	1.9848270255751163e+18
14281.0	1.984423313748787e+18
14282.0	1.9840142164361208e+18
14283.0	1.9836049446404093e+18
14284.0	1.983195714787737e+18
14285.0	1.98278640608215e+18
14286.0	1.9823767853203456e+18
14287.0	1.981968419494297e+18
14288.0	1.981558652770713e+18
14289.0	1.9804012178046958e+18
14290.0	1.9807398742982648e+18
14291.0	1.980332676166451e+18
14292.0	1.9799250535710717e+18
14293.0	1.9789173250588675e+18
14294.0	1.9783825244553216e+18
14295.0	1.9780713440083968e+18
14296.0	1.9770691385556992e+18
14297.0	1.977263245911654e+18
14298.0	1.9766942415978496e+18
14299.0	1.9764374411411453e+18
14300.0	1.976034403758899e+18
14301.0	1.975628579681075e+18
14302.0	1.975222547565772e+18
14303.0	1.974787306317414e+18
14304.0	1.9743943235207163e+18
14305.0	1.973998079233228e+18
14306.0	1.9735724832063483e+18
14307.0	1.9731742122311675e+18
14308.0	1.9727732569014272e+18
14309.0	1.9723607907237883e+18
14310.0	1.971870104131993e+18
14311.0	1.9714903031939064e+18
14312.0	1.9711069370974205e+18
14313.0	1.9706743365828605e+18
14314.0	1.970326940837478e+18
14315.0	1.96992402760663e+18
14316.0	1.9694769315774461e+18
14317.0	1.9690999039131643e+18
14318.0	1.968705486664499e+18
14319.0	1.9682996239990784e+18
14320.0	1.9678927748333565e+18
14321.0	1.9674867141967872e+18
14322.0	1.9670481443487736e+18
14323.0	1.9666584331091963e+18
14324.0	1.966266406613811e+18
14325.0	1.96571667932119e+18
14326.0	1.9653184804880384e+18
14327.0	1.964906463939788e+18
14328.0	1.9645004402130944e+18
14329.0	1.964099209737011e+18
14330.0	1.9636929209303037e+18
14331.0	1.9632864609959933e+18
14332.0	1.9628804976672763e+18
14333.0	1.9624744605188096e+18
14334.0	1.962068430081228e+18
14335.0	1.9616526822801405e+18
14336.0	1.9612276466122747e+18
14337.0	1.9608503404462077e+18
14338.0	1.9604434224939003e+18
14339.0	1.9600297835888637e+18
14340.0	1.9596334906474493e+18
14341.0	1.959226477065011e+18
14342.0	1.9588227803381755e+18
14343.0	1.9584139514609661e+18
14344.0	1.9580071257833464e+18
14345.0	1.957606767722496e+18
14346.0	1.957198868303052e+18
14347.0	1.9567822883520512e+18
14348.0	1.9563905974009853e+18
14349.0	1.9559866892812283e+18
14350.0	1.9555613080027133e+18
14351.0	1.955150648731238e+18
14352.0	1.9547655294156797e+18
14353.0	1.954366820555161e+18
14354.0	1.9539602482135037e+18
14355.0	1.95355118445527e+18
14356.0	1.953148717498368e+18
14357.0	1.9527504700112893e+18
14358.0	1.9523461508497403e+18
14359.0	1.9519291145584637e+18
14360.0	1.9515358062837755e+18
14361.0	1.951031444583219e+18
14362.0	1.9504549928632315e+18
14363.0	1.9500504522424315e+18
14364.0	1.9495794772017147e+18
14365.0	1.9492282562510843e+18
14366.0	1.9488272271015933e+18
14367.0	1.9484348600287232e+18
14368.0	1.9480306264309752e+18
14369.0	1.9476272769925117e+18
14370.0	1.9472236255641592e+18
14371.0	1.94682008150999e+18
14372.0	1.9464121988677627e+18
14373.0	1.9460127736201208e+18
14374.0	1.945609333584691e+18
14375.0	1.945205210716569e+18
14376.0	1.944802926631321e+18
14377.0	1.944399199705497e+18
14378.0	1.9439943436730365e+18
14379.0	1.943593307812659e+18
14380.0	1.9431892788969472e+18
14381.0	1.942777404955033e+18
14382.0	1.9423828434223101e+18
14383.0	1.941975984190259e+18
14384.0	1.9415624107163643e+18
14385.0	1.941175491205529e+18
14386.0	1.9407602467209208e+18
14387.0	1.9403698207719421e+18
14388.0	1.9399656240840704e+18
14389.0	1.9395644506505208e+18
14390.0	1.939160623061401e+18
14391.0	1.9387597381959675e+18
14392.0	1.9383560632795133e+18
14393.0	1.937955232101171e+18
14394.0	1.9375219638534141e+18
14395.0	1.9371405455917053e+18
14396.0	1.9367483748122621e+18
14397.0	1.9363464027832317e+18
14398.0	1.935943560016691e+18
14399.0	1.935542037617049e+18
14400.0	1.935125393912627e+18
14401.0	1.934732463125299e+18
14402.0	1.9342614276866045e+18
14403.0	1.932568735776766e+18
14404.0	1.9291845968265196e+18
14405.0	1.9317659275362278e+18
14406.0	1.9325934737817597e+18
14407.0	1.930140470319514e+18
14408.0	1.93117180437463e+18
14409.0	1.9307746557952e+18
14410.0	1.9303830571188224e+18
14411.0	1.9299861853634555e+18
14412.0	1.929582713451315e+18
14413.0	1.929184024723456e+18
14414.0	1.9287803766505464e+18
14415.0	1.9283798340403197e+18
14416.0	1.927977643907481e+18
14417.0	1.927569907227033e+18
14418.0	1.927161479325286e+18
14419.0	1.9267735213047803e+18
14420.0	1.92636928435159e+18
14421.0	1.925971278456422e+18
14422.0	1.9255652933173243e+18
14423.0	1.9251475741933563e+18
14424.0	1.917886489060962e+18
14425.0	1.924347104696729e+18
14426.0	1.9239651646636027e+18
14427.0	1.923566395405107e+18
14428.0	1.9231477921218552e+18
14429.0	1.9227615470551035e+18
14430.0	1.922364661877965e+18
14431.0	1.921851755541299e+18
14432.0	1.9215557198872573e+18
14433.0	1.9198653616881649e+18
14434.0	1.9207468231950333e+18
14435.0	1.920340450502246e+18
14436.0	1.9199618088697856e+18
14437.0	1.9195617695760381e+18
14438.0	1.9191188795949053e+18
14439.0	1.9187496801796093e+18
14440.0	1.9183605477539837e+18
14441.0	1.9179553997979645e+18
14442.0	1.917551652739481e+18
14443.0	1.917119728346726e+18
14444.0	1.9167566240940032e+18
14445.0	1.916359024207462e+18
14446.0	1.9141528874123264e+18
14447.0	1.9155451581038587e+18
14448.0	1.9151609363693565e+18
14449.0	1.9147616151404541e+18
14450.0	1.9143571701497853e+18
14451.0	1.9139329800536061e+18
14452.0	1.9134271553798144e+18
14453.0	1.9130067837779963e+18
14454.0	1.9126289021534205e+18
14455.0	1.9122217845522427e+18
14456.0	1.9118235269988347e+18
14457.0	1.911421041586995e+18
14458.0	1.9110261780643837e+18
14459.0	1.910623758083686e+18
14460.0	1.9102224554655741e+18
14461.0	1.909797720109875e+18
14462.0	1.909369798760857e+18
14463.0	1.9090157558824955e+18
14464.0	1.908626568092057e+18
14465.0	1.908212122202931e+18
14466.0	1.9078283198988283e+18
14467.0	1.9074015360450552e+18
14468.0	1.907027333663948e+18
14469.0	1.9066106194952187e+18
14470.0	1.9062103939743741e+18
14471.0	1.9058265866371064e+18
14472.0	1.905430538643046e+18
14473.0	1.9050357002862587e+18
14474.0	1.9046380483903483e+18
14475.0	1.9042357122957307e+18
14476.0	1.903757598549606e+18
14477.0	1.9034406769393661e+18
14478.0	1.9030394347192317e+18
14479.0	1.9026419522732027e+18
14480.0	1.9022290750537725e+18
14481.0	1.9018448365420541e+18
14482.0	1.901442565878579e+18
14483.0	1.9010378037985277e+18
14484.0	1.900638188968345e+18
14485.0	1.9002158225555453e+18
14486.0	1.8996010969726973e+18
14487.0	1.8994491759263741e+18
14488.0	1.8990418200887293e+18
14489.0	1.8986424351064061e+18
14490.0	1.8982510813773821e+18
14491.0	1.8978537365045243e+18
14492.0	1.8974563580772347e+18
14493.0	1.8970534079365115e+18
14494.0	1.8966409585360893e+18
14495.0	1.8962592399622136e+18
14496.0	1.895748591838822e+18
14497.0	1.8954613575122941e+18
14498.0	1.895063729104486e+18
14499.0	1.8946653742432253e+18
14500.0	1.8942663482933245e+18
14501.0	1.8938248004894715e+18
14502.0	1.8932696306679805e+18
14503.0	1.8930567227637755e+18
14504.0	1.8926671407087613e+18
14505.0	1.8922342549815293e+18
14506.0	1.891795708621619e+18
14507.0	1.8912561634213883e+18
14508.0	1.8909504439582715e+18
14509.0	1.890552095807897e+18
14510.0	1.8901509139857405e+18
14511.0	1.8897542670450683e+18
14512.0	1.8893422890844155e+18
14513.0	1.8889565540450304e+18
14514.0	1.8885286830276603e+18
14515.0	1.888157265664409e+18
14516.0	1.8858791630012424e+18
14517.0	1.887356911930572e+18
14518.0	1.8869624661606397e+18
14519.0	1.8865641062662136e+18
14520.0	1.8861653302968317e+18
14521.0	1.885765965447168e+18
14522.0	1.8853661056696315e+18
14523.0	1.8848734343331837e+18
14524.0	1.883978265840844e+18
14525.0	1.8834413076873216e+18
14526.0	1.8830474742857728e+18
14527.0	1.8826292837220347e+18
14528.0	1.8821452039979008e+18
14529.0	1.881841289763225e+18
14530.0	1.881436703843942e+18
14531.0	1.8810506835918845e+18
14532.0	1.8805359686713341e+18
14533.0	1.8802537943531515e+18
14534.0	1.8798568974319613e+18
14535.0	1.8794485467054077e+18
14536.0	1.8790555655864315e+18
14537.0	1.878649761641267e+18
14538.0	1.878261317081497e+18
14539.0	1.8778625629224955e+18
14540.0	1.8774636141477888e+18
14541.0	1.8770447373959163e+18
14542.0	1.8766633359114237e+18
14543.0	1.8762023785463808e+18
14544.0	1.8758657168637947e+18
14545.0	1.8754590572806144e+18
14546.0	1.8670786231402452e+18
14547.0	1.8673916054601672e+18
14548.0	1.8742552752553984e+18
14549.0	1.8737710428585981e+18
14550.0	1.873467556442931e+18
14551.0	1.8730746290110461e+18
14552.0	1.872674564551475e+18
14553.0	1.8722709080899581e+18
14554.0	1.8718776618909693e+18
14555.0	1.871478122558259e+18
14556.0	1.8710770732761088e+18
14557.0	1.8706798340997112e+18
14558.0	1.8702787428745213e+18
14559.0	1.8684992271941604e+18
14560.0	1.8694763288985597e+18
14561.0	1.869077217384857e+18
14562.0	1.8686623268995072e+18
14563.0	1.8682828816383997e+18
14564.0	1.8678750073847805e+18
14565.0	1.8674854320406525e+18
14566.0	1.8670858994188283e+18
14567.0	1.8666851974250496e+18
14568.0	1.8662731892654077e+18
14569.0	1.8658853637849083e+18
14570.0	1.865098332838297e+18
14571.0	1.865083580632268e+18
14572.0	1.8646031935733752e+18
14573.0	1.8641192413560827e+18
14574.0	1.8637367308976125e+18
14575.0	1.863354287548006e+18
14576.0	1.8629525856321533e+18
14577.0	1.862552088320409e+18
14578.0	1.8621559933501437e+18
14579.0	1.8617570898739197e+18
14580.0	1.8613565137092605e+18
14581.0	1.8609516744540155e+18
14582.0	1.8605542960267261e+18
14583.0	1.86015389098967e+18
14584.0	1.859741449977856e+18
14585.0	1.8593516112314365e+18
14586.0	1.8589477500878845e+18
14587.0	1.8585478164905981e+18
14588.0	1.8581481681059837e+18
14589.0	1.8577547725897725e+18
14590.0	1.857361591821926e+18
14591.0	1.8569670252560381e+18
14592.0	1.8565693179953152e+18
14593.0	1.8560828995272696e+18
14594.0	1.8557867665653752e+18
14595.0	1.8553883546615805e+18
14596.0	1.854936742205849e+18
14597.0	1.8545359680700413e+18
14598.0	1.8542043580071933e+18
14599.0	1.8538175693586427e+18
14600.0	1.853422133732966e+18
14601.0	1.8530284932694008e+18
14602.0	1.8526309873352704e+18
14603.0	1.8522393081282555e+18
14604.0	1.8518080900562944e+18
14605.0	1.851439053379993e+18
14606.0	1.8510026477928443e+18
14607.0	1.8506541967605755e+18
14608.0	1.8502644066680832e+18
14609.0	1.849863565423411e+18
14610.0	1.8494611538313213e+18
14611.0	1.849074581608857e+18
14612.0	1.8486855162920955e+18
14613.0	1.8482912601047037e+18
14614.0	1.84789310153687e+18
14615.0	1.8474995617366016e+18
14616.0	1.8471047066025981e+18
14617.0	1.8467084656705533e+18
14618.0	1.8463072872038397e+18
14619.0	1.845869658557644e+18
14620.0	1.845361441452851e+18
14621.0	1.845123379468697e+18
14622.0	1.8447245397458936e+18
14623.0	1.8443304999845883e+18
14624.0	1.8438844323987453e+18
14625.0	1.8435338389159933e+18
14626.0	1.843137577851289e+18
14627.0	1.8427364681711613e+18
14628.0	1.8423453493231613e+18
14629.0	1.8419475715981307e+18
14630.0	1.841548215137075e+18
14631.0	1.8411507947667456e+18
14632.0	1.84019606044672e+18
14633.0	1.84027762959319e+18
14634.0	1.839952963620044e+18
14635.0	1.8395217405149181e+18
14636.0	1.8390677524054013e+18
14637.0	1.8387604642725888e+18
14638.0	1.8383577305579517e+18
14639.0	1.8379511028514813e+18
14640.0	1.837555598439219e+18
14641.0	1.834985137687755e+18
14642.0	1.836754644081049e+18
14643.0	1.8363616663175165e+18
14644.0	1.835952040522547e+18
14645.0	1.83554241808302e+18
14646.0	1.835150671767142e+18
14647.0	1.834744465168793e+18
14648.0	1.8342528793182205e+18
14649.0	1.8335464628944893e+18
