# Flux units: erg / (cm m2 s)
# Wavelength units: Angstrom
wave	flux
14000.0	1.8537744686907387e+18
14001.0	1.8533400176492544e+18
14002.0	1.8530143232327675e+18
14003.0	1.8526331465629693e+18
14004.0	1.8522476598263803e+18
14005.0	1.8518620925591547e+18
14006.0	1.851471376364339e+18
14007.0	1.8510852604821496e+18
14008.0	1.8506382600830976e+18
14009.0	1.8503178907549693e+18
14010.0	1.8499263440879613e+18
14011.0	1.8491171353395197e+18
14012.0	1.8491655157972987e+18
14013.0	1.848780938385817e+18
14014.0	1.8483922170019837e+18
14015.0	1.8480099800121341e+18
14016.0	1.8476269729480704e+18
14017.0	1.8472382045880315e+18
14018.0	1.846836920424857e+18
14019.0	1.8464528345858045e+18
14020.0	1.846062098258329e+18
14021.0	1.8456164886904832e+18
14022.0	1.8452325387468797e+18
14023.0	1.8448432536485883e+18
14024.0	1.8444551949647872e+18
14025.0	1.8440819555958784e+18
14026.0	1.8436971684691965e+18
14027.0	1.8433150002659323e+18
14028.0	1.8429316392026107e+18
14029.0	1.8425480550023165e+18
14030.0	1.8419257796722688e+18
14031.0	1.8417584403644413e+18
14032.0	1.8413954065760256e+18
14033.0	1.8409869132431355e+18
14034.0	1.8406325834743803e+18
14035.0	1.840241421005619e+18
14036.0	1.8398469500698621e+18
14037.0	1.8394643305594877e+18
14038.0	1.8390817932574715e+18
14039.0	1.8386993582964733e+18
14040.0	1.838310620135424e+18
14041.0	1.8379312335945725e+18
14042.0	1.837542929963417e+18
14043.0	1.8371431557496827e+18
14044.0	1.836780583334707e+18
14045.0	1.836404703232e+18
14046.0	1.8360219209826304e+18
14047.0	1.8356387008479227e+18
14048.0	1.835260013916979e+18
14049.0	1.8348800066191355e+18
14050.0	1.8344985917128696e+18
14051.0	1.8341112712265723e+18
14052.0	1.833735761900339e+18
14053.0	1.8333547983011835e+18
14054.0	1.8329738179248123e+18
14055.0	1.832575957991424e+18
14056.0	1.8321915584184312e+18
14057.0	1.831810742458777e+18
14058.0	1.8314300019965947e+18
14059.0	1.8310493538091003e+18
14060.0	1.830668794540851e+18
14061.0	1.8302836500594685e+18
14062.0	1.8299079343734784e+18
14063.0	1.8295166141988861e+18
14064.0	1.829105080834457e+18
14065.0	1.828761418019635e+18
14066.0	1.8283873179795456e+18
14067.0	1.8280037589450747e+18
14068.0	1.8276276204732413e+18
14069.0	1.8272469471199232e+18
14070.0	1.826868084028211e+18
14071.0	1.8264866875768827e+18
14072.0	1.826109206927769e+18
14073.0	1.8257298405195776e+18
14074.0	1.8253506200731645e+18
14075.0	1.824959554912256e+18
14076.0	1.8245876627537917e+18
14077.0	1.8241507219734525e+18
14078.0	1.823809877730918e+18
14079.0	1.8234310012174333e+18
14080.0	1.8230567434715133e+18
14081.0	1.822678056540569e+18
14082.0	1.8222945126055933e+18
14083.0	1.821919902538137e+18
14084.0	1.8215424520880123e+18
14085.0	1.820976747852595e+18
14086.0	1.8207811188031485e+18
14087.0	1.8204078274248704e+18
14088.0	1.820021854149017e+18
14089.0	1.8196516430675968e+18
14090.0	1.8192729880133632e+18
14091.0	1.8188961818083325e+18
14092.0	1.818518508221235e+18
14093.0	1.8181408581222397e+18
14094.0	1.8177633707622397e+18
14095.0	1.8173858834022392e+18
14096.0	1.8169946873790461e+18
14097.0	1.8166225938939904e+18
14098.0	1.8162487203463165e+18
14099.0	1.815877128500019e+18
14100.0	1.8154918045024253e+18
14101.0	1.8151233650950141e+18
14102.0	1.8147383380541437e+18
14103.0	1.8143398724632576e+18
14104.0	1.8139735201415165e+18
14105.0	1.8135963767144443e+18
14106.0	1.813220372460339e+18
14107.0	1.812842326419046e+18
14108.0	1.812459690131456e+18
14109.0	1.8120881133846523e+18
14110.0	1.811708941592166e+18
14111.0	1.8113267062800381e+18
14112.0	1.8109580991004664e+18
14113.0	1.810587398124339e+18
14114.0	1.8102025908649981e+18
14115.0	1.809835057427251e+18
14116.0	1.8094422205923325e+18
14117.0	1.8086639842623485e+18
14118.0	1.8087093666316285e+18
14119.0	1.808323886605926e+18
14120.0	1.8079531755634685e+18
14121.0	1.8075742671732733e+18
14122.0	1.807198499477913e+18
14123.0	1.8068250470383616e+18
14124.0	1.806449594754662e+18
14125.0	1.8057589287813112e+18
14126.0	1.8057092531224576e+18
14127.0	1.8053347705618432e+18
14128.0	1.804959346799411e+18
14129.0	1.804576589715865e+18
14130.0	1.8041779362201597e+18
14131.0	1.8038179424632827e+18
14132.0	1.803440039028326e+18
14133.0	1.8026890019209208e+18
14134.0	1.802695310154137e+18
14135.0	1.802310638790246e+18
14136.0	1.801932539061862e+18
14137.0	1.8015728271622141e+18
14138.0	1.8011954002001917e+18
14139.0	1.8008262712492024e+18
14140.0	1.8004434705448955e+18
14141.0	1.800076564575027e+18
14142.0	1.799670701909606e+18
14143.0	1.7993251348807677e+18
14144.0	1.7989600408502264e+18
14145.0	1.7985869105332221e+18
14146.0	1.7982128960569341e+18
14147.0	1.7978403227435005e+18
14148.0	1.7974677175533563e+18
14149.0	1.7970957012434941e+18
14150.0	1.7967229702242304e+18
14151.0	1.7963487745540093e+18
14152.0	1.7959780937105405e+18
14153.0	1.7956056193826813e+18
14154.0	1.7952158343233528e+18
14155.0	1.7948197745852413e+18
14156.0	1.7944786149310461e+18
14157.0	1.7941171095470077e+18
14158.0	1.793742274664857e+18
14159.0	1.793373050083737e+18
14160.0	1.7929933464535037e+18
14161.0	1.7925837911228416e+18
14162.0	1.7921649395367933e+18
14163.0	1.79186687887278e+18
14164.0	1.7914757482807293e+18
14165.0	1.7910247985250304e+18
14166.0	1.7907498937745405e+18
14167.0	1.7903726161297403e+18
14168.0	1.7900092417638395e+18
14169.0	1.789640404736409e+18
14170.0	1.7892666956054525e+18
14171.0	1.7888966606848e+18
14172.0	1.7885278471454717e+18
14173.0	1.7881054723440637e+18
14174.0	1.7877813600190461e+18
14175.0	1.787416130093056e+18
14176.0	1.7870457025855485e+18
14177.0	1.7864247090348024e+18
14178.0	1.7859777421901821e+18
14179.0	1.785599021704806e+18
14180.0	1.7852394540892152e+18
14181.0	1.7848694594338816e+18
14182.0	1.7844990252154877e+18
14183.0	1.784129770435379e+18
14184.0	1.7837564589244408e+18
14185.0	1.783390354905497e+18
14186.0	1.7829310467407872e+18
14187.0	1.7826345933340664e+18
14188.0	1.7822812282552315e+18
14189.0	1.781911025562419e+18
14190.0	1.781542698562355e+18
14191.0	1.7811734588817403e+18
14192.0	1.7807994444054528e+18
14193.0	1.780423596179456e+18
14194.0	1.780066194502451e+18
14195.0	1.7796987650834427e+18
14196.0	1.7793298861129725e+18
14197.0	1.7789572188471293e+18
14198.0	1.7785703765114875e+18
14199.0	1.7782024353873915e+18
14200.0	1.7777925478678525e+18
14201.0	1.7774636322258944e+18
14202.0	1.7770999793582075e+18
14203.0	1.7767200358137853e+18
14204.0	1.7763618170863613e+18
14205.0	1.7759940202463227e+18
14206.0	1.7755399549616125e+18
14207.0	1.7752601160318976e+18
14208.0	1.7748925859495933e+18
14209.0	1.7744380710354936e+18
14210.0	1.7740883734560763e+18
14211.0	1.7737894454099963e+18
14212.0	1.7734218717069307e+18
14213.0	1.773054541273497e+18
14214.0	1.7726874071334907e+18
14215.0	1.772312308849049e+18
14216.0	1.7719540246904827e+18
14217.0	1.7715867982757885e+18
14218.0	1.7712121747865595e+18
14219.0	1.7708533017477117e+18
14220.0	1.7704866877014013e+18
14221.0	1.7701197313998843e+18
14222.0	1.7697439301500928e+18
14223.0	1.7693865922265085e+18
14224.0	1.7690206761123837e+18
14225.0	1.7685145125388288e+18
14226.0	1.7682860857098237e+18
14227.0	1.7679221006532605e+18
14228.0	1.7672355551641597e+18
14229.0	1.7670933900689403e+18
14230.0	1.7668242432589821e+18
14231.0	1.766452476929638e+18
14232.0	1.766092474784153e+18
14233.0	1.7657231914827776e+18
14234.0	1.7653616475111421e+18
14235.0	1.7649944529731581e+18
14236.0	1.7646306826649595e+18
14237.0	1.7642645870346237e+18
14238.0	1.7638840780980221e+18
14239.0	1.763512560071475e+18
14240.0	1.7620529640898557e+18
14241.0	1.7627857979179003e+18
14242.0	1.7624209857445885e+18
14243.0	1.7619478263103488e+18
14244.0	1.761691846259507e+18
14245.0	1.76131529506816e+18
14246.0	1.7609449799679997e+18
14247.0	1.7605947069300733e+18
14248.0	1.7602224154738685e+18
14249.0	1.759867780359782e+18
14250.0	1.7595034077495293e+18
14251.0	1.7591409729077243e+18
14252.0	1.7587768217567227e+18
14253.0	1.7584121488343035e+18
14254.0	1.7580473098174461e+18
14255.0	1.7576620529287165e+18
14256.0	1.7571846572474365e+18
14257.0	1.756945150744985e+18
14258.0	1.7565940287799293e+18
14259.0	1.7562199941709821e+18
14260.0	1.7558601681862656e+18
14261.0	1.755490567795507e+18
14262.0	1.7551548657696763e+18
14263.0	1.7545932417531904e+18
14264.0	1.7543730273714176e+18
14265.0	1.7540637276504061e+18
14266.0	1.7537035761876987e+18
14267.0	1.7533407168823293e+18
14268.0	1.7529779716620285e+18
14269.0	1.7526134832889853e+18
14270.0	1.752252546652569e+18
14271.0	1.751888491131699e+18
14272.0	1.7515274555097088e+18
14273.0	1.7511640408784893e+18
14274.0	1.7504836022960125e+18
14275.0	1.7504119434510333e+18
14276.0	1.7500628381073405e+18
14277.0	1.749702453441331e+18
14278.0	1.749353901745766e+18
14279.0	1.7489909451325437e+18
14280.0	1.7486257974149115e+18
14281.0	1.7482686574624765e+18
14282.0	1.7479071621447675e+18
14283.0	1.7475455594528765e+18
14284.0	1.7471851294883835e+18
14285.0	1.7468246592585725e+18
14286.0	1.7464610399453181e+18
14287.0	1.7460836633149437e+18
14288.0	1.74572225691648e+18
14289.0	1.7446566436536312e+18
14290.0	1.744997905648844e+18
14291.0	1.7446383833317376e+18
14292.0	1.7442781630824448e+18
14293.0	1.7439157433401341e+18
14294.0	1.7434595825811453e+18
14295.0	1.7431863404527616e+18
14296.0	1.7422714620870656e+18
14297.0	1.7424679081869312e+18
14298.0	1.7419908077846523e+18
14299.0	1.741743999837798e+18
14300.0	1.7413885610950653e+18
14301.0	1.7410328992153597e+18
14302.0	1.7406714894614525e+18
14303.0	1.7402882559049728e+18
14304.0	1.7399435612913661e+18
14305.0	1.7395912548548605e+18
14306.0	1.739210334876467e+18
14307.0	1.738863935697715e+18
14308.0	1.7385131207557115e+18
14309.0	1.7381513620357117e+18
14310.0	1.7376843027972093e+18
14311.0	1.7373709866106877e+18
14312.0	1.7370401080344576e+18
14313.0	1.7366543847391227e+18
14314.0	1.7363551798689787e+18
14315.0	1.735997940930969e+18
14316.0	1.735602641200742e+18
14317.0	1.7352706049966075e+18
14318.0	1.7349214845534205e+18
14319.0	1.734563034300416e+18
14320.0	1.7342039582572541e+18
14321.0	1.7338456875204605e+18
14322.0	1.7334607980527613e+18
14323.0	1.7331131707817981e+18
14324.0	1.732770199188275e+18
14325.0	1.7324051051577341e+18
14326.0	1.7320535234969597e+18
14327.0	1.7316906876796925e+18
14328.0	1.7313325763264507e+18
14329.0	1.730979150849638e+18
14330.0	1.7306211686809595e+18
14331.0	1.7302630103515133e+18
14332.0	1.7299053721157632e+18
14333.0	1.7295476399276027e+18
14334.0	1.729189964781977e+18
14335.0	1.7288214448439293e+18
14336.0	1.7284556411371515e+18
14337.0	1.728116946055987e+18
14338.0	1.7277584572153853e+18
14339.0	1.727395017418342e+18
14340.0	1.7270448819535867e+18
14341.0	1.7266871464099837e+18
14342.0	1.7261954733178875e+18
14343.0	1.725761282323251e+18
14344.0	1.7254058117038077e+18
14345.0	1.725051577565184e+18
14346.0	1.7246928085450747e+18
14347.0	1.724326199531929e+18
14348.0	1.7239809445593085e+18
14349.0	1.7236246921216e+18
14350.0	1.7232567140876285e+18
14351.0	1.7228952204476413e+18
14352.0	1.7225493916942333e+18
14353.0	1.7221975264985085e+18
14354.0	1.7218406885359616e+18
14355.0	1.721482479874867e+18
14356.0	1.7211272542027776e+18
14357.0	1.7207745568571387e+18
14358.0	1.7204180192067584e+18
14359.0	1.7200526701625341e+18
14360.0	1.7197057039138813e+18
14361.0	1.7193507181559805e+18
14362.0	1.7189955310714875e+18
14363.0	1.7186397735616512e+18
14364.0	1.718250423032217e+18
14365.0	1.7179193062195195e+18
14366.0	1.7175670769582075e+18
14367.0	1.7172184195661821e+18
14368.0	1.7168628331839485e+18
14369.0	1.7165080621744123e+18
14370.0	1.7161530176962557e+18
14371.0	1.715798090658611e+18
14372.0	1.715439457533952e+18
14373.0	1.7150880956547072e+18
14374.0	1.7147330947973115e+18
14375.0	1.7143777214857216e+18
14376.0	1.7140241735352315e+18
14377.0	1.7136691357679613e+18
14378.0	1.7133131349884928e+18
14379.0	1.712960576893747e+18
14380.0	1.7126046365122557e+18
14381.0	1.7122444565282813e+18
14382.0	1.7118963494289405e+18
14383.0	1.7115366459179005e+18
14384.0	1.7111755247321085e+18
14385.0	1.7108350361665533e+18
14386.0	1.7104711249297403e+18
14387.0	1.7101271769022467e+18
14388.0	1.7097719176757248e+18
14389.0	1.7094193193156603e+18
14390.0	1.7090646439362552e+18
14391.0	1.7087118375387133e+18
14392.0	1.708356719240806e+18
14393.0	1.7080053892382712e+18
14394.0	1.7076258416361472e+18
14395.0	1.7072895087869952e+18
14396.0	1.7069452017270784e+18
14397.0	1.7065920866287616e+18
14398.0	1.7062378055139325e+18
14399.0	1.70588571214807e+18
14400.0	1.7055199453511677e+18
14401.0	1.7051745007960061e+18
14402.0	1.7048256269778944e+18
14403.0	1.7024618783047662e+18
14404.0	1.698896582331596e+18
14405.0	1.7025141829533678e+18
14406.0	1.703404029712793e+18
14407.0	1.7004595679068168e+18
14408.0	1.7026525983408123e+18
14409.0	1.7023266874982397e+18
14410.0	1.7019852073992187e+18
14411.0	1.7016353370144763e+18
14412.0	1.7012813444677627e+18
14413.0	1.7009318532481021e+18
14414.0	1.700577892578099e+18
14415.0	1.700226695115571e+18
14416.0	1.69987401622487e+18
14417.0	1.699516706822553e+18
14418.0	1.6991561963274237e+18
14419.0	1.6988186488078333e+18
14420.0	1.69846419488768e+18
14421.0	1.6981159535706107e+18
14422.0	1.6977639625457661e+18
14423.0	1.69740583609303e+18
14424.0	1.686488131567612e+18
14425.0	1.6966983257948152e+18
14426.0	1.6963588908384256e+18
14427.0	1.6960080607969277e+18
14428.0	1.6956424634499067e+18
14429.0	1.6953005202997243e+18
14430.0	1.6949545925607421e+18
14431.0	1.6945399805771776e+18
14432.0	1.694243736885657e+18
14433.0	1.6919387588001784e+18
14434.0	1.693537233220403e+18
14435.0	1.6931844620550141e+18
14436.0	1.6928496207003648e+18
14437.0	1.6924989802414072e+18
14438.0	1.6920966726680576e+18
14439.0	1.6917815931961344e+18
14440.0	1.6914467199647736e+18
14441.0	1.69109013701591e+18
14442.0	1.6907372400214013e+18
14443.0	1.6903581235937277e+18
14444.0	1.690041423442739e+18
14445.0	1.6896954403389437e+18
14446.0	1.6869208377786373e+18
14447.0	1.6889678997225467e+18
14448.0	1.6886457335545856e+18
14449.0	1.6882959118237693e+18
14450.0	1.687942467892019e+18
14451.0	1.687594682915225e+18
14452.0	1.6872433747230715e+18
14453.0	1.6868635972730877e+18
14454.0	1.6865466991509504e+18
14455.0	1.686193290451353e+18
14456.0	1.6858398884626432e+18
14457.0	1.68548737566638e+18
14458.0	1.6851465750446077e+18
14459.0	1.6847957248704507e+18
14460.0	1.68444786942935e+18
14461.0	1.6840817905762296e+18
14462.0	1.6836963340386304e+18
14463.0	1.6833966862499837e+18
14464.0	1.683051958081945e+18
14465.0	1.6826876660023293e+18
14466.0	1.6823553798176763e+18
14467.0	1.6819719818444797e+18
14468.0	1.681653451299225e+18
14469.0	1.6812891541864443e+18
14470.0	1.68093941801943e+18
14471.0	1.6806017664811005e+18
14472.0	1.68025680510976e+18
14473.0	1.679914610301337e+18
14474.0	1.679565288531558e+18
14475.0	1.6792099152199675e+18
14476.0	1.678745441350451e+18
14477.0	1.6785205511585787e+18
14478.0	1.6781721622020093e+18
14479.0	1.677822580385382e+18
14480.0	1.677463593261465e+18
14481.0	1.67712814792704e+18
14482.0	1.6767767743037437e+18
14483.0	1.6764242984173565e+18
14484.0	1.6760567582687232e+18
14485.0	1.6756934090686461e+18
14486.0	1.6751495655456768e+18
14487.0	1.6750219345526781e+18
14488.0	1.6746690241363965e+18
14489.0	1.6743217827414013e+18
14490.0	1.673977222345523e+18
14491.0	1.6736309104082936e+18
14492.0	1.6732846790017021e+18
14493.0	1.6729367195418621e+18
14494.0	1.6725744054960128e+18
14495.0	1.6722416814260221e+18
14496.0	1.6717948907421693e+18
14497.0	1.6715459000795133e+18
14498.0	1.6711993650053115e+18
14499.0	1.6708525111640061e+18
14500.0	1.670504992944947e+18
14501.0	1.6700990631706621e+18
14502.0	1.669606757577523e+18
14503.0	1.669449236296499e+18
14504.0	1.6691114270523387e+18
14505.0	1.6687104616562685e+18
14506.0	1.668311997743104e+18
14507.0	1.6678932434649085e+18
14508.0	1.6677285046255613e+18
14509.0	1.6673816759500797e+18
14510.0	1.6670327014686715e+18
14511.0	1.6666875672920061e+18
14512.0	1.6663293938630656e+18
14513.0	1.6659942052200443e+18
14514.0	1.6656187747467261e+18
14515.0	1.665299789538918e+18
14516.0	1.6631754165059587e+18
14517.0	1.6646046037835776e+18
14518.0	1.664261209404211e+18
14519.0	1.6639148001591293e+18
14520.0	1.6635683120611323e+18
14521.0	1.6632206680129539e+18
14522.0	1.6628751932588032e+18
14523.0	1.6624026562592763e+18
14524.0	1.6620533881765885e+18
14525.0	1.661832153740083e+18
14526.0	1.661490039462297e+18
14527.0	1.661115647498649e+18
14528.0	1.6607094576775165e+18
14529.0	1.660442050664857e+18
14530.0	1.6600944921804795e+18
14531.0	1.659757810365235e+18
14532.0	1.6592343528374272e+18
14533.0	1.6590634114613243e+18
14534.0	1.6586360034951168e+18
14535.0	1.6582793886695421e+18
14536.0	1.6579410861752315e+18
14537.0	1.6575861775925243e+18
14538.0	1.6572494370570237e+18
14539.0	1.6569037005783037e+18
14540.0	1.656557823170969e+18
14541.0	1.6561968999563256e+18
14542.0	1.6558660163469312e+18
14543.0	1.655434271470387e+18
14544.0	1.655173972964147e+18
14545.0	1.654826731569152e+18
14546.0	1.641241454732898e+18
14547.0	1.641962475723156e+18
14548.0	1.653780997629542e+18
14549.0	1.6533566649270267e+18
14550.0	1.6530963093782525e+18
14551.0	1.6527553325957115e+18
14552.0	1.652407910006784e+18
14553.0	1.652058826473472e+18
14554.0	1.651718953631744e+18
14555.0	1.6513728748978176e+18
14556.0	1.6510249758359552e+18
14557.0	1.6506826300325888e+18
14558.0	1.65033685328855e+18
14559.0	1.6486829855342582e+18
14560.0	1.6496413403774976e+18
14561.0	1.649295890789171e+18
14562.0	1.6489381049139195e+18
14563.0	1.648608534960537e+18
14564.0	1.6482588155707392e+18
14565.0	1.647919323571814e+18
14566.0	1.6475739696136192e+18
14567.0	1.647228211324518e+18
14568.0	1.6468711720353792e+18
14569.0	1.646537588971929e+18
14570.0	1.6458265017712635e+18
14571.0	1.6458448023584765e+18
14572.0	1.6454710294740992e+18
14573.0	1.6451214644346877e+18
14574.0	1.6447862674030592e+18
14575.0	1.6444479263211512e+18
14576.0	1.6441033374040056e+18
14577.0	1.643754391443865e+18
14578.0	1.6434128224255997e+18
14579.0	1.6430689985495035e+18
14580.0	1.6427240170455037e+18
14581.0	1.6423751113506813e+18
14582.0	1.642033235309363e+18
14583.0	1.641688317558784e+18
14584.0	1.6413345447935997e+18
14585.0	1.6409976314527741e+18
14586.0	1.6406498380873728e+18
14587.0	1.6403046200246267e+18
14588.0	1.6399614856921085e+18
14589.0	1.6396260588126203e+18
14590.0	1.6392907711840253e+18
14591.0	1.6389546816045056e+18
14592.0	1.6386159026372605e+18
14593.0	1.638197049373491e+18
14594.0	1.6379485385392123e+18
14595.0	1.6376092931653632e+18
14596.0	1.6372360470855675e+18
14597.0	1.636902945528217e+18
14598.0	1.6366022877511677e+18
14599.0	1.63627138065367e+18
14600.0	1.6359348733214715e+18
14601.0	1.6355998373511165e+18
14602.0	1.635260293342822e+18
14603.0	1.634928116210073e+18
14604.0	1.634559690224435e+18
14605.0	1.634248128934707e+18
14606.0	1.63387593981952e+18
14607.0	1.633572391328153e+18
14608.0	1.633246831129395e+18
14609.0	1.6329035055366141e+18
14610.0	1.632562065702912e+18
14611.0	1.6322373309431805e+18
14612.0	1.6319053165494272e+18
14613.0	1.6315698057838587e+18
14614.0	1.6312314529579005e+18
14615.0	1.6308965310726141e+18
14616.0	1.630561540400742e+18
14617.0	1.6302250733338621e+18
14618.0	1.6298849303789565e+18
14619.0	1.629522604589056e+18
14620.0	1.6291351935057915e+18
14621.0	1.6288797654253565e+18
14622.0	1.6285431658184704e+18
14623.0	1.6282063984394237e+18
14624.0	1.6278258811142141e+18
14625.0	1.6275325029711872e+18
14626.0	1.6271918969651197e+18
14627.0	1.6268505611501565e+18
14628.0	1.6265212361441277e+18
14629.0	1.6261840644341757e+18
14630.0	1.6258457988497405e+18
14631.0	1.6255085029883901e+18
14632.0	1.624351539462144e+18
14633.0	1.6246826915069947e+18
14634.0	1.6244933941788672e+18
14635.0	1.6240818272600061e+18
14636.0	1.6236775785627648e+18
14637.0	1.6234830467432443e+18
14638.0	1.6231430933708797e+18
14639.0	1.6227985598185467e+18
14640.0	1.6224642721120253e+18
14641.0	1.6187658992615406e+18
14642.0	1.621786308168908e+18
14643.0	1.6214522352107523e+18
14644.0	1.621105696781107e+18
14645.0	1.6207571115311101e+18
14646.0	1.620427570098995e+18
14647.0	1.6200861151657981e+18
14648.0	1.619755624143257e+18
