# Flux units: erg / (cm m2 s)
# Wavelength units: Angstrom
wave	flux
14000.0	1.6535067086028795e+18
14001.0	1.653314047442944e+18
14002.0	1.6532853466595323e+18
14003.0	1.6530094403092475e+18
14004.0	1.6527296634552315e+18
14005.0	1.6524482072018941e+18
14006.0	1.652155154536857e+18
14007.0	1.6518706012094461e+18
14008.0	1.651471051810406e+18
14009.0	1.6513036420382715e+18
14010.0	1.6510110759124987e+18
14011.0	1.6499408103276544e+18
14012.0	1.650452721775411e+18
14013.0	1.650192267241062e+18
14014.0	1.6499063348264952e+18
14015.0	1.649629990590873e+18
14016.0	1.6493508210720768e+18
14017.0	1.6490700241633275e+18
14018.0	1.648758947735142e+18
14019.0	1.6485074102910968e+18
14020.0	1.6482252477169661e+18
14021.0	1.647942982801817e+18
14022.0	1.6476594864390141e+18
14023.0	1.6473667659628541e+18
14024.0	1.647084965776588e+18
14025.0	1.646818152677376e+18
14026.0	1.6465364212776957e+18
14027.0	1.6462560454770685e+18
14028.0	1.6459649440022525e+18
14029.0	1.6456705307049981e+18
14030.0	1.6441420038537219e+18
14031.0	1.644950011353497e+18
14032.0	1.6448411171553277e+18
14033.0	1.6445190382288893e+18
14034.0	1.6442904939593723e+18
14035.0	1.6440123461730304e+18
14036.0	1.6437164078268413e+18
14037.0	1.6434491820081147e+18
14038.0	1.6431755372265472e+18
14039.0	1.6428908849135613e+18
14040.0	1.6426132773535741e+18
14041.0	1.6423345943740408e+18
14042.0	1.642043736168857e+18
14043.0	1.6417284788584448e+18
14044.0	1.6414639373942784e+18
14045.0	1.641193726908825e+18
14046.0	1.64093217514455e+18
14047.0	1.6406460414033915e+18
14048.0	1.6403753259237376e+18
14049.0	1.640099015242547e+18
14050.0	1.6398197651931139e+18
14051.0	1.6395293348069379e+18
14052.0	1.6392560507355133e+18
14053.0	1.6389822784471037e+18
14054.0	1.6387033706528763e+18
14055.0	1.6384243689062397e+18
14056.0	1.6381453604487165e+18
14057.0	1.6378665046638592e+18
14058.0	1.63758755324887e+18
14059.0	1.6372817918427133e+18
14060.0	1.6370298098024443e+18
14061.0	1.6367422835523581e+18
14062.0	1.6364708382638077e+18
14063.0	1.6361700747902976e+18
14064.0	1.6356114622840832e+18
14065.0	1.63562365428695e+18
14066.0	1.6353558412656635e+18
14067.0	1.6350779552038907e+18
14068.0	1.6348021008629757e+18
14069.0	1.6345219448438784e+18
14070.0	1.6342449597186048e+18
14071.0	1.633964162809856e+18
14072.0	1.6336898653945856e+18
14073.0	1.6334118551814141e+18
14074.0	1.6331336302198781e+18
14075.0	1.6328342827433981e+18
14076.0	1.6325693235265528e+18
14077.0	1.6320099627565053e+18
14078.0	1.631988915739033e+18
14079.0	1.6317313603076093e+18
14080.0	1.6314544288694267e+18
14081.0	1.6311878707838976e+18
14082.0	1.6309119828885504e+18
14083.0	1.6306317295616e+18
14084.0	1.6303445539553277e+18
14085.0	1.629714762432512e+18
14086.0	1.6297524440596477e+18
14087.0	1.629503592647884e+18
14088.0	1.629233226134323e+18
14089.0	1.6289703103823872e+18
14090.0	1.6286939409809403e+18
14091.0	1.6284195596795901e+18
14092.0	1.6281433244958715e+18
14093.0	1.6278665138536443e+18
14094.0	1.627589156274176e+18
14095.0	1.6273093995528187e+18
14096.0	1.6269981134094333e+18
14097.0	1.626723153294131e+18
14098.0	1.6264641013350397e+18
14099.0	1.6262044101640192e+18
14100.0	1.6259154645614587e+18
14101.0	1.6256553355051003e+18
14102.0	1.6253769394159608e+18
14103.0	1.625082599938457e+18
14104.0	1.6248240043196416e+18
14105.0	1.6245516664831997e+18
14106.0	1.624275706445824e+18
14107.0	1.6239767465230333e+18
14108.0	1.623706841382912e+18
14109.0	1.623442559965593e+18
14110.0	1.623169871485337e+18
14111.0	1.6228883430899712e+18
14112.0	1.6226075445035005e+18
14113.0	1.622340159301222e+18
14114.0	1.6220466435850235e+18
14115.0	1.6217721867862008e+18
14116.0	1.621384008984166e+18
14117.0	1.6188755652116483e+18
14118.0	1.620900843618304e+18
14119.0	1.6206416993845248e+18
14120.0	1.6203834275659768e+18
14121.0	1.620115242090496e+18
14122.0	1.619839654507315e+18
14123.0	1.6195701436317693e+18
14124.0	1.6192771362652157e+18
14125.0	1.6185099896750077e+18
14126.0	1.618749227742003e+18
14127.0	1.618490296578867e+18
14128.0	1.6182170292846587e+18
14129.0	1.6179310968700925e+18
14130.0	1.617640196721868e+18
14131.0	1.617387008399769e+18
14132.0	1.6170917696634877e+18
14133.0	1.616228075228364e+18
14134.0	1.6165270619947003e+18
14135.0	1.6162799017263101e+18
14136.0	1.6160172527321085e+18
14137.0	1.6157421013565437e+18
14138.0	1.6154605696057341e+18
14139.0	1.6152007844823035e+18
14140.0	1.6149234604572672e+18
14141.0	1.6146104831705085e+18
14142.0	1.614275512631296e+18
14143.0	1.6140985583009792e+18
14144.0	1.6138345201532925e+18
14145.0	1.6135602730696701e+18
14146.0	1.6132838516588541e+18
14147.0	1.6130151494451197e+18
14148.0	1.612741902283571e+18
14149.0	1.612470332843622e+18
14150.0	1.612198483224166e+18
14151.0	1.6119211910758395e+18
14152.0	1.611650443719475e+18
14153.0	1.6113796393205757e+18
14154.0	1.6110766931312635e+18
14155.0	1.6107877609504768e+18
14156.0	1.6105563427438587e+18
14157.0	1.6102872965971965e+18
14158.0	1.6100108298878976e+18
14159.0	1.6097413106237435e+18
14160.0	1.6094497544863741e+18
14161.0	1.6091302575734781e+18
14162.0	1.6088036202774523e+18
14163.0	1.6086188746080253e+18
14164.0	1.6083195371978747e+18
14165.0	1.608083017039872e+18
14166.0	1.607832098675097e+18
14167.0	1.6075457971617792e+18
14168.0	1.607287402869555e+18
14169.0	1.6070195193839613e+18
14170.0	1.6067438663696381e+18
14171.0	1.606469235087769e+18
14172.0	1.6062034621759485e+18
14173.0	1.6059124160659453e+18
14174.0	1.6056507703492603e+18
14175.0	1.605387831109222e+18
14176.0	1.6051173387665405e+18
14177.0	1.6048458414686205e+18
14178.0	1.6045738928635901e+18
14179.0	1.6042982297829376e+18
14180.0	1.6040312103239675e+18
14181.0	1.6037596610166781e+18
14182.0	1.6034870715219963e+18
14183.0	1.6032156664987643e+18
14184.0	1.602936444970598e+18
14185.0	1.6026560054165501e+18
14186.0	1.602013250138931e+18
14187.0	1.6020612916969467e+18
14188.0	1.601844915942195e+18
14189.0	1.6015818710056957e+18
14190.0	1.601315119982182e+18
14191.0	1.6010427855011835e+18
14192.0	1.600758698580377e+18
14193.0	1.6004467463815165e+18
14194.0	1.6002314712121341e+18
14195.0	1.5999661714178043e+18
14196.0	1.5996961857470461e+18
14197.0	1.5994256866934781e+18
14198.0	1.5991487904874493e+18
14199.0	1.5988756959985661e+18
14200.0	1.5983687539621888e+18
14201.0	1.5982957428735997e+18
14202.0	1.5980682287251456e+18
14203.0	1.597798543366553e+18
14204.0	1.5975300592566267e+18
14205.0	1.5972565201715197e+18
14206.0	1.5968522815406075e+18
14207.0	1.5967156244054013e+18
14208.0	1.5964507910176768e+18
14209.0	1.5960324075159555e+18
14210.0	1.5957945586024443e+18
14211.0	1.5956346700562424e+18
14212.0	1.5953756281634816e+18
14213.0	1.5951076524031997e+18
14214.0	1.5948370644303872e+18
14215.0	1.5945528701353981e+18
14216.0	1.5942986198155264e+18
14217.0	1.5940314191626237e+18
14218.0	1.5937480586952701e+18
14219.0	1.5934927581216765e+18
14220.0	1.5932198163054587e+18
14221.0	1.592952973007257e+18
14222.0	1.5926707215138813e+18
14223.0	1.5924126443110395e+18
14224.0	1.5921330939494397e+18
14225.0	1.591016744707687e+18
14226.0	1.591546027284889e+18
14227.0	1.591305854726963e+18
14228.0	1.5885637513117704e+18
14229.0	1.59019754009395e+18
14230.0	1.5905209326764032e+18
14231.0	1.5902586343260157e+18
14232.0	1.5899973174427648e+18
14233.0	1.589727091857817e+18
14234.0	1.5894618105184256e+18
14235.0	1.5891908870012925e+18
14236.0	1.588925191264665e+18
14237.0	1.588654063065497e+18
14238.0	1.588382533890867e+18
14239.0	1.5880788948025344e+18
14240.0	1.5856709582979075e+18
14241.0	1.587512571487846e+18
14242.0	1.5872913555062781e+18
14243.0	1.5868753694687232e+18
14244.0	1.5867773116743677e+18
14245.0	1.5865058982625275e+18
14246.0	1.5862410413867005e+18
14247.0	1.585974384315596e+18
14248.0	1.585689810855526e+18
14249.0	1.5854401994358784e+18
14250.0	1.5851758928527357e+18
14251.0	1.5849017296551933e+18
14252.0	1.5846291284164605e+18
14253.0	1.5843551715786747e+18
14254.0	1.5840830082252797e+18
14255.0	1.5837527151738877e+18
14256.0	1.5827411849445376e+18
14257.0	1.5830572156846077e+18
14258.0	1.5830066340560896e+18
14259.0	1.5827273017982976e+18
14260.0	1.5824480769146877e+18
14261.0	1.5821863221460987e+18
14262.0	1.5819308739330043e+18
14263.0	1.5805059866558467e+18
14264.0	1.5809053934485496e+18
14265.0	1.5811384826658816e+18
14266.0	1.5809041016029181e+18
14267.0	1.5806443382898685e+18
14268.0	1.5803766712303616e+18
14269.0	1.5800944616800253e+18
14270.0	1.5798318512734205e+18
14271.0	1.579559006765056e+18
14272.0	1.5792803254632448e+18
14273.0	1.578932580751769e+18
14274.0	1.5767576344788997e+18
14275.0	1.5781120708706301e+18
14276.0	1.5781879777067005e+18
14277.0	1.577954339874406e+18
14278.0	1.5777027185442816e+18
14279.0	1.5774384656482296e+18
14280.0	1.577169714780569e+18
14281.0	1.5769124076519421e+18
14282.0	1.5766478158561275e+18
14283.0	1.5763824976068605e+18
14284.0	1.5761168555573248e+18
14285.0	1.5758505390637053e+18
14286.0	1.575583345121689e+18
14287.0	1.5753155874652157e+18
14288.0	1.5750247577812992e+18
14289.0	1.573377894514686e+18
14290.0	1.5744834845278203e+18
14291.0	1.5742403189145597e+18
14292.0	1.573975706986086e+18
14293.0	1.573707518155161e+18
14294.0	1.5732934531088381e+18
14295.0	1.5731392956596221e+18
14296.0	1.5718143032819717e+18
14297.0	1.572582068951449e+18
14298.0	1.5720279443505147e+18
14299.0	1.572086399526502e+18
14300.0	1.5718488760909821e+18
14301.0	1.57159132233728e+18
14302.0	1.5713266416222205e+18
14303.0	1.5710223717105664e+18
14304.0	1.5707789947043837e+18
14305.0	1.570532255544115e+18
14306.0	1.570257369248563e+18
14307.0	1.5699889103044605e+18
14308.0	1.5697275212791803e+18
14309.0	1.569449098346496e+18
14310.0	1.5691403724062715e+18
14311.0	1.568815523561472e+18
14312.0	1.5685856505364475e+18
14313.0	1.5681686595436544e+18
14314.0	1.5681253743263741e+18
14315.0	1.567866486784e+18
14316.0	1.567554789598822e+18
14317.0	1.567332097222246e+18
14318.0	1.5670891111251965e+18
14319.0	1.5668301564739581e+18
14320.0	1.5665674152050685e+18
14321.0	1.5663006272716797e+18
14322.0	1.565998884008755e+18
14323.0	1.5657516331433984e+18
14324.0	1.5655142338592765e+18
14325.0	1.5652427667603453e+18
14326.0	1.5649910581886968e+18
14327.0	1.5647197219520512e+18
14328.0	1.564454732536217e+18
14329.0	1.5642022337576957e+18
14330.0	1.5639394354462715e+18
14331.0	1.5636762143490048e+18
14332.0	1.5634135821320187e+18
14333.0	1.5631506613469181e+18
14334.0	1.5628873311977472e+18
14335.0	1.562605071315763e+18
14336.0	1.5622772294156285e+18
14337.0	1.5620877425049597e+18
14338.0	1.5618202583171072e+18
14339.0	1.5615478030401533e+18
14340.0	1.5612970641915904e+18
14341.0	1.5610309842567165e+18
14342.0	1.5607646912511997e+18
14343.0	1.5605099460034557e+18
14344.0	1.5602303486656512e+18
14345.0	1.5599774405230592e+18
14346.0	1.559716247791206e+18
14347.0	1.5594351019163648e+18
14348.0	1.5591922903023613e+18
14349.0	1.558933588987084e+18
14350.0	1.558600358245171e+18
14351.0	1.5583323891957752e+18
14352.0	1.558134225108992e+18
14353.0	1.557884544902758e+18
14354.0	1.557617879443046e+18
14355.0	1.5573404295888893e+18
14356.0	1.5570767085305853e+18
14357.0	1.5568349169713147e+18
14358.0	1.5565823326289915e+18
14359.0	1.5563033543704573e+18
14360.0	1.5560521273049085e+18
14361.0	1.5557939595051003e+18
14362.0	1.555535040086016e+18
14363.0	1.5552685423984637e+18
14364.0	1.554812000796672e+18
14365.0	1.554655955910656e+18
14366.0	1.5544301513605115e+18
14367.0	1.5542161982357501e+18
14368.0	1.5539543713251325e+18
14369.0	1.553696107895193e+18
14370.0	1.553435509076787e+18
14371.0	1.5531749522014205e+18
14372.0	1.552905600709427e+18
14373.0	1.5526486073147392e+18
14374.0	1.5523887735373821e+18
14375.0	1.5521206820143107e+18
14376.0	1.5518709632204797e+18
14377.0	1.5516094651432952e+18
14378.0	1.551346421884518e+18
14379.0	1.5510888765194235e+18
14380.0	1.5508272727457787e+18
14381.0	1.5505536967507965e+18
14382.0	1.5503053956317181e+18
14383.0	1.5500456172191744e+18
14384.0	1.5497650249924603e+18
14385.0	1.549526652629811e+18
14386.0	1.5492447282921472e+18
14387.0	1.5490056378646523e+18
14388.0	1.548741826209382e+18
14389.0	1.5484846163886075e+18
14390.0	1.5482230361030653e+18
14391.0	1.5479655914012672e+18
14392.0	1.5477049539952635e+18
14393.0	1.5474458349273085e+18
14394.0	1.5471373354795003e+18
14395.0	1.5469130006134781e+18
14396.0	1.5466627617259515e+18
14397.0	1.5463988326301693e+18
14398.0	1.5461321705259003e+18
14399.0	1.5458682145865725e+18
14400.0	1.5455854346108925e+18
14401.0	1.5453370277953533e+18
14402.0	1.545069905995366e+18
14403.0	1.5445330988367867e+18
14404.0	1.540990119916337e+18
14405.0	1.5417877607743442e+18
14406.0	1.543997335221043e+18
14407.0	1.5434514515886077e+18
14408.0	1.5435070579933181e+18
14409.0	1.5432465480941565e+18
14410.0	1.5430011594997757e+18
14411.0	1.5427565946667005e+18
14412.0	1.5424967407566843e+18
14413.0	1.5422435255910397e+18
14414.0	1.5419821013336067e+18
14415.0	1.5417243026325504e+18
14416.0	1.5414634236346368e+18
14417.0	1.5411990918856701e+18
14418.0	1.5409329783963648e+18
14419.0	1.540685553047961e+18
14420.0	1.540422644006912e+18
14421.0	1.5401681604837373e+18
14422.0	1.5398971329478656e+18
14423.0	1.5395886133673984e+18
14424.0	1.5380633228410875e+18
14425.0	1.5390798644248576e+18
14426.0	1.538871261554278e+18
14427.0	1.5386173534896123e+18
14428.0	1.5383326676221947e+18
14429.0	1.5380975886270464e+18
14430.0	1.5378269201235963e+18
14431.0	1.537208651192729e+18
14432.0	1.5373134198734843e+18
14433.0	1.536803055285043e+18
14434.0	1.536773893128192e+18
14435.0	1.536502431062425e+18
14436.0	1.5362813912416253e+18
14437.0	1.5360282582843392e+18
14438.0	1.5357289527508987e+18
14439.0	1.5354992995074043e+18
14440.0	1.5352559996764152e+18
14441.0	1.5349834236035072e+18
14442.0	1.534714986469785e+18
14443.0	1.5344058293551104e+18
14444.0	1.5342116028809213e+18
14445.0	1.5339508698447872e+18
14446.0	1.532450610924749e+18
14447.0	1.533384471032627e+18
14448.0	1.533190717675929e+18
14449.0	1.5329382004424704e+18
14450.0	1.5326745632702467e+18
14451.0	1.532420578030387e+18
14452.0	1.5321669702778875e+18
14453.0	1.5319073948696576e+18
14454.0	1.5316498897698816e+18
14455.0	1.5313832377319416e+18
14456.0	1.5311306617782272e+18
14457.0	1.5308735677202432e+18
14458.0	1.5306141969940477e+18
14459.0	1.530349195834163e+18
14460.0	1.5300792420401147e+18
14461.0	1.5297684122370043e+18
14462.0	1.529469806313472e+18
14463.0	1.529285813941043e+18
14464.0	1.529058776265523e+18
14465.0	1.528777925669683e+18
14466.0	1.5285591910383613e+18
14467.0	1.528283011219456e+18
14468.0	1.5280469222359035e+18
14469.0	1.527738963014451e+18
14470.0	1.527497659672166e+18
14471.0	1.5272743096287232e+18
14472.0	1.5270265453805565e+18
14473.0	1.5267753451585536e+18
14474.0	1.526524104671232e+18
14475.0	1.5262576724148221e+18
14476.0	1.5259840796426235e+18
14477.0	1.525741447544832e+18
14478.0	1.5254844960931837e+18
14479.0	1.5252280899010557e+18
14480.0	1.524951368178073e+18
14481.0	1.5247202569945085e+18
14482.0	1.5244578026160125e+18
14483.0	1.5241956686823421e+18
14484.0	1.5239287280762877e+18
14485.0	1.5236324525080573e+18
14486.0	1.5230635069145085e+18
14487.0	1.523174585506201e+18
14488.0	1.5229220296851453e+18
14489.0	1.522640568398643e+18
14490.0	1.5224076100435963e+18
14491.0	1.5221626425573373e+18
14492.0	1.5219095448322043e+18
14493.0	1.5216408728174587e+18
14494.0	1.5213691758706688e+18
14495.0	1.5211304394424315e+18
14496.0	1.5207236322197504e+18
14497.0	1.5206243597549565e+18
14498.0	1.5203750738132987e+18
14499.0	1.520122422362112e+18
14500.0	1.5198665647849467e+18
14501.0	1.519585251137945e+18
14502.0	1.5190543814361085e+18
14503.0	1.5190787419537405e+18
14504.0	1.5188351837536253e+18
14505.0	1.5185831882915837e+18
14506.0	1.5183081812000765e+18
14507.0	1.5177719830544381e+18
14508.0	1.517817306703462e+18
14509.0	1.5175711832670205e+18
14510.0	1.5173132537036795e+18
14511.0	1.517061704515584e+18
14512.0	1.5167910527893507e+18
14513.0	1.5165466976714747e+18
14514.0	1.5162537876127741e+18
14515.0	1.515993561248563e+18
14516.0	1.5121388314558484e+18
14517.0	1.5153983693783035e+18
14518.0	1.5152668242608128e+18
14519.0	1.5150085776080893e+18
14520.0	1.5147714333376512e+18
14521.0	1.5145200049455104e+18
14522.0	1.5142643000410107e+18
14523.0	1.513981291895193e+18
14524.0	1.513737680007987e+18
14525.0	1.5134843004256253e+18
14526.0	1.5132332730089472e+18
14527.0	1.5129336772296704e+18
14528.0	1.5125490897518592e+18
14529.0	1.5124595094847485e+18
14530.0	1.5121998837448701e+18
14531.0	1.5119658231267328e+18
14532.0	1.5116976661725181e+18
14533.0	1.5114587753938941e+18
14534.0	1.5112077211336696e+18
14535.0	1.5109412519673853e+18
14536.0	1.510695853306675e+18
14537.0	1.5104295854669821e+18
14538.0	1.5101938605490176e+18
14539.0	1.509939174021529e+18
14540.0	1.5096866869870592e+18
14541.0	1.509402004475084e+18
14542.0	1.5091756160778235e+18
14543.0	1.5089000268169213e+18
14544.0	1.5086643337756667e+18
14545.0	1.508386892310118e+18
14546.0	1.5060917003747315e+18
14547.0	1.5058210117386225e+18
14548.0	1.5076069010833405e+18
14549.0	1.507242614036889e+18
14550.0	1.5071306143760381e+18
14551.0	1.506897785205555e+18
14552.0	1.5066422614949885e+18
14553.0	1.5063794380177405e+18
14554.0	1.5061406277697536e+18
14555.0	1.5058868354678781e+18
14556.0	1.505630598725632e+18
14557.0	1.5053721121587197e+18
14558.0	1.5050717412720637e+18
14559.0	1.5021641356541916e+18
14560.0	1.5045601687240701e+18
14561.0	1.504349988795187e+18
14562.0	1.5040756561477632e+18
14563.0	1.503851940361011e+18
14564.0	1.503570413643366e+18
14565.0	1.5033580644204541e+18
14566.0	1.503107172899225e+18
14567.0	1.502850813683302e+18
14568.0	1.5025913020284923e+18
14569.0	1.5023283946651643e+18
14570.0	1.5013510194921467e+18
14571.0	1.5018265579356157e+18
14572.0	1.5015381726920704e+18
14573.0	1.5012681585000448e+18
14574.0	1.50104942051328e+18
14575.0	1.5008176952836093e+18
14576.0	1.500564594203033e+18
14577.0	1.500320223985664e+18
14578.0	1.500074256577331e+18
14579.0	1.4998289082482688e+18
14580.0	1.4995772416196603e+18
14581.0	1.4993072911810557e+18
14582.0	1.499049022717952e+18
14583.0	1.4988038404833277e+18
14584.0	1.4985285733449725e+18
14585.0	1.498297235668992e+18
14586.0	1.498045350936576e+18
14587.0	1.497796556567347e+18
14588.0	1.4975455241175037e+18
14589.0	1.4972943943598075e+18
14590.0	1.497042888792473e+18
14591.0	1.4967848619212797e+18
14592.0	1.496520912692838e+18
14593.0	1.496140207462809e+18
14594.0	1.4960269981646848e+18
14595.0	1.4957712731275264e+18
14596.0	1.4953036971507707e+18
14597.0	1.4950083241967616e+18
14598.0	1.494995852014387e+18
14599.0	1.494778174347673e+18
14600.0	1.4945262728380413e+18
14601.0	1.494274879678054e+18
14602.0	1.4940157203447803e+18
14603.0	1.4937689241419773e+18
14604.0	1.4934573343309827e+18
14605.0	1.4932169956786176e+18
14606.0	1.4928934420348923e+18
14607.0	1.4927606805692416e+18
14608.0	1.4924954076184576e+18
14609.0	1.4922278747766776e+18
14610.0	1.4919571307757563e+18
14611.0	1.4917081401131003e+18
14612.0	1.491515232328089e+18
14613.0	1.4912693102182397e+18
14614.0	1.490993603516825e+18
14615.0	1.4907529460973565e+18
14616.0	1.49052012363776e+18
14617.0	1.4902185968009216e+18
14618.0	1.4899673143705597e+18
14619.0	1.4895100496707581e+18
14620.0	1.4890107144241155e+18
14621.0	1.4892529405132797e+18
14622.0	1.4890115851616253e+18
14623.0	1.4887661261029376e+18
14624.0	1.488449340388147e+18
14625.0	1.4882607862906875e+18
14626.0	1.4879974326534144e+18
14627.0	1.4877478447218688e+18
14628.0	1.4875200285835264e+18
14629.0	1.487269293090406e+18
14630.0	1.4869991312588797e+18
14631.0	1.4867502144159741e+18
14632.0	1.4863701014216701e+18
14633.0	1.4862350196670456e+18
14634.0	1.4860120806653947e+18
14635.0	1.4857208248401915e+18
14636.0	1.485357603146956e+18
14637.0	1.4852686839021565e+18
14638.0	1.4850028036161536e+18
14639.0	1.4847418239549437e+18
14640.0	1.4845005910769664e+18
14641.0	1.483845571654451e+18
14642.0	1.4839977728802813e+18
14643.0	1.4837621553364987e+18
14644.0	1.4834970518355963e+18
14645.0	1.4832182665150464e+18
14646.0	1.4829708009013245e+18
14647.0	1.482721467983462e+18
