# Flux units: erg / (cm m2 s)
# Wavelength units: Angstrom
wave	flux
14000.0	2.4271245864337403e+18
14001.0	2.4266127001518075e+18
14002.0	2.4261205405204475e+18
14003.0	2.425597945341542e+18
14004.0	2.4250749206659067e+18
14005.0	2.424551776872038e+18
14006.0	2.4240247860625403e+18
14007.0	2.4234994394202107e+18
14008.0	2.422925254302105e+18
14009.0	2.422455522453094e+18
14010.0	2.4219266005860347e+18
14011.0	2.4210868052951035e+18
14012.0	2.420889716627865e+18
14013.0	2.420370916455219e+18
14014.0	2.419845393652121e+18
14015.0	2.419326184115405e+18
14016.0	2.4188057750077435e+18
14017.0	2.4182843693334523e+18
14018.0	2.4177628327968763e+18
14019.0	2.417241603283353e+18
14020.0	2.4167199023300603e+18
14021.0	2.4161983473385467e+18
14022.0	2.4156773812273147e+18
14023.0	2.4151479845650427e+18
14024.0	2.41462745801687e+18
14025.0	2.414115922378752e+18
14026.0	2.4135946710548475e+18
14027.0	2.413075369243443e+18
14028.0	2.412555055765913e+18
14029.0	2.4120332658933755e+18
14030.0	2.4111930780155904e+18
14031.0	2.4109625909444603e+18
14032.0	2.410473833732505e+18
14033.0	2.4099280423747584e+18
14034.0	2.409436716571033e+18
14035.0	2.4089181730897915e+18
14036.0	2.4083993259409403e+18
14037.0	2.4078805123465206e+18
14038.0	2.4073617826381824e+18
14039.0	2.4068401253056507e+18
14040.0	2.406320613779046e+18
14041.0	2.4058044845391867e+18
14042.0	2.4052812535037947e+18
14043.0	2.4047482161856507e+18
14044.0	2.4042461244424187e+18
14045.0	2.4037319799472123e+18
14046.0	2.4032122301841403e+18
14047.0	2.402693492087193e+18
14048.0	2.402180478376345e+18
14049.0	2.4016637938106363e+18
14050.0	2.401146579084902e+18
14051.0	2.4006244603789307e+18
14052.0	2.4001090072608763e+18
14053.0	2.3995956160626683e+18
14054.0	2.399079134501273e+18
14055.0	2.398562587508736e+18
14056.0	2.3980461512458235e+18
14057.0	2.3975298710110203e+18
14058.0	2.397013714927616e+18
14059.0	2.3964976762847227e+18
14060.0	2.395981758437785e+18
14061.0	2.3954624046170107e+18
14062.0	2.3949500703834107e+18
14063.0	2.3944249200345083e+18
14064.0	2.393872449667072e+18
14065.0	2.393399384185241e+18
14066.0	2.392889007852749e+18
14067.0	2.3923702999547894e+18
14068.0	2.391859177036185e+18
14069.0	2.391343663520153e+18
14070.0	2.3908296079441915e+18
14071.0	2.390313871291187e+18
14072.0	2.389801053873766e+18
14073.0	2.3892868389142523e+18
14074.0	2.3887727464284155e+18
14075.0	2.388246770640486e+18
14076.0	2.3877401725370363e+18
14077.0	2.387157645787136e+18
14078.0	2.3867113433202683e+18
14079.0	2.386199935188992e+18
14080.0	2.385690805403648e+18
14081.0	2.385177731294822e+18
14082.0	2.3846626422423547e+18
14083.0	2.3841505110130683e+18
14084.0	2.383636554422681e+18
14085.0	2.3829544918056955e+18
14086.0	2.382603212134809e+18
14087.0	2.3821007143829504e+18
14088.0	2.381581316941414e+18
14089.0	2.381073599797657e+18
14090.0	2.380564532088013e+18
14091.0	2.380053373937254e+18
14092.0	2.3795417376358395e+18
14093.0	2.3790300325478395e+18
14094.0	2.3785183274598395e+18
14095.0	2.3780061995859963e+18
14096.0	2.3774830725693435e+18
14097.0	2.376971087301837e+18
14098.0	2.376467789276774e+18
14099.0	2.375962348801228e+18
14100.0	2.375445925960089e+18
14101.0	2.3749420088557563e+18
14102.0	2.3744314932723707e+18
14103.0	2.3739140755423227e+18
14104.0	2.373411232179814e+18
14105.0	2.37290093805568e+18
14106.0	2.372391207646002e+18
14107.0	2.3718807172284406e+18
14108.0	2.3713634119057403e+18
14109.0	2.3708591458353147e+18
14110.0	2.3703493114068987e+18
14111.0	2.369836804367974e+18
14112.0	2.3693280151601147e+18
14113.0	2.3688246768697344e+18
14114.0	2.368306244118118e+18
14115.0	2.367804221161472e+18
14116.0	2.36727389168599e+18
14117.0	2.366224042295296e+18
14118.0	2.366274140739993e+18
14119.0	2.3657593872318454e+18
14120.0	2.365256991821005e+18
14121.0	2.3647465819340795e+18
14122.0	2.364245000218214e+18
14123.0	2.3637331424575483e+18
14124.0	2.3632210833702907e+18
14125.0	2.3624481838727163e+18
14126.0	2.362214789310054e+18
14127.0	2.3617111976837115e+18
14128.0	2.361204015733145e+18
14129.0	2.3606899131809787e+18
14130.0	2.3601760488652795e+18
14131.0	2.3596838338691067e+18
14132.0	2.359168761593856e+18
14133.0	2.3583468659146747e+18
14134.0	2.3581590584033275e+18
14135.0	2.3576473113722875e+18
14136.0	2.3571431845527547e+18
14137.0	2.356643790585856e+18
14138.0	2.3561358133952507e+18
14139.0	2.355634018608742e+18
14140.0	2.3551239308443643e+18
14141.0	2.354612151936614e+18
14142.0	2.354084600768102e+18
14143.0	2.3536078308769787e+18
14144.0	2.35310846878679e+18
14145.0	2.3526042094272507e+18
14146.0	2.3520987538522107e+18
14147.0	2.3515944223506427e+18
14148.0	2.3510893073530875e+18
14149.0	2.350584692316569e+18
14150.0	2.3500822717399035e+18
14151.0	2.349574183819673e+18
14152.0	2.349074247948697e+18
14153.0	2.348570288901325e+18
14154.0	2.348048930203238e+18
14155.0	2.347554915011789e+18
14156.0	2.3470578631442427e+18
14157.0	2.346555766367846e+18
14158.0	2.34605012624343e+18
14159.0	2.3455492273602555e+18
14160.0	2.3450391429513216e+18
14161.0	2.344508409144934e+18
14162.0	2.3439757677690875e+18
14163.0	2.3435337099378683e+18
14164.0	2.3430131414466555e+18
14165.0	2.3424862982766587e+18
14166.0	2.342025507006054e+18
14167.0	2.341518252913459e+18
14168.0	2.3410255413116923e+18
14169.0	2.3405249846837243e+18
14170.0	2.3400215255973883e+18
14171.0	2.339520190506598e+18
14172.0	2.339019883859148e+18
14173.0	2.3384916951564283e+18
14174.0	2.3380122442661883e+18
14175.0	2.3375164976660475e+18
14176.0	2.3370157397114875e+18
14177.0	2.3365149029040123e+18
14178.0	2.336013141671936e+18
14179.0	2.3355082867212283e+18
14180.0	2.3350130988023803e+18
14181.0	2.334512765311385e+18
14182.0	2.3340120593661947e+18
14183.0	2.3335121922818043e+18
14184.0	2.333008755005849e+18
14185.0	2.3325095422328827e+18
14186.0	2.3318958920695803e+18
14187.0	2.331462815082086e+18
14188.0	2.330731919022489e+18
14189.0	2.3302312147550203e+18
14190.0	2.329731770456473e+18
14191.0	2.3292317121118203e+18
14192.0	2.3287276322684923e+18
14193.0	2.3282165328379904e+18
14194.0	2.3277335939645435e+18
14195.0	2.327235879396966e+18
14196.0	2.3267368360738816e+18
14197.0	2.326237920257638e+18
14198.0	2.325736402295193e+18
14199.0	2.3252386843721723e+18
14200.0	2.324680491296358e+18
14201.0	2.3242366987010043e+18
14202.0	2.3237447219412987e+18
14203.0	2.323241048106598e+18
14204.0	2.3227469037305856e+18
14205.0	2.3222187418714107e+18
14206.0	2.321407024929177e+18
14207.0	2.3209825026441216e+18
14208.0	2.320485561506201e+18
14209.0	2.3199078045188096e+18
14210.0	2.3194306504294395e+18
14211.0	2.318988606019993e+18
14212.0	2.318494337492582e+18
14213.0	2.317997010478694e+18
14214.0	2.317499482138214e+18
14215.0	2.3169964038946816e+18
14216.0	2.316505635094527e+18
14217.0	2.316008532895334e+18
14218.0	2.3155031410737147e+18
14219.0	2.3150145566670843e+18
14220.0	2.314517860476518e+18
14221.0	2.314019983169945e+18
14222.0	2.3135127005560827e+18
14223.0	2.3130277282840576e+18
14224.0	2.312530704937779e+18
14225.0	2.3117816492195835e+18
14226.0	2.3112515227484155e+18
14227.0	2.31075908461527e+18
14228.0	2.309883631029453e+18
14229.0	2.309687132920217e+18
14230.0	2.3092707710730235e+18
14231.0	2.308769519868313e+18
14232.0	2.308279272839577e+18
14233.0	2.307780786520064e+18
14234.0	2.307287601800806e+18
14235.0	2.3067904861798395e+18
14236.0	2.3062961337663483e+18
14237.0	2.3057997915750395e+18
14238.0	2.3053043217989627e+18
14239.0	2.3048026662633472e+18
14240.0	2.3034934176251901e+18
14241.0	2.303810763698995e+18
14242.0	2.3033203337986043e+18
14243.0	2.3027374949924861e+18
14244.0	2.3023346388041723e+18
14245.0	2.3018323205685243e+18
14246.0	2.3013361948033021e+18
14247.0	2.3008491991990272e+18
14248.0	2.3002178775941117e+18
14249.0	2.2995675658584056e+18
14250.0	2.299072876222873e+18
14251.0	2.2985797686788093e+18
14252.0	2.29808519816151e+18
14253.0	2.2975900857401336e+18
14254.0	2.297094382760755e+18
14255.0	2.296581218054963e+18
14256.0	2.2959187780698104e+18
14257.0	2.295581784198348e+18
14258.0	2.2951187263258621e+18
14259.0	2.294612713747251e+18
14260.0	2.294127097230131e+18
14261.0	2.2936238830911483e+18
14262.0	2.2931651285745661e+18
14263.0	2.2923985440210941e+18
14264.0	2.292087928966348e+18
14265.0	2.2916838463635448e+18
14266.0	2.2911977265299448e+18
14267.0	2.290705754803404e+18
14268.0	2.290213368679628e+18
14269.0	2.2897194205970427e+18
14270.0	2.2892281551912955e+18
14271.0	2.2887348144439293e+18
14272.0	2.2882413143130104e+18
14273.0	2.287650351978905e+18
14274.0	2.2865018206814205e+18
14275.0	2.286394897806131e+18
14276.0	2.2859517108682747e+18
14277.0	2.2854651212726272e+18
14278.0	2.2849820867690493e+18
14279.0	2.2844894842191867e+18
14280.0	2.2839944623947773e+18
14281.0	2.2835066279297021e+18
14282.0	2.2830149464489976e+18
14283.0	2.2825231559163896e+18
14284.0	2.2820314056491005e+18
14285.0	2.2815396771921915e+18
14286.0	2.2810479067922427e+18
14287.0	2.280556198467993e+18
14288.0	2.2800612521410557e+18
14289.0	2.2790452793049078e+18
14290.0	2.2790785854341117e+18
14291.0	2.278590933840691e+18
14292.0	2.2781009720246272e+18
14293.0	2.2776082453233661e+18
14294.0	2.2770373737054205e+18
14295.0	2.276614779122483e+18
14296.0	2.2757125960761347e+18
14297.0	2.2756376740626427e+18
14298.0	2.2750368249151483e+18
14299.0	2.2746561716944893e+18
14300.0	2.274171964463513e+18
14301.0	2.273503407505408e+18
14302.0	2.2728798722064384e+18
14303.0	2.272366048156057e+18
14304.0	2.2718893755727872e+18
14305.0	2.271407431588249e+18
14306.0	2.270906480695705e+18
14307.0	2.270420419582361e+18
14308.0	2.2699353130926077e+18
14309.0	2.2694418062508027e+18
14310.0	2.2689064251555837e+18
14311.0	2.2684502727852027e+18
14312.0	2.2679561133096955e+18
14313.0	2.2674540333105142e+18
14314.0	2.266996023702323e+18
14315.0	2.2665081489719293e+18
14316.0	2.2659899980775421e+18
14317.0	2.265524262561382e+18
14318.0	2.2650436137779195e+18
14319.0	2.264556052781465e+18
14320.0	2.2640673559674877e+18
14321.0	2.2635789946978301e+18
14322.0	2.263067230889574e+18
14323.0	2.262588781599129e+18
14324.0	2.2621141860351995e+18
14325.0	2.261618759879884e+18
14326.0	2.2611382822240256e+18
14327.0	2.2606455572004856e+18
14328.0	2.2601586924584952e+18
14329.0	2.2596746781655037e+18
14330.0	2.2591870097948672e+18
14331.0	2.258699245794099e+18
14332.0	2.2582118458589176e+18
14333.0	2.257541280668057e+18
14334.0	2.2569150073274365e+18
14335.0	2.2564201515974648e+18
14336.0	2.2559170481881083e+18
14337.0	2.2554502808731643e+18
14338.0	2.2549616226467837e+18
14339.0	2.254466642765414e+18
14340.0	2.253986993904025e+18
14341.0	2.2534988138283003e+18
14342.0	2.2530120984035323e+18
14343.0	2.2525227103682555e+18
14344.0	2.252033308911206e+18
14345.0	2.2515499690622973e+18
14346.0	2.251061138030592e+18
14347.0	2.2505683828080637e+18
14348.0	2.250087759190425e+18
14349.0	2.2496017131765757e+18
14350.0	2.2490989285343227e+18
14351.0	2.2486082922741757e+18
14352.0	2.248136384420249e+18
14353.0	2.2476548900651008e+18
14354.0	2.2471669415149565e+18
14355.0	2.246677228001689e+18
14356.0	2.2461921013792765e+18
14357.0	2.2457107747962877e+18
14358.0	2.2452248864882685e+18
14359.0	2.2447273195601915e+18
14360.0	2.244251653609881e+18
14361.0	2.2437665706082296e+18
14362.0	2.2432815144501248e+18
14363.0	2.2427952201334784e+18
14364.0	2.2422601947152384e+18
14365.0	2.2418086644678648e+18
14366.0	2.2413311396020221e+18
14367.0	2.2408546851225592e+18
14368.0	2.2403693672398845e+18
14369.0	2.2398846684364795e+18
14370.0	2.2390608282779645e+18
14371.0	2.2385496298618875e+18
14372.0	2.238060386110668e+18
14373.0	2.2375780663164928e+18
14374.0	2.2370927048130555e+18
14375.0	2.2366072225136637e+18
14376.0	2.236121825778073e+18
14377.0	2.2356361253748733e+18
14378.0	2.2351496817410045e+18
14379.0	2.2346660499685373e+18
14380.0	2.234180248902041e+18
14381.0	2.2336878644559872e+18
14382.0	2.233209973846835e+18
14383.0	2.2327234043838461e+18
14384.0	2.2322279832616952e+18
14385.0	2.2317569495007227e+18
14386.0	2.2312616995061757e+18
14387.0	2.2307877632868347e+18
14388.0	2.2303025762664443e+18
14389.0	2.2298188840959992e+18
14390.0	2.2293339051130877e+18
14391.0	2.2288508823535608e+18
14392.0	2.22836613489623e+18
14393.0	2.227882964497203e+18
14394.0	2.227373158590054e+18
14395.0	2.2269072519462904e+18
14396.0	2.2264310306701304e+18
14397.0	2.2259473485660155e+18
14398.0	2.225463003761868e+18
14399.0	2.2249793753448443e+18
14400.0	2.224485073263001e+18
14401.0	2.224005845509734e+18
14402.0	2.2235187307872248e+18
14403.0	2.2222392566743025e+18
14404.0	2.2198582140469233e+18
14405.0	2.2211855971778542e+18
14406.0	2.2215803264827392e+18
14407.0	2.2200680080998403e+18
14408.0	2.220597059151462e+18
14409.0	2.2201352713142264e+18
14410.0	2.2196318407491581e+18
14411.0	2.218855062359244e+18
14412.0	2.2183707292991483e+18
14413.0	2.2178894245265403e+18
14414.0	2.217404505941606e+18
14415.0	2.2169218053046267e+18
14416.0	2.2164379067744256e+18
14417.0	2.2159497266987005e+18
14418.0	2.2154640564944893e+18
14419.0	2.21498748960768e+18
14420.0	2.214501846247014e+18
14421.0	2.214019878774374e+18
14422.0	2.213528435530137e+18
14423.0	2.213005028333977e+18
14424.0	2.208279292595402e+18
14425.0	2.212030614339583e+18
14426.0	2.2116010135912443e+18
14427.0	2.2111250070634493e+18
14428.0	2.210628896397721e+18
14429.0	2.210159974888243e+18
14430.0	2.209679185176166e+18
14431.0	2.209113277936435e+18
14432.0	2.2087035615444984e+18
14433.0	2.2074423527866363e+18
14434.0	2.2077353114992632e+18
14435.0	2.2072575400083453e+18
14436.0	2.2067887292284928e+18
14437.0	2.2063076039720955e+18
14438.0	2.2058022138281981e+18
14439.0	2.2053358005125117e+18
14440.0	2.20486322660311e+18
14441.0	2.2043793901486075e+18
14442.0	2.2038957600538621e+18
14443.0	2.2033912742019067e+18
14444.0	2.202934185662873e+18
14445.0	2.2024505757007867e+18
14446.0	2.200826744196301e+18
14447.0	2.2014652498051067e+18
14448.0	2.201012499854131e+18
14449.0	2.2005332419018747e+18
14450.0	2.2000484994777083e+18
14451.0	2.1995706390675448e+18
14452.0	2.1990877085827067e+18
14453.0	2.198598085666406e+18
14454.0	2.1981283336847355e+18
14455.0	2.1976423514243064e+18
14456.0	2.1971640699060221e+18
14457.0	2.1966822819495933e+18
14458.0	2.19620397023232e+18
14459.0	2.1957217175470075e+18
14460.0	2.194959370918297e+18
14461.0	2.1943620567302144e+18
14462.0	2.193882983327334e+18
14463.0	2.1934082065694715e+18
14464.0	2.1929325859176443e+18
14465.0	2.1924419312025595e+18
14466.0	2.1919706860486653e+18
14467.0	2.1914724799086587e+18
14468.0	2.191009463979212e+18
14469.0	2.19051624235008e+18
14470.0	2.1900334561492987e+18
14471.0	2.189565514429235e+18
14472.0	2.189086650741555e+18
14473.0	2.188611951158886e+18
14474.0	2.1881317939478523e+18
14475.0	2.187648868496179e+18
14476.0	2.187121709914521e+18
14477.0	2.1866902401843195e+18
14478.0	2.186210614811033e+18
14479.0	2.1857302613065723e+18
14480.0	2.1852384825180155e+18
14481.0	2.1847703730257915e+18
14482.0	2.1842874358300667e+18
14483.0	2.1838037033943037e+18
14484.0	2.1833203182469115e+18
14485.0	2.1828229325127677e+18
14486.0	2.1821837608484861e+18
14487.0	2.1818879986630656e+18
14488.0	2.1814028988841976e+18
14489.0	2.1809237315289085e+18
14490.0	2.1804499362381821e+18
14491.0	2.179971361118617e+18
14492.0	2.179493025913241e+18
14493.0	2.1790098639028221e+18
14494.0	2.1785194725900283e+18
14495.0	2.17805155771351e+18
14496.0	2.177490686994022e+18
14497.0	2.1770938471153661e+18
14498.0	2.1766161980981245e+18
14499.0	2.176137017321062e+18
14500.0	2.1756569406406656e+18
14501.0	2.1751485742186493e+18
14502.0	2.1745613179715581e+18
14503.0	2.1742072281169915e+18
14504.0	2.1737354360258555e+18
14505.0	2.1732323628154875e+18
14506.0	2.1727306166829048e+18
14507.0	2.1721496183373821e+18
14508.0	2.171823209211494e+18
14509.0	2.171346182628966e+18
14510.0	2.170867600798515e+18
14511.0	2.1703881431973885e+18
14512.0	2.169900033585971e+18
14513.0	2.1694295736057848e+18
14514.0	2.1689303121788925e+18
14515.0	2.1684666402603003e+18
14516.0	2.1664816087171077e+18
14517.0	2.1671715297820667e+18
14518.0	2.1667082403839995e+18
14519.0	2.1662299907424253e+18
14520.0	2.1657505885061115e+18
14521.0	2.1652707148300283e+18
14522.0	2.1647895744741373e+18
14523.0	2.1642510610726904e+18
14524.0	2.163772041356902e+18
14525.0	2.1633475543039995e+18
14526.0	2.162872418513715e+18
14527.0	2.1623768396857336e+18
14528.0	2.1618409317859325e+18
14529.0	2.161426304702873e+18
14530.0	2.1609425840111616e+18
14531.0	2.1604718908276733e+18
14532.0	2.1599245358333952e+18
14533.0	2.1595127340335101e+18
14534.0	2.1590370966044664e+18
14535.0	2.1585498426310653e+18
14536.0	2.1580752705552381e+18
14537.0	2.1575914693328893e+18
14538.0	2.157119858435686e+18
14539.0	2.1566406826917883e+18
14540.0	2.156161179792179e+18
14541.0	2.1556643946823675e+18
14542.0	2.1551988437155837e+18
14543.0	2.154678994966937e+18
14544.0	2.1542376199684096e+18
14545.0	2.153744366462566e+18
14546.0	2.1487835886387177e+18
14547.0	2.1486617474629599e+18
14548.0	2.1523005024763901e+18
14549.0	2.1517673997271032e+18
14550.0	2.1513613156024315e+18
14551.0	2.1508895402885115e+18
14552.0	2.150410300791193e+18
14553.0	2.149928699061862e+18
14554.0	2.14945340892119e+18
14555.0	2.148973983196774e+18
14556.0	2.148493755521433e+18
14557.0	2.1480151132930043e+18
14558.0	2.1475295554961405e+18
14559.0	2.1460868558487534e+18
14560.0	2.1465693232824317e+18
14561.0	2.1460946002116605e+18
14562.0	2.145603334805913e+18
14563.0	2.1451395739680765e+18
14564.0	2.1446573900693501e+18
14565.0	2.1441835796791296e+18
14566.0	2.1437047780671483e+18
14567.0	2.1432247181639675e+18
14568.0	2.1427391201017853e+18
14569.0	2.1422637527859195e+18
14570.0	2.1415162019839995e+18
14571.0	2.1413046329016315e+18
14572.0	2.140804933589401e+18
14573.0	2.1403173675597824e+18
14574.0	2.1398607169060861e+18
14575.0	2.1393879500587003e+18
14576.0	2.138907777748172e+18
14577.0	2.138429380467097e+18
14578.0	2.1379547161165824e+18
14579.0	2.137477016767692e+18
14580.0	2.1369981665017848e+18
14581.0	2.1362568098480125e+18
14582.0	2.1357261918044155e+18
14583.0	2.1352464221470717e+18
14584.0	2.134758166573875e+18
14585.0	2.1342858527113216e+18
14586.0	2.1338042191052792e+18
14587.0	2.1333254728581115e+18
14588.0	2.1328463659007995e+18
14589.0	2.1323726763065344e+18
14590.0	2.1318993809768445e+18
14591.0	2.1314252031655933e+18
14592.0	2.1309463847763963e+18
14593.0	2.13040447398871e+18
14594.0	2.1300030556078075e+18
14595.0	2.1295267319906301e+18
14596.0	2.1290113107492861e+18
14597.0	2.1285312995000317e+18
14598.0	2.1281035777998843e+18
14599.0	2.1276357468094461e+18
14600.0	2.1271616377847803e+18
14601.0	2.1266879079251965e+18
14602.0	2.1262129969496061e+18
14603.0	2.1257391613935608e+18
14604.0	2.125239495635763e+18
14605.0	2.1247856501325821e+18
14606.0	2.124279135915212e+18
14607.0	2.1238390359851003e+18
14608.0	2.1233684132659195e+18
14609.0	2.1228912675651581e+18
14610.0	2.1224179755909112e+18
14611.0	2.1219438900543483e+18
14612.0	2.1214725912133624e+18
14613.0	2.120998968727961e+18
14614.0	2.1205227675844605e+18
14615.0	2.1200501282439163e+18
14616.0	2.119575801115443e+18
14617.0	2.1191006502256637e+18
14618.0	2.1186209845870587e+18
14619.0	2.1181032095023096e+18
14620.0	2.1175571446759421e+18
14621.0	2.117199902382489e+18
14622.0	2.1167240669822973e+18
14623.0	2.116250961235148e+18
14624.0	2.1157394339856384e+18
14625.0	2.1152975657369595e+18
14626.0	2.1148243794591744e+18
14627.0	2.114346861304217e+18
14628.0	2.1138754030796795e+18
14629.0	2.113399826048614e+18
14630.0	2.1129233078157304e+18
14631.0	2.1124466218106875e+18
14632.0	2.111640234989977e+18
14633.0	2.1114379286085624e+18
14634.0	2.1110178405416955e+18
14635.0	2.1105352103690237e+18
14636.0	2.1100421061804027e+18
14637.0	2.1095927636819965e+18
14638.0	2.1091132423274493e+18
14639.0	2.1086303839846397e+18
14640.0	2.1081466884587517e+18
14641.0	2.1063628643893238e+18
14642.0	2.1071915011538944e+18
14643.0	2.1067301528797181e+18
14644.0	2.10624637346775e+18
14645.0	2.1057640150859768e+18
14646.0	2.105292675979673e+18
14647.0	2.1048141528694781e+18
14648.0	2.1043435452497915e+18
14649.0	2.1038690486714365e+18
