# Flux units: erg / (cm m2 s)
# Wavelength units: Angstrom
wave	flux
14000.0	1.896315025883136e+18
14001.0	1.896044124176384e+18
14002.0	1.8958219770593275e+18
14003.0	1.8954745393709053e+18
14004.0	1.8951246488535035e+18
14005.0	1.8947736124522493e+18
14006.0	1.8944152511184893e+18
14007.0	1.8940609867808765e+18
14008.0	1.8936357632081917e+18
14009.0	1.8933534899044347e+18
14010.0	1.8929939440992253e+18
14011.0	1.8920637967892475e+18
14012.0	1.8922972316172283e+18
14013.0	1.8919648464470013e+18
14014.0	1.8916104780906493e+18
14015.0	1.8912646409486333e+18
14016.0	1.8909160540209152e+18
14017.0	1.890566260811366e+18
14018.0	1.890212113914265e+18
14019.0	1.889865895929446e+18
14020.0	1.8895150205894656e+18
14021.0	1.889164202292019e+18
14022.0	1.888813548411289e+18
14023.0	1.8884524674908152e+18
14024.0	1.8881030131810304e+18
14025.0	1.8877648230940672e+18
14026.0	1.8874142564548603e+18
14027.0	1.8870652266086397e+18
14028.0	1.8867074893873147e+18
14029.0	1.8863505591500797e+18
14030.0	1.885352982531277e+18
14031.0	1.8855521582841853e+18
14032.0	1.8853108381646843e+18
14033.0	1.8849266818613245e+18
14034.0	1.884619808125747e+18
14035.0	1.884272763024179e+18
14036.0	1.883924667668889e+18
14037.0	1.8835763005227003e+18
14038.0	1.8832278612344824e+18
14039.0	1.88287510684631e+18
14040.0	1.8825281288536061e+18
14041.0	1.882181139116851e+18
14042.0	1.8818238146150397e+18
14043.0	1.8814490770407421e+18
14044.0	1.881124073845555e+18
14045.0	1.880783717820006e+18
14046.0	1.8804367750594555e+18
14047.0	1.880085304128307e+18
14048.0	1.879745154462515e+18
14049.0	1.8793983090098168e+18
14050.0	1.8790505978527736e+18
14051.0	1.8786959392505853e+18
14052.0	1.8783504158425083e+18
14053.0	1.8780081237262333e+18
14054.0	1.8776609511178237e+18
14055.0	1.8773136845570043e+18
14056.0	1.876966470005555e+18
14057.0	1.8766193661837307e+18
14058.0	1.8762722791391227e+18
14059.0	1.8759217208885245e+18
14060.0	1.875578214101811e+18
14061.0	1.8752249094209533e+18
14062.0	1.87488341590016e+18
14063.0	1.8745208015421437e+18
14064.0	1.8740523900600315e+18
14065.0	1.873835405292339e+18
14066.0	1.8734981966725115e+18
14067.0	1.8731500073648128e+18
14068.0	1.8728058814988283e+18
14069.0	1.8724585662840832e+18
14070.0	1.872113192193228e+18
14071.0	1.8717648971890683e+18
14072.0	1.871421694069964e+18
14073.0	1.8710758032408576e+18
14074.0	1.8707298033598461e+18
14075.0	1.870365712606822e+18
14076.0	1.8700322385952765e+18
14077.0	1.8695403725651965e+18
14078.0	1.8693277012197376e+18
14079.0	1.8689910311485437e+18
14080.0	1.8686559280693243e+18
14081.0	1.8683111428587515e+18
14082.0	1.867965191631667e+18
14083.0	1.867617903260467e+18
14084.0	1.8672649811001341e+18
14085.0	1.866664199061504e+18
14086.0	1.8665549173096445e+18
14087.0	1.8662353532878845e+18
14088.0	1.8658837397503997e+18
14089.0	1.8655500224692224e+18
14090.0	1.8652068713594877e+18
14091.0	1.8648636665626621e+18
14092.0	1.864519562507059e+18
14093.0	1.8641751765942264e+18
14094.0	1.8638304568147963e+18
14095.0	1.863484208630988e+18
14096.0	1.8631216227942397e+18
14097.0	1.8627736247468032e+18
14098.0	1.8624441906888704e+18
14099.0	1.8621088627949565e+18
14100.0	1.8617555950239744e+18
14101.0	1.861423864165171e+18
14102.0	1.8610801694736381e+18
14103.0	1.8607223718543355e+18
14104.0	1.8603906795831293e+18
14105.0	1.860050446031257e+18
14106.0	1.8597071741255677e+18
14107.0	1.8593607162265597e+18
14108.0	1.859008683258675e+18
14109.0	1.8586733150994427e+18
14110.0	1.8583323500609533e+18
14111.0	1.8579840701562877e+18
14112.0	1.8576388554489853e+18
14113.0	1.8573035644649464e+18
14114.0	1.8569451947425787e+18
14115.0	1.856607125451571e+18
14116.0	1.8561926158090237e+18
14117.0	1.8546943953207296e+18
14118.0	1.8555511355998205e+18
14119.0	1.855219715119513e+18
14120.0	1.8548897358020605e+18
14121.0	1.8545475963584512e+18
14122.0	1.8542108726001661e+18
14123.0	1.853868063745638e+18
14124.0	1.853507283137331e+18
14125.0	1.8527728118530043e+18
14126.0	1.8528387429564416e+18
14127.0	1.8525115989884925e+18
14128.0	1.852171328526745e+18
14129.0	1.8518197317664763e+18
14130.0	1.851467786040115e+18
14131.0	1.8511460963450877e+18
14132.0	1.850779650070937e+18
14133.0	1.8499712634060792e+18
14134.0	1.8500989967400955e+18
14135.0	1.849768354722611e+18
14136.0	1.8494373905825787e+18
14137.0	1.8490975814942715e+18
14138.0	1.848753834793369e+18
14139.0	1.8484195756081147e+18
14140.0	1.8480760721768443e+18
14141.0	1.8477143302340605e+18
14142.0	1.8473439866126333e+18
14143.0	1.8470525361717245e+18
14144.0	1.8467190923591677e+18
14145.0	1.8463786121822205e+18
14146.0	1.8460373266989056e+18
14147.0	1.8456999117193216e+18
14148.0	1.845360030488985e+18
14149.0	1.8450207817596925e+18
14150.0	1.844682096744857e+18
14151.0	1.8443389187915768e+18
14152.0	1.8440030657708024e+18
14153.0	1.8436634043219963e+18
14154.0	1.84329773818839e+18
14155.0	1.842967128047616e+18
14156.0	1.8426427707752445e+18
14157.0	1.8423050185736187e+18
14158.0	1.8419627499454461e+18
14159.0	1.8416259976658941e+18
14160.0	1.8412704700039165e+18
14161.0	1.840896854825369e+18
14162.0	1.8405124166647805e+18
14163.0	1.840258693149491e+18
14164.0	1.839895575474995e+18
14165.0	1.8395709296345088e+18
14166.0	1.839251389100851e+18
14167.0	1.8389014096642045e+18
14168.0	1.838575195154022e+18
14169.0	1.8382403017900024e+18
14170.0	1.8378993468178427e+18
14171.0	1.837561057745305e+18
14172.0	1.8372252567339008e+18
14173.0	1.8368698951663616e+18
14174.0	1.836541863683686e+18
14175.0	1.8362117686034427e+18
14176.0	1.8358743754342397e+18
14177.0	1.8355367054409725e+18
14178.0	1.8351985287757821e+18
14179.0	1.8348575217942523e+18
14180.0	1.834523760892313e+18
14181.0	1.8341862016286715e+18
14182.0	1.833847892423475e+18
14183.0	1.8335104824770555e+18
14184.0	1.8331671367516155e+18
14185.0	1.8328244604370941e+18
14186.0	1.8322868093845496e+18
14187.0	1.8321112710512637e+18
14188.0	1.83181805396951e+18
14189.0	1.831485928846131e+18
14190.0	1.8311495842529275e+18
14191.0	1.8308117682978816e+18
14192.0	1.8304672313901053e+18
14193.0	1.8301093045862397e+18
14194.0	1.829802434206105e+18
14195.0	1.8294693410373624e+18
14196.0	1.8291332917231608e+18
14197.0	1.8287970058502141e+18
14198.0	1.8284560290676733e+18
14199.0	1.828117458137907e+18
14200.0	1.8276612806017024e+18
14201.0	1.827425387911577e+18
14202.0	1.8271132696182784e+18
14203.0	1.8267759569797117e+18
14204.0	1.8264420249501696e+18
14205.0	1.8261033751674875e+18
14206.0	1.825659554050867e+18
14207.0	1.825429729679769e+18
14208.0	1.825098857814425e+18
14209.0	1.824644371421593e+18
14210.0	1.8243333587468285e+18
14211.0	1.8240870088179707e+18
14212.0	1.8237612372262907e+18
14213.0	1.8234275518218235e+18
14214.0	1.8230917524881403e+18
14215.0	1.822746185459302e+18
14216.0	1.822423698846515e+18
14217.0	1.8220891460599803e+18
14218.0	1.8217420422381563e+18
14219.0	1.82141970326487e+18
14220.0	1.8210833955815421e+18
14221.0	1.8207495021395965e+18
14222.0	1.8204033848180733e+18
14223.0	1.8200796147482621e+18
14224.0	1.8197392167796733e+18
14225.0	1.8189837588758528e+18
14226.0	1.8190426771030008e+18
14227.0	1.8187318489776123e+18
14228.0	1.8172872149172224e+18
14229.0	1.817781597529701e+18
14230.0	1.817736143018393e+18
14231.0	1.8174042343211005e+18
14232.0	1.817048446612275e+18
14233.0	1.816700151608115e+18
14234.0	1.8163682361999355e+18
14235.0	1.8160323831791613e+18
14236.0	1.815700664064409e+18
14237.0	1.8153647959441403e+18
14238.0	1.8150283959861245e+18
14239.0	1.814667783149977e+18
14240.0	1.8127811550117888e+18
14241.0	1.8139748421861368e+18
14242.0	1.813678432400179e+18
14243.0	1.8132290227929085e+18
14244.0	1.813030890582835e+18
14245.0	1.812694225544806e+18
14246.0	1.8123631640969213e+18
14247.0	1.8120329163440125e+18
14248.0	1.8116896125616123e+18
14249.0	1.811368548656742e+18
14250.0	1.8110133968044024e+18
14251.0	1.81066634666967e+18
14252.0	1.810333231690547e+18
14253.0	1.809998480932864e+18
14254.0	1.809661304189747e+18
14255.0	1.809284108753305e+18
14256.0	1.8085875254558717e+18
14257.0	1.8085373783572472e+18
14258.0	1.808327314191155e+18
14259.0	1.8079818746691584e+18
14260.0	1.8076522711613437e+18
14261.0	1.8073131046404093e+18
14262.0	1.807004975969075e+18
14263.0	1.8060881296359424e+18
14264.0	1.8060743857405947e+18
14265.0	1.8060133049303035e+18
14266.0	1.8057038223376381e+18
14267.0	1.8053767370899453e+18
14268.0	1.805046762805657e+18
14269.0	1.8047064722112507e+18
14270.0	1.804352477986816e+18
14271.0	1.8040058003062781e+18
14272.0	1.8036655264890875e+18
14273.0	1.803283400228864e+18
14274.0	1.8019850433593344e+18
14275.0	1.8024654522286077e+18
14276.0	1.802319971955507e+18
14277.0	1.8020110866317307e+18
14278.0	1.80169162662871e+18
14279.0	1.801361603690496e+18
14280.0	1.8010286145404925e+18
14281.0	1.8007045508694008e+18
14282.0	1.800374875219558e+18
14283.0	1.800044682831462e+18
14284.0	1.7997142975053821e+18
14285.0	1.7993835581800448e+18
14286.0	1.7990522064863227e+18
14287.0	1.798719601534566e+18
14288.0	1.7983679108218877e+18
14289.0	1.797044267332402e+18
14290.0	1.7977098345906176e+18
14291.0	1.797398724608e+18
14292.0	1.7970692653842427e+18
14293.0	1.7967008091996155e+18
14294.0	1.7962446014644221e+18
14295.0	1.79600125633495e+18
14296.0	1.7949067275403267e+18
14297.0	1.7953204939522043e+18
14298.0	1.7948204423184381e+18
14299.0	1.7946910060969981e+18
14300.0	1.7943821862043648e+18
14301.0	1.79405863256064e+18
14302.0	1.7937318342033405e+18
14303.0	1.7933667837935613e+18
14304.0	1.7930580310097915e+18
14305.0	1.7927432199733248e+18
14306.0	1.792407934022451e+18
14307.0	1.7920771695312893e+18
14308.0	1.7917513375416315e+18
14309.0	1.7914159089844221e+18
14310.0	1.7910622368825341e+18
14311.0	1.790719738406502e+18
14312.0	1.790396478364057e+18
14313.0	1.7899927967367165e+18
14314.0	1.7897778940215293e+18
14315.0	1.7894511510290427e+18
14316.0	1.7890837098659835e+18
14317.0	1.788792314789888e+18
14318.0	1.7884491552915453e+18
14319.0	1.7881044455784443e+18
14320.0	1.7877768771469312e+18
14321.0	1.7874458391871485e+18
14322.0	1.7870889559261181e+18
14323.0	1.786771626629529e+18
14324.0	1.7864668265578493e+18
14325.0	1.7861300222689275e+18
14326.0	1.7858130503270397e+18
14327.0	1.785478338156953e+18
14328.0	1.7851522226323453e+18
14329.0	1.7848310295429115e+18
14330.0	1.78450388221952e+18
14331.0	1.7841764748492797e+18
14332.0	1.7838495288524797e+18
14333.0	1.7835223815290875e+18
14334.0	1.7831949338935293e+18
14335.0	1.7828544067403776e+18
14336.0	1.7824967617937403e+18
14337.0	1.782210015684198e+18
14338.0	1.7818845628596221e+18
14339.0	1.781548845734297e+18
14340.0	1.7812332226805755e+18
14341.0	1.7809060350918653e+18
14342.0	1.780578283788697e+18
14343.0	1.780253183285657e+18
14344.0	1.779921779582566e+18
14345.0	1.7795999472812027e+18
14346.0	1.7792349287481344e+18
14347.0	1.7788874424057853e+18
14348.0	1.7785718914940923e+18
14349.0	1.778247213776896e+18
14350.0	1.777884577608499e+18
14351.0	1.777553457440358e+18
14352.0	1.777259389753753e+18
14353.0	1.776942785232896e+18
14354.0	1.7766139853537275e+18
14355.0	1.7762802915606523e+18
14356.0	1.77595659363287e+18
14357.0	1.7756420459986936e+18
14358.0	1.775317210575667e+18
14359.0	1.7749755912257533e+18
14360.0	1.7746632078524413e+18
14361.0	1.7743386660306941e+18
14362.0	1.774014426198835e+18
14363.0	1.7736858343571453e+18
14364.0	1.7732597702459387e+18
14365.0	1.7729901553516541e+18
14366.0	1.7726911534858237e+18
14367.0	1.7723889169727485e+18
14368.0	1.7720644842029053e+18
14369.0	1.7717403383234555e+18
14370.0	1.7714157545586685e+18
14371.0	1.7710912211255293e+18
14372.0	1.7707608592875515e+18
14373.0	1.7704405470019581e+18
14374.0	1.7701169547706363e+18
14375.0	1.769790456725504e+18
14376.0	1.76946829894615e+18
14377.0	1.7691432051539965e+18
14378.0	1.768785095478476e+18
14379.0	1.7684472929452027e+18
14380.0	1.7681218988408827e+18
14381.0	1.767786367942656e+18
14382.0	1.7674726189039613e+18
14383.0	1.7671486374412285e+18
14384.0	1.7668066456371197e+18
14385.0	1.7665019160297472e+18
14386.0	1.7661586676121597e+18
14387.0	1.765853417911091e+18
14388.0	1.7655263225970688e+18
14389.0	1.7652049348919293e+18
14390.0	1.7648800776585213e+18
14391.0	1.7645581866369021e+18
14392.0	1.7642339518382075e+18
14393.0	1.763910935065395e+18
14394.0	1.7635461212143613e+18
14395.0	1.763252650796646e+18
14396.0	1.7629397641068541e+18
14397.0	1.7626160561127421e+18
14398.0	1.7622918901006333e+18
14399.0	1.7619674137100285e+18
14400.0	1.761624564590182e+18
14401.0	1.7613075892928504e+18
14402.0	1.7609744910909435e+18
14403.0	1.760301723051622e+18
14404.0	1.757532641873099e+18
14405.0	1.7581642352689124e+18
14406.0	1.759654399338086e+18
14407.0	1.7589661492838397e+18
14408.0	1.7590235592392696e+18
14409.0	1.7587139021635581e+18
14410.0	1.758405894288179e+18
14411.0	1.7580915949567997e+18
14412.0	1.7577685211414523e+18
14413.0	1.7574503747944443e+18
14414.0	1.7571260829532152e+18
14415.0	1.7567542797139965e+18
14416.0	1.75642700152832e+18
14417.0	1.7560996595892221e+18
14418.0	1.7557739819499517e+18
14419.0	1.7554570938941437e+18
14420.0	1.7551309028720635e+18
14421.0	1.7548110351826941e+18
14422.0	1.7544763884437504e+18
14423.0	1.754100600615731e+18
14424.0	1.7522016932331512e+18
14425.0	1.7534526863441915e+18
14426.0	1.753194458146406e+18
14427.0	1.752879895412736e+18
14428.0	1.7525360681811968e+18
14429.0	1.7522363952267256e+18
14430.0	1.7519072866467837e+18
14431.0	1.751402404852531e+18
14432.0	1.7512584462729213e+18
14433.0	1.7506337063698427e+18
14434.0	1.7506046901747707e+18
14435.0	1.75028770481111e+18
14436.0	1.7499890049351677e+18
14437.0	1.7496704324468733e+18
14438.0	1.7493266823905275e+18
14439.0	1.7490200368250875e+18
14440.0	1.74870787826647e+18
14441.0	1.7483779023044603e+18
14442.0	1.7480505133891581e+18
14443.0	1.7476896405061627e+18
14444.0	1.7474126872575997e+18
14445.0	1.7470862865203197e+18
14446.0	1.745749575257293e+18
14447.0	1.746396477862707e+18
14448.0	1.7461366038200317e+18
14449.0	1.7458208499040253e+18
14450.0	1.7454950615351293e+18
14451.0	1.7451772977086461e+18
14452.0	1.744859943246233e+18
14453.0	1.7445372200747003e+18
14454.0	1.7442191592914941e+18
14455.0	1.7438901463416832e+18
14456.0	1.7435307095883776e+18
14457.0	1.743205736592179e+18
14458.0	1.7428858571587581e+18
14459.0	1.7425615183413248e+18
14460.0	1.742235129348096e+18
14461.0	1.7418882822176763e+18
14462.0	1.7415610493304827e+18
14463.0	1.7412650841407488e+18
14464.0	1.7409581298745344e+18
14465.0	1.7406205605445627e+18
14466.0	1.7403241021046781e+18
14467.0	1.739987923605913e+18
14468.0	1.7396838684426237e+18
14469.0	1.7393403197128696e+18
14470.0	1.7390196114849787e+18
14471.0	1.7387235540205563e+18
14472.0	1.7384091070496765e+18
14473.0	1.738094614780313e+18
14474.0	1.7377789296508923e+18
14475.0	1.737457541945753e+18
14476.0	1.7371224321556477e+18
14477.0	1.736820932162355e+18
14478.0	1.7365002356785144e+18
14479.0	1.7361811732955133e+18
14480.0	1.7358456658853885e+18
14481.0	1.7355462177456125e+18
14482.0	1.7352217950420987e+18
14483.0	1.7348979897401341e+18
14484.0	1.7345689885343741e+18
14485.0	1.7342162777669627e+18
14486.0	1.7336554389241856e+18
14487.0	1.733623174660096e+18
14488.0	1.733308111965388e+18
14489.0	1.732979176190771e+18
14490.0	1.7326716548546552e+18
14491.0	1.7323589359370237e+18
14492.0	1.7320425914630144e+18
14493.0	1.7317137160863741e+18
14494.0	1.7313812990394368e+18
14495.0	1.7310756466851835e+18
14496.0	1.730639717570969e+18
14497.0	1.730445296481075e+18
14498.0	1.7301328594206715e+18
14499.0	1.729815218067865e+18
14500.0	1.7294959426142205e+18
14501.0	1.7291533266976763e+18
14502.0	1.7286386906300416e+18
14503.0	1.728523112389017e+18
14504.0	1.7282165372878843e+18
14505.0	1.7278755839934461e+18
14506.0	1.727509599092736e+18
14507.0	1.7269795867066365e+18
14508.0	1.7268970075717632e+18
14509.0	1.7265861492473853e+18
14510.0	1.7262667529977853e+18
14511.0	1.7259508212432893e+18
14512.0	1.7256206909308928e+18
14513.0	1.7253106765004797e+18
14514.0	1.724962950243942e+18
14515.0	1.7246396012822525e+18
14516.0	1.7217459190759437e+18
14517.0	1.7239336277770237e+18
14518.0	1.7237180036415488e+18
14519.0	1.7234105158598656e+18
14520.0	1.7230950370902013e+18
14521.0	1.722779689182822e+18
14522.0	1.7224613280874493e+18
14523.0	1.7221191903215616e+18
14524.0	1.721807097194086e+18
14525.0	1.7215063404314621e+18
14526.0	1.721191849839821e+18
14527.0	1.7208397799620605e+18
14528.0	1.7204319275188221e+18
14529.0	1.7202319867248637e+18
14530.0	1.7199107181379581e+18
14531.0	1.7196093792059387e+18
14532.0	1.7192736822132733e+18
14533.0	1.7189776163602427e+18
14534.0	1.718664137434726e+18
14535.0	1.7183354449297403e+18
14536.0	1.7180259791142907e+18
14537.0	1.7177010245730296e+18
14538.0	1.7173978653130747e+18
14539.0	1.7170820090560507e+18
14540.0	1.716765334070886e+18
14541.0	1.7164236761333757e+18
14542.0	1.716127900526182e+18
14543.0	1.7157889017774077e+18
14544.0	1.7154906448199677e+18
14545.0	1.7151481178226685e+18
14546.0	1.7125559758749683e+18
14547.0	1.7122883725688817e+18
14548.0	1.714182125990707e+18
14549.0	1.7137881113952253e+18
14550.0	1.7135832984977403e+18
14551.0	1.713286127026176e+18
14552.0	1.7129704754511872e+18
14553.0	1.7126482723733504e+18
14554.0	1.7123413466284027e+18
14555.0	1.7120249820217336e+18
14556.0	1.7117074379767803e+18
14557.0	1.7113865871425533e+18
14558.0	1.7110315325980672e+18
14559.0	1.7088152757862374e+18
14560.0	1.7103958573055997e+18
14561.0	1.7101104768614397e+18
14562.0	1.7097360865755133e+18
14563.0	1.7094454028533757e+18
14564.0	1.7091250939232253e+18
14565.0	1.7088216947490813e+18
14566.0	1.708507324953395e+18
14567.0	1.7081907892191224e+18
14568.0	1.7078673765040123e+18
14569.0	1.7075435040931837e+18
14570.0	1.7067093627240448e+18
14571.0	1.706915561419571e+18
14572.0	1.706573388421529e+18
14573.0	1.7062436221747195e+18
14574.0	1.7059659139514365e+18
14575.0	1.7056609091977216e+18
14576.0	1.7053436520431613e+18
14577.0	1.7050327047995387e+18
14578.0	1.7047234218557435e+18
14579.0	1.7044120384045053e+18
14580.0	1.704097509225267e+18
14581.0	1.703778775675699e+18
14582.0	1.7034631912095736e+18
14583.0	1.703151933587456e+18
14584.0	1.7028231420968957e+18
14585.0	1.702521070000537e+18
14586.0	1.702205693571891e+18
14587.0	1.7018935903780867e+18
14588.0	1.7015795594821624e+18
14589.0	1.7012662567174141e+18
14590.0	1.7009527559815165e+18
14591.0	1.7006375959789568e+18
14592.0	1.700309386657792e+18
14593.0	1.6998958702264315e+18
14594.0	1.6996901144494077e+18
14595.0	1.6993748386840576e+18
14596.0	1.6989582486667256e+18
14597.0	1.6986229560049661e+18
14598.0	1.6984275366707195e+18
14599.0	1.6981319959445496e+18
14600.0	1.6978189314162685e+18
14601.0	1.69750587024343e+18
14602.0	1.6971889335336957e+18
14603.0	1.6968772229267453e+18
14604.0	1.6965227572625405e+18
14605.0	1.6962351370600443e+18
14606.0	1.6958523682324475e+18
14607.0	1.6956214013329405e+18
14608.0	1.6953096471052285e+18
14609.0	1.6949945223348221e+18
14610.0	1.6946752301039616e+18
14611.0	1.694364349969203e+18
14612.0	1.6940649236398077e+18
14613.0	1.6937545803759613e+18
14614.0	1.6934362679345147e+18
14615.0	1.6931278171406333e+18
14616.0	1.6928181416099835e+18
14617.0	1.692497138103091e+18
14618.0	1.69217608426455e+18
14619.0	1.6917405125050365e+18
14620.0	1.6913072023142397e+18
14621.0	1.691246354707251e+18
14622.0	1.6909385666134013e+18
14623.0	1.690629372588851e+18
14624.0	1.6902645822259197e+18
14625.0	1.6899998696341507e+18
14626.0	1.6896835637477376e+18
14627.0	1.6893319334330363e+18
14628.0	1.6890248013283323e+18
14629.0	1.6887123189694461e+18
14630.0	1.6883961187794944e+18
14631.0	1.6880830374739965e+18
14632.0	1.6876364112068603e+18
14633.0	1.687429922265497e+18
14634.0	1.68714636886016e+18
14635.0	1.6868191410061307e+18
14636.0	1.6864646770196475e+18
14637.0	1.6862138039533565e+18
14638.0	1.685892557176832e+18
14639.0	1.685571347310182e+18
14640.0	1.6852545800503293e+18
14641.0	1.6844418665414653e+18
14642.0	1.6846278302367741e+18
14643.0	1.6843347473727485e+18
14644.0	1.684010965558886e+18
14645.0	1.6836893849157632e+18
14646.0	1.6833860461395965e+18
14647.0	1.683071399519846e+18
14648.0	1.6827683577004032e+18
