# Flux units: erg / (cm m2 s)
# Wavelength units: Angstrom
wave	flux
14000.0	1.7337772062801915e+18
14001.0	1.733290485822259e+18
14002.0	1.7331778033287163e+18
14003.0	1.7328709094604797e+18
14004.0	1.7325634283896824e+18
14005.0	1.7322558667882493e+18
14006.0	1.731937797616435e+18
14007.0	1.73162950117294e+18
14008.0	1.7312071448264704e+18
14009.0	1.7310241238548477e+18
14010.0	1.7307015885881344e+18
14011.0	1.7295478731309056e+18
14012.0	1.7301027946495997e+18
14013.0	1.729797645611827e+18
14014.0	1.72948370531287e+18
14015.0	1.7291809889714176e+18
14016.0	1.7288772576083965e+18
14017.0	1.728570600298905e+18
14018.0	1.7282638423261181e+18
14019.0	1.7279573276229627e+18
14020.0	1.7276498247417853e+18
14021.0	1.7273425332535296e+18
14022.0	1.727036164512153e+18
14023.0	1.7267179812552704e+18
14024.0	1.7264076363137021e+18
14025.0	1.726118616891392e+18
14026.0	1.7258103573577725e+18
14027.0	1.7255067568570365e+18
14028.0	1.7251930665385981e+18
14029.0	1.724890413950566e+18
14030.0	1.724154826981376e+18
14031.0	1.7242551211786237e+18
14032.0	1.7239757570441213e+18
14033.0	1.723619184161587e+18
14034.0	1.7233653163622397e+18
14035.0	1.7230606706409472e+18
14036.0	1.7227553185988605e+18
14037.0	1.7224499665567741e+18
14038.0	1.7221446715572221e+18
14039.0	1.7218342980943867e+18
14040.0	1.7215272196767744e+18
14041.0	1.721226400838451e+18
14042.0	1.7209101117292541e+18
14043.0	1.720563927298867e+18
14044.0	1.7202966696034304e+18
14045.0	1.720003940738662e+18
14046.0	1.7196992178421757e+18
14047.0	1.7193897939697661e+18
14048.0	1.7190934328377341e+18
14049.0	1.7187906024112125e+18
14050.0	1.718486102651699e+18
14051.0	1.718170278271385e+18
14052.0	1.7178725967724541e+18
14053.0	1.7175728164438016e+18
14054.0	1.717268761280512e+18
14055.0	1.716964590354432e+18
14056.0	1.716660437883289e+18
14057.0	1.7163564414402557e+18
14058.0	1.7160524517081085e+18
14059.0	1.715748550895206e+18
14060.0	1.7154446920253437e+18
14061.0	1.71513151005655e+18
14062.0	1.7148371068256253e+18
14063.0	1.7145135817031677e+18
14064.0	1.7141434628964352e+18
14065.0	1.713914697167667e+18
14066.0	1.713623006812569e+18
14067.0	1.7133173192261632e+18
14068.0	1.7130163477151736e+18
14069.0	1.712711433558425e+18
14070.0	1.7124096701628413e+18
14071.0	1.7121027930718205e+18
14072.0	1.711803692220416e+18
14073.0	1.711500715832115e+18
14074.0	1.7111978971496448e+18
14075.0	1.710873372105113e+18
14076.0	1.710589275117977e+18
14077.0	1.7101935928672253e+18
14078.0	1.7099797991260157e+18
14079.0	1.7096715010047997e+18
14080.0	1.7093817702285312e+18
14081.0	1.7090793558769661e+18
14082.0	1.7087746245918715e+18
14083.0	1.7084726095380475e+18
14084.0	1.708171552463257e+18
14085.0	1.7075319160700925e+18
14086.0	1.7075588317577213e+18
14087.0	1.7072658294243328e+18
14088.0	1.706949550381465e+18
14089.0	1.7066599236239357e+18
14090.0	1.7063576317460477e+18
14091.0	1.7060585594159104e+18
14092.0	1.705756901716787e+18
14093.0	1.7054552406622205e+18
14094.0	1.7051536316170237e+18
14095.0	1.7048519521075197e+18
14096.0	1.7045302758342653e+18
14097.0	1.7042304955056125e+18
14098.0	1.7039394577842176e+18
14099.0	1.703646497393868e+18
14100.0	1.7033286161268733e+18
14101.0	1.7030444000215037e+18
14102.0	1.7027408498524152e+18
14103.0	1.7024207372156925e+18
14104.0	1.702137786112409e+18
14105.0	1.7018403478831104e+18
14106.0	1.7015396095754237e+18
14107.0	1.701238284065177e+18
14108.0	1.7009240669421563e+18
14109.0	1.7006313380773885e+18
14110.0	1.7003339770232832e+18
14111.0	1.7000235096080384e+18
14112.0	1.6997262592835581e+18
14113.0	1.6994356644806656e+18
14114.0	1.6991190314385403e+18
14115.0	1.6988328372994043e+18
14116.0	1.6985162814324733e+18
14117.0	1.6974784562724861e+18
14118.0	1.697933100371148e+18
14119.0	1.6976175679143933e+18
14120.0	1.6973252148592635e+18
14121.0	1.6970209214595067e+18
14122.0	1.6967199281381376e+18
14123.0	1.6964277445328893e+18
14124.0	1.6961252496506875e+18
14125.0	1.695227960518246e+18
14126.0	1.695535491920691e+18
14127.0	1.69523754869719e+18
14128.0	1.6949365906079744e+18
14129.0	1.694624361585049e+18
14130.0	1.694313499905228e+18
14131.0	1.6940405731885053e+18
14132.0	1.6937328186490875e+18
14133.0	1.6927302222872556e+18
14134.0	1.6931412640792568e+18
14135.0	1.692827635836518e+18
14136.0	1.6925360629219325e+18
14137.0	1.6922455989813248e+18
14138.0	1.6919403039817725e+18
14139.0	1.6916490800332797e+18
14140.0	1.6913464593219581e+18
14141.0	1.6910474658447357e+18
14142.0	1.69069952148439e+18
14143.0	1.6904521565339643e+18
14144.0	1.6901575704313856e+18
14145.0	1.6898570502275067e+18
14146.0	1.689559019762483e+18
14147.0	1.689261836546867e+18
14148.0	1.688964166791987e+18
14149.0	1.6886672872439803e+18
14150.0	1.688369313821491e+18
14151.0	1.688068102396313e+18
14152.0	1.6877712614359037e+18
14153.0	1.6874757307760637e+18
14154.0	1.6871465232105472e+18
14155.0	1.6868463469395963e+18
14156.0	1.6865794281439232e+18
14157.0	1.686285513129984e+18
14158.0	1.685982780011315e+18
14159.0	1.6856904806432765e+18
14160.0	1.6853867073372157e+18
14161.0	1.6850158033567741e+18
14162.0	1.6846602152968184e+18
14163.0	1.6844987245264893e+18
14164.0	1.6841700068556797e+18
14165.0	1.683851944394752e+18
14166.0	1.683609377728102e+18
14167.0	1.6832961487831037e+18
14168.0	1.6830127195291648e+18
14169.0	1.6827206667862013e+18
14170.0	1.682419903312691e+18
14171.0	1.6821232787783677e+18
14172.0	1.6818308166713344e+18
14173.0	1.6814913112506365e+18
14174.0	1.6812325948358653e+18
14175.0	1.680941703076249e+18
14176.0	1.680645503005491e+18
14177.0	1.6803493297782781e+18
14178.0	1.6800524653297661e+18
14179.0	1.679748643369779e+18
14180.0	1.6794611087310843e+18
14181.0	1.6791651552854016e+18
14182.0	1.6788681767518205e+18
14183.0	1.6785733893226493e+18
14184.0	1.67827087598551e+18
14185.0	1.677981370023936e+18
14186.0	1.6775298162884603e+18
14187.0	1.677357520991027e+18
14188.0	1.6770898220548093e+18
14189.0	1.6767980796903421e+18
14190.0	1.676502909740646e+18
14191.0	1.6762073388154877e+18
14192.0	1.675902632696217e+18
14193.0	1.6755965072244733e+18
14194.0	1.675321090768896e+18
14195.0	1.6750283669372925e+18
14196.0	1.6747329537179648e+18
14197.0	1.674438016971571e+18
14198.0	1.6741359331311613e+18
14199.0	1.6738460580708347e+18
14200.0	1.6734677368831997e+18
14201.0	1.6732558926544893e+18
14202.0	1.6729622594977784e+18
14203.0	1.6726600129183741e+18
14204.0	1.672371340784435e+18
14205.0	1.6720768251461632e+18
14206.0	1.6716206828421123e+18
14207.0	1.671491052004966e+18
14208.0	1.67119760171991e+18
14209.0	1.6707233953873915e+18
14210.0	1.670489400200396e+18
14211.0	1.6703061057601533e+18
14212.0	1.6700202958192637e+18
14213.0	1.669727358917017e+18
14214.0	1.6694325060567037e+18
14215.0	1.6691218641584123e+18
14216.0	1.6688465450106875e+18
14217.0	1.6685528447451133e+18
14218.0	1.6682442832216061e+18
14219.0	1.6679654425362432e+18
14220.0	1.6676722036441085e+18
14221.0	1.6673774615134205e+18
14222.0	1.6670713209421821e+18
14223.0	1.6667916296519677e+18
14224.0	1.6664984125702141e+18
14225.0	1.665936922771456e+18
14226.0	1.6659104969785341e+18
14227.0	1.6656188150120443e+18
14228.0	1.6645381509087235e+18
14229.0	1.6648792417763318e+18
14230.0	1.664700267469209e+18
14231.0	1.6644035338829821e+18
14232.0	1.6641146235125757e+18
14233.0	1.663817614780006e+18
14234.0	1.6635290131103741e+18
14235.0	1.6632328046510077e+18
14236.0	1.6629434647838715e+18
14237.0	1.66264898102231e+18
14238.0	1.6623573242216443e+18
14239.0	1.6620558896594941e+18
14240.0	1.6595052646105098e+18
14241.0	1.661475293967155e+18
14242.0	1.661186531236249e+18
14243.0	1.6606908098019328e+18
14244.0	1.66060379644887e+18
14245.0	1.6602965401927677e+18
14246.0	1.6599670490923003e+18
14247.0	1.6596829336502272e+18
14248.0	1.6593728001015805e+18
14249.0	1.65909889024e+18
14250.0	1.6588098070642685e+18
14251.0	1.6585211751956477e+18
14252.0	1.6582291744620541e+18
14253.0	1.6579363516448765e+18
14254.0	1.657642136318771e+18
14255.0	1.657306439326105e+18
14256.0	1.6567855352905725e+18
14257.0	1.656751246016512e+18
14258.0	1.656478883014246e+18
14259.0	1.65616286737367e+18
14260.0	1.6558808658608125e+18
14261.0	1.655579620881203e+18
14262.0	1.6553372203089915e+18
14263.0	1.6546368789151747e+18
14264.0	1.6546709786066941e+18
14265.0	1.6544583592706043e+18
14266.0	1.6541349499109376e+18
14267.0	1.6538450731728893e+18
14268.0	1.6535540706836475e+18
14269.0	1.653251293944217e+18
14270.0	1.652972035506176e+18
14271.0	1.6526803401179133e+18
14272.0	1.6523898292011005e+18
14273.0	1.6520959578079232e+18
14274.0	1.6511912950890493e+18
14275.0	1.65145778103255e+18
14276.0	1.6512098490122235e+18
14277.0	1.650921071181824e+18
14278.0	1.6506460372467707e+18
14279.0	1.6503546119716856e+18
14280.0	1.6500554071015421e+18
14281.0	1.6497750631776253e+18
14282.0	1.6494852569038843e+18
14283.0	1.6491950462992381e+18
14284.0	1.648890014701977e+18
14285.0	1.6485829815828477e+18
14286.0	1.6482920143257597e+18
14287.0	1.6480027315011581e+18
14288.0	1.64770656330711e+18
14289.0	1.6459283965149153e+18
14290.0	1.647092849390387e+18
14291.0	1.6468044708577275e+18
14292.0	1.6465132234211323e+18
14293.0	1.6462229071200253e+18
14294.0	1.6457522491686912e+18
14295.0	1.6456280960925693e+18
14296.0	1.6441814420553738e+18
14297.0	1.6450619690713088e+18
14298.0	1.6445346745942013e+18
14299.0	1.644468295539097e+18
14300.0	1.6441876445921277e+18
14301.0	1.6439043797549053e+18
14302.0	1.6436148704378877e+18
14303.0	1.6432855789862907e+18
14304.0	1.6430172710371325e+18
14305.0	1.6427501542703104e+18
14306.0	1.6424486576324603e+18
14307.0	1.6421657887375357e+18
14308.0	1.6418833610833912e+18
14309.0	1.6415907781804032e+18
14310.0	1.6412393844244477e+18
14311.0	1.6409295042117624e+18
14312.0	1.640683256623923e+18
14313.0	1.640244341165261e+18
14314.0	1.6401171061145597e+18
14315.0	1.6398259291422715e+18
14316.0	1.6394689485733885e+18
14317.0	1.6392401325129725e+18
14318.0	1.638961796821811e+18
14319.0	1.6386741816524797e+18
14320.0	1.6383851186094077e+18
14321.0	1.638093629580902e+18
14322.0	1.6377542550224893e+18
14323.0	1.6374975367741437e+18
14324.0	1.6372328594145277e+18
14325.0	1.6369328911810557e+18
14326.0	1.6366567549829115e+18
14327.0	1.6363602915098624e+18
14328.0	1.6360715673665533e+18
14329.0	1.635792790434611e+18
14330.0	1.6355049168961533e+18
14331.0	1.635216672581222e+18
14332.0	1.6349291966627837e+18
14333.0	1.6346415261286395e+18
14334.0	1.6343538337841147e+18
14335.0	1.6340482468610048e+18
14336.0	1.633749206407577e+18
14337.0	1.6334872234688504e+18
14338.0	1.6331996301099003e+18
14339.0	1.6329016499765243e+18
14340.0	1.6326285722648568e+18
14341.0	1.6323249818304512e+18
14342.0	1.631841705734963e+18
14343.0	1.631554211361587e+18
14344.0	1.631264408443289e+18
14345.0	1.6309829991661565e+18
14346.0	1.6306917651513341e+18
14347.0	1.630388161295155e+18
14348.0	1.6301206318088187e+18
14349.0	1.6298343219068925e+18
14350.0	1.6295260019752952e+18
14351.0	1.6292304964812797e+18
14352.0	1.6289598615322621e+18
14353.0	1.6286835558842365e+18
14354.0	1.6283956185923581e+18
14355.0	1.628104815751987e+18
14356.0	1.6278203563769853e+18
14357.0	1.6275396936859643e+18
14358.0	1.6272530482397181e+18
14359.0	1.6269476408328192e+18
14360.0	1.6266774655795197e+18
14361.0	1.6263926824042496e+18
14362.0	1.6261069915815933e+18
14363.0	1.625820099510272e+18
14364.0	1.6254654224531453e+18
14365.0	1.6252357910200315e+18
14366.0	1.6249467145551872e+18
14367.0	1.624675638365388e+18
14368.0	1.6243888268247035e+18
14369.0	1.6241034447028224e+18
14370.0	1.6238174619566077e+18
14371.0	1.6235315412860928e+18
14372.0	1.6232385238532093e+18
14373.0	1.6229593006473208e+18
14374.0	1.622638236742451e+18
14375.0	1.6223486301175803e+18
14376.0	1.6220667913437184e+18
14377.0	1.6217800284569597e+18
14378.0	1.621491386522009e+18
14379.0	1.6212093480992765e+18
14380.0	1.620922746273792e+18
14381.0	1.6206222042595325e+18
14382.0	1.6203502892089341e+18
14383.0	1.6200621271023613e+18
14384.0	1.6197577917595643e+18
14385.0	1.6194958239203325e+18
14386.0	1.6191875610312704e+18
14387.0	1.6189245362274296e+18
14388.0	1.6186341930827776e+18
14389.0	1.6183538424479741e+18
14390.0	1.618065816236851e+18
14391.0	1.6177838315012093e+18
14392.0	1.6174969629179896e+18
14393.0	1.6172137316351997e+18
14394.0	1.6168785698357243e+18
14395.0	1.6166297385566205e+18
14396.0	1.6163585784807421e+18
14397.0	1.6160736677986304e+18
14398.0	1.6157882655440896e+18
14399.0	1.6155036300083195e+18
14400.0	1.6151910000099325e+18
14401.0	1.614924886520627e+18
14402.0	1.6146424286674941e+18
14403.0	1.6134234129301484e+18
14404.0	1.6086935281860572e+18
14405.0	1.611484354314233e+18
14406.0	1.6135039519555581e+18
14407.0	1.6118413751484419e+18
14408.0	1.6129274784251901e+18
14409.0	1.6126276527980541e+18
14410.0	1.6123587844898816e+18
14411.0	1.6120523419287547e+18
14412.0	1.6117640774811643e+18
14413.0	1.6114853357813757e+18
14414.0	1.6111974840532987e+18
14415.0	1.610914737632051e+18
14416.0	1.610631445951283e+18
14417.0	1.6103430657409021e+18
14418.0	1.6100501791703037e+18
14419.0	1.6097765243224061e+18
14420.0	1.6094870099722237e+18
14421.0	1.6092090903560187e+18
14422.0	1.6089190273908733e+18
14423.0	1.6086190037925885e+18
14424.0	1.602770776673481e+18
14425.0	1.6080542608916477e+18
14426.0	1.6077887278940157e+18
14427.0	1.6075048892760061e+18
14428.0	1.607192677030297e+18
14429.0	1.6069346837135357e+18
14430.0	1.6066557390094333e+18
14431.0	1.6062521312018432e+18
14432.0	1.6060823155769341e+18
14433.0	1.6047480101666806e+18
14434.0	1.6054986429431805e+18
14435.0	1.6052099640983555e+18
14436.0	1.6049540545118205e+18
14437.0	1.6046711705174013e+18
14438.0	1.604352777545318e+18
14439.0	1.604093910135603e+18
14440.0	1.6038201026150395e+18
14441.0	1.6035238723452925e+18
14442.0	1.603229626820198e+18
14443.0	1.6028888144543741e+18
14444.0	1.602680292114432e+18
14445.0	1.6024025855688701e+18
14446.0	1.600024304471246e+18
14447.0	1.6018199883546616e+18
14448.0	1.6015555072884733e+18
14449.0	1.601273222240665e+18
14450.0	1.600982637504102e+18
14451.0	1.600678382691942e+18
14452.0	1.600334156162662e+18
14453.0	1.6000357985419261e+18
14454.0	1.5997689384665085e+18
14455.0	1.5994738708578304e+18
14456.0	1.5991996539731968e+18
14457.0	1.598914899319193e+18
14458.0	1.5986355100188672e+18
14459.0	1.5983497235660797e+18
14460.0	1.598066015810355e+18
14461.0	1.597751644336947e+18
14462.0	1.5974273474625533e+18
14463.0	1.5972102435766272e+18
14464.0	1.596937756422963e+18
14465.0	1.5966194322374653e+18
14466.0	1.5963708039626747e+18
14467.0	1.5960549309284347e+18
14468.0	1.595803564611993e+18
14469.0	1.5954925804584957e+18
14470.0	1.5951993868648448e+18
14471.0	1.594946420001996e+18
14472.0	1.5946715689385984e+18
14473.0	1.5943946744102907e+18
14474.0	1.5941154864365563e+18
14475.0	1.5938305220673533e+18
14476.0	1.593484233618227e+18
14477.0	1.5932687772549115e+18
14478.0	1.5929831485079547e+18
14479.0	1.5927006386454525e+18
14480.0	1.5923972294049792e+18
14481.0	1.592140672217907e+18
14482.0	1.5918533993037821e+18
14483.0	1.5915609153863675e+18
14484.0	1.5912807207796733e+18
14485.0	1.5909534644043776e+18
14486.0	1.5902964803698688e+18
14487.0	1.5904467522158587e+18
14488.0	1.5901610983030781e+18
14489.0	1.589873082158285e+18
14490.0	1.589595263205376e+18
14491.0	1.5893180465545213e+18
14492.0	1.5890384458612733e+18
14493.0	1.5887474366611453e+18
14494.0	1.5884453595316221e+18
14495.0	1.5881915269644285e+18
14496.0	1.5877161730703357e+18
14497.0	1.5876272857022464e+18
14498.0	1.5873473108770813e+18
14499.0	1.5870657841594365e+18
14500.0	1.5867834840121341e+18
14501.0	1.586439133331456e+18
14502.0	1.5858456678367235e+18
14503.0	1.5858800477077504e+18
14504.0	1.5856128571211768e+18
14505.0	1.585313719359897e+18
14506.0	1.5849999317336064e+18
14507.0	1.5844211530137597e+18
14508.0	1.584496006240665e+18
14509.0	1.584215120412672e+18
14510.0	1.583928317260595e+18
14511.0	1.5836515603054587e+18
14512.0	1.583347961482444e+18
14513.0	1.583088011942297e+18
14514.0	1.5827594234560507e+18
14515.0	1.5825207121936381e+18
14516.0	1.5784810471489567e+18
14517.0	1.581950860630425e+18
14518.0	1.5816797173317624e+18
14519.0	1.581399192213913e+18
14520.0	1.5811162109116413e+18
14521.0	1.580835679082905e+18
14522.0	1.580554628838195e+18
14523.0	1.5802029498695677e+18
14524.0	1.579923931345715e+18
14525.0	1.5797023378767867e+18
14526.0	1.579425492002406e+18
14527.0	1.5791212808110077e+18
14528.0	1.5786558640619515e+18
14529.0	1.5785689043959805e+18
14530.0	1.5782762594172925e+18
14531.0	1.5780183264985085e+18
14532.0	1.5776488687140864e+18
14533.0	1.5774578097782781e+18
14534.0	1.5771783382695939e+18
14535.0	1.5768820241137664e+18
14536.0	1.5766102399254525e+18
14537.0	1.5763137277984763e+18
14538.0	1.5760528370565112e+18
14539.0	1.575771652594073e+18
14540.0	1.5754902080847867e+18
14541.0	1.5751778599436285e+18
14542.0	1.5749243343994877e+18
14543.0	1.574589026638233e+18
14544.0	1.574362254042726e+18
14545.0	1.5740702247878653e+18
14546.0	1.5661199366553546e+18
14547.0	1.5664623965437885e+18
14548.0	1.5732130986328064e+18
14549.0	1.5727796609351675e+18
14550.0	1.572663099549286e+18
14551.0	1.5723950650687488e+18
14552.0	1.5721125115854848e+18
14553.0	1.5718184707424256e+18
14554.0	1.5715516509323264e+18
14555.0	1.5712700621389821e+18
14556.0	1.5709871898886144e+18
14557.0	1.5706910015619072e+18
14558.0	1.5703888606789632e+18
14559.0	1.567333558517754e+18
14560.0	1.5698234919878656e+18
14561.0	1.569537826331033e+18
14562.0	1.5692327494352893e+18
14563.0	1.5689834886594557e+18
14564.0	1.5686952292450304e+18
14565.0	1.568423842676736e+18
14566.0	1.5681425038639101e+18
14567.0	1.5678604033654781e+18
14568.0	1.5675683137126397e+18
14569.0	1.5672735598379003e+18
14570.0	1.5660328595488765e+18
14571.0	1.5664786016567293e+18
14572.0	1.5661471006457853e+18
14573.0	1.5658523266383867e+18
14574.0	1.565618292863795e+18
14575.0	1.565355741177446e+18
14576.0	1.5650707331874813e+18
14577.0	1.5647862788456443e+18
14578.0	1.564510869100953e+18
14579.0	1.5642328152670205e+18
14580.0	1.5639513539805181e+18
14581.0	1.5636648477851648e+18
14582.0	1.5633875136937981e+18
14583.0	1.5631062788997115e+18
14584.0	1.5628076025118715e+18
14585.0	1.562542557731225e+18
14586.0	1.5622559592611837e+18
14587.0	1.5619774725750781e+18
14588.0	1.5616971957600253e+18
14589.0	1.5614196485980157e+18
14590.0	1.561141950441062e+18
14591.0	1.5608627591118843e+18
14592.0	1.5605748083982333e+18
14593.0	1.560136899572531e+18
14594.0	1.5600270692057088e+18
14595.0	1.5597401536462843e+18
14596.0	1.559405496841011e+18
14597.0	1.5591165613047805e+18
14598.0	1.5589096311226365e+18
14599.0	1.5586406185304064e+18
14600.0	1.5583614792105981e+18
14601.0	1.5580841635741693e+18
14602.0	1.557799204238131e+18
14603.0	1.5575275173576701e+18
14604.0	1.5571866714374141e+18
14605.0	1.5569572581081088e+18
14606.0	1.556578720494387e+18
14607.0	1.556404195504947e+18
14608.0	1.5561315187687421e+18
14609.0	1.5558521227575293e+18
14610.0	1.555558085269913e+18
14611.0	1.5552929498923003e+18
14612.0	1.5550222998437888e+18
14613.0	1.554744952330649e+18
14614.0	1.5544606389174272e+18
14615.0	1.5541876031488003e+18
14616.0	1.5539093916090365e+18
14617.0	1.553630191891251e+18
14618.0	1.553346304619315e+18
14619.0	1.5530300339650557e+18
14620.0	1.5526245538201597e+18
14621.0	1.552514814050304e+18
14622.0	1.552215136062668e+18
14623.0	1.5519253968977912e+18
14624.0	1.551561552769843e+18
14625.0	1.5513620532166656e+18
14626.0	1.5510832695738365e+18
14627.0	1.5508016472260605e+18
14628.0	1.5505288983478267e+18
14629.0	1.5502493261758456e+18
14630.0	1.5499680041402365e+18
14631.0	1.5496891064123387e+18
14632.0	1.5489335210016768e+18
14633.0	1.5490762363895805e+18
14634.0	1.5488465110040576e+18
14635.0	1.5485292605603837e+18
14636.0	1.5481665572831224e+18
14637.0	1.548010133232025e+18
14638.0	1.5477240246566912e+18
14639.0	1.547431782331187e+18
14640.0	1.5471603169099773e+18
14641.0	1.5450876193800172e+18
14642.0	1.5465966309736448e+18
14643.0	1.5463254155329533e+18
14644.0	1.546029470475878e+18
14645.0	1.5457299501940733e+18
14646.0	1.5454713461866493e+18
14647.0	1.5451841588363264e+18
14648.0	1.5449178440204285e+18
