# Flux units: erg / (cm m2 s)
# Wavelength units: Angstrom
wave	flux
14000.0	1.816411024811622e+18
14001.0	1.8159738038517755e+18
14002.0	1.8156441969885181e+18
14003.0	1.8152576650313725e+18
14004.0	1.8148709753683965e+18
14005.0	1.8144841716203515e+18
14006.0	1.8140649324806141e+18
14007.0	1.813593204142899e+18
14008.0	1.813153364259635e+18
14009.0	1.8128253914972155e+18
14010.0	1.8124314993754107e+18
14011.0	1.8116891562213379e+18
14012.0	1.811666812325068e+18
14013.0	1.811280847437824e+18
14014.0	1.8108915908607997e+18
14015.0	1.810507662727577e+18
14016.0	1.8101233873059835e+18
14017.0	1.8097377428635643e+18
14018.0	1.8093519239380987e+18
14019.0	1.8089667559686141e+18
14020.0	1.808580965564416e+18
14021.0	1.8081953227997181e+18
14022.0	1.8078076583804923e+18
14023.0	1.8074072583766013e+18
14024.0	1.807026954122035e+18
14025.0	1.8066554109296635e+18
14026.0	1.8062701053870077e+18
14027.0	1.8058866184945661e+18
14028.0	1.805498407138099e+18
14029.0	1.8051153598087165e+18
14030.0	1.803893443290727e+18
14031.0	1.8043315148554237e+18
14032.0	1.8039637549252603e+18
14033.0	1.803547584338329e+18
14034.0	1.80319549432791e+18
14035.0	1.8028126214815736e+18
14036.0	1.8024288627982333e+18
14037.0	1.8020444028272637e+18
14038.0	1.8016609377452027e+18
14039.0	1.801274967824793e+18
14040.0	1.800887516476211e+18
14041.0	1.8005080477270013e+18
14042.0	1.80012072388526e+18
14043.0	1.7997201191993341e+18
14044.0	1.7993542852935677e+18
14045.0	1.79897610838999e+18
14046.0	1.7985927758479352e+18
14047.0	1.798205366442393e+18
14048.0	1.7977636374446075e+18
14049.0	1.7973572697849853e+18
14050.0	1.796974804624998e+18
14051.0	1.7965872022814715e+18
14052.0	1.7962078291623933e+18
14053.0	1.7958277262344187e+18
14054.0	1.7954458113671165e+18
14055.0	1.7950637975142397e+18
14056.0	1.794681870902886e+18
14057.0	1.794300068442931e+18
14058.0	1.7939183549022203e+18
14059.0	1.7935367118258176e+18
14060.0	1.7931551744458747e+18
14061.0	1.7927697934057464e+18
14062.0	1.792392379865497e+18
14063.0	1.7920019388170237e+18
14064.0	1.7914876768813056e+18
14065.0	1.7912439056105472e+18
14066.0	1.790864477126656e+18
14067.0	1.7904598240985085e+18
14068.0	1.7900936043167741e+18
14069.0	1.789710535177011e+18
14070.0	1.78933185160151e+18
14071.0	1.788950049141555e+18
14072.0	1.7885712682582016e+18
14073.0	1.788190913671987e+18
14074.0	1.7878107268579323e+18
14075.0	1.7874198143696893e+18
14076.0	1.7870330508869627e+18
14077.0	1.7864741196136448e+18
14078.0	1.7862766383595517e+18
14079.0	1.7859050028924925e+18
14080.0	1.78553126691799e+18
14081.0	1.785151690794598e+18
14082.0	1.7847667073744893e+18
14083.0	1.7843919630893053e+18
14084.0	1.7840134556745728e+18
14085.0	1.7833915997749243e+18
14086.0	1.7832323420520443e+18
14087.0	1.7828636727967744e+18
14088.0	1.7824760838750205e+18
14089.0	1.7820924241772541e+18
14090.0	1.7817226946019325e+18
14091.0	1.7813484234342397e+18
14092.0	1.7809698589769725e+18
14093.0	1.7805913683394555e+18
14094.0	1.7802129632657403e+18
14095.0	1.7798346622107648e+18
14096.0	1.7794163391070203e+18
14097.0	1.779063012615782e+18
14098.0	1.778682438248038e+18
14099.0	1.7783223891263488e+18
14100.0	1.777937568445235e+18
14101.0	1.7775669110898685e+18
14102.0	1.777189106640486e+18
14103.0	1.7768030645780475e+18
14104.0	1.7764325833834493e+18
14105.0	1.776056238551859e+18
14106.0	1.7756795497873405e+18
14107.0	1.7753003377295355e+18
14108.0	1.7749179782660093e+18
14109.0	1.774532793519308e+18
14110.0	1.7741518601191424e+18
14111.0	1.7737681853218808e+18
14112.0	1.773400739125657e+18
14113.0	1.7730210237513723e+18
14114.0	1.7726439172341755e+18
14115.0	1.7722731155947517e+18
14116.0	1.7718498448900096e+18
14117.0	1.7701295192276995e+18
14118.0	1.7711463393132541e+18
14119.0	1.7707462362660856e+18
14120.0	1.7703744682590205e+18
14121.0	1.770008480002867e+18
14122.0	1.76960817898455e+18
14123.0	1.7692380719218685e+18
14124.0	1.768855927206707e+18
14125.0	1.768244392650342e+18
14126.0	1.7681334633758717e+18
14127.0	1.7677652135510008e+18
14128.0	1.767389174064742e+18
14129.0	1.7670079504187387e+18
14130.0	1.7666275119464443e+18
14131.0	1.7662648086691835e+18
14132.0	1.7658867894714365e+18
14133.0	1.7651963046920182e+18
14134.0	1.765128101953536e+18
14135.0	1.7647414424895485e+18
14136.0	1.7643129423265787e+18
14137.0	1.7640025873186813e+18
14138.0	1.763611981853491e+18
14139.0	1.7632555968757752e+18
14140.0	1.7628708751802365e+18
14141.0	1.7625041957027835e+18
14142.0	1.7620142976401405e+18
14143.0	1.7617502091608061e+18
14144.0	1.7613858902376448e+18
14145.0	1.7610113942552568e+18
14146.0	1.760635648370278e+18
14147.0	1.7602632830943232e+18
14148.0	1.7598858359996413e+18
14149.0	1.7595112745861115e+18
14150.0	1.7591449675628541e+18
14151.0	1.7587603784073213e+18
14152.0	1.7583987908149243e+18
14153.0	1.7580257007632381e+18
14154.0	1.7576382410260477e+18
14155.0	1.757041663357747e+18
14156.0	1.7568851201884157e+18
14157.0	1.756534410942873e+18
14158.0	1.7561587808206843e+18
14159.0	1.7557893280694272e+18
14160.0	1.7554148924850168e+18
14161.0	1.7550010069549056e+18
14162.0	1.7545988436656123e+18
14163.0	1.7542878309908475e+18
14164.0	1.7538670231814136e+18
14165.0	1.753432293638144e+18
14166.0	1.753171609255936e+18
14167.0	1.7527930129219584e+18
14168.0	1.7524226743336957e+18
14169.0	1.7520580618092544e+18
14170.0	1.7516811901730813e+18
14171.0	1.7513127323107323e+18
14172.0	1.7509438969610237e+18
14173.0	1.7505163967201277e+18
14174.0	1.7501980675014653e+18
14175.0	1.7498305491632125e+18
14176.0	1.749458032892313e+18
14177.0	1.7490881892319232e+18
14178.0	1.7487165856415741e+18
14179.0	1.748335674051788e+18
14180.0	1.747976797657497e+18
14181.0	1.7476063047188477e+18
14182.0	1.7472354326151163e+18
14183.0	1.746865592310169e+18
14184.0	1.74649236300759e+18
14185.0	1.7461251399483387e+18
14186.0	1.745495860130611e+18
14187.0	1.7453709906673661e+18
14188.0	1.7450129950769147e+18
14189.0	1.7446421917597693e+18
14190.0	1.7442737859067904e+18
14191.0	1.7439031755276288e+18
14192.0	1.7435318856712187e+18
14193.0	1.7431130022084605e+18
14194.0	1.7427834171555835e+18
14195.0	1.74241705141207e+18
14196.0	1.7420477446225917e+18
14197.0	1.7416786458705915e+18
14198.0	1.7413066295607293e+18
14199.0	1.7409386565599227e+18
14200.0	1.740413588419379e+18
14201.0	1.740198440756838e+18
14202.0	1.7398343198048253e+18
14203.0	1.7394530676375552e+18
14204.0	1.7390958572208125e+18
14205.0	1.738727619139993e+18
14206.0	1.7382873984139261e+18
14207.0	1.7379926176956413e+18
14208.0	1.7376247403249661e+18
14209.0	1.737176978240307e+18
14210.0	1.7368360266235896e+18
14211.0	1.7365180061057021e+18
14212.0	1.7361526134407165e+18
14213.0	1.7357821288906747e+18
14214.0	1.7354174358355965e+18
14215.0	1.7350426999390205e+18
14216.0	1.7346831843327997e+18
14217.0	1.7343158773874688e+18
14218.0	1.7339418008354816e+18
14219.0	1.7335814547570685e+18
14220.0	1.7332130858139643e+18
14221.0	1.73284342670295e+18
14222.0	1.732450479138406e+18
14223.0	1.732112866187673e+18
14224.0	1.7317471681773565e+18
14225.0	1.730908948267008e+18
14226.0	1.7310135005216765e+18
14227.0	1.7306476733267963e+18
14228.0	1.7290882193555456e+18
14229.0	1.7295970303737843e+18
14230.0	1.7294061996081147e+18
14231.0	1.7290141345251325e+18
14232.0	1.728674095588966e+18
14233.0	1.7283043492364288e+18
14234.0	1.7279424294551547e+18
14235.0	1.7275752231731197e+18
14236.0	1.7272108673400827e+18
14237.0	1.7268446978899965e+18
14238.0	1.7264797800202237e+18
14239.0	1.72610864283648e+18
14240.0	1.724831275941888e+18
14241.0	1.7253801425633275e+18
14242.0	1.7250174678073341e+18
14243.0	1.7245631374426112e+18
14244.0	1.7242890111549437e+18
14245.0	1.7239121848172541e+18
14246.0	1.723542082787737e+18
14247.0	1.7231918550482941e+18
14248.0	1.7228207111536635e+18
14249.0	1.7224643580526587e+18
14250.0	1.7220997774049277e+18
14251.0	1.72173690971095e+18
14252.0	1.7213726042095613e+18
14253.0	1.7210080185286653e+18
14254.0	1.7206429110763515e+18
14255.0	1.7202610918391803e+18
14256.0	1.7194449524228096e+18
14257.0	1.7195401983557627e+18
14258.0	1.7191888163438587e+18
14259.0	1.7188139193860093e+18
14260.0	1.718445753447219e+18
14261.0	1.7180864945324027e+18
14262.0	1.717747242447667e+18
14263.0	1.7166924421005315e+18
14264.0	1.71690934969303e+18
14265.0	1.7166526079565821e+18
14266.0	1.716293587278233e+18
14267.0	1.7159317497053181e+18
14268.0	1.7155689541533693e+18
14269.0	1.715197759927091e+18
14270.0	1.7148319276990461e+18
14271.0	1.714467526567526e+18
14272.0	1.7141065161113597e+18
14273.0	1.7137434101809147e+18
14274.0	1.712359509642445e+18
14275.0	1.7129276197306365e+18
14276.0	1.7126421218459643e+18
14277.0	1.7122820811128827e+18
14278.0	1.7119329539588096e+18
14279.0	1.7115705543491581e+18
14280.0	1.7112047237988347e+18
14281.0	1.7108473305104381e+18
14282.0	1.710485811704627e+18
14283.0	1.7101241804914685e+18
14284.0	1.709762621420339e+18
14285.0	1.7094010053066747e+18
14286.0	1.709037592353177e+18
14287.0	1.7086784659783677e+18
14288.0	1.7083172273520637e+18
14289.0	1.7073697709883374e+18
14290.0	1.7075927720656893e+18
14291.0	1.7072336037478397e+18
14292.0	1.7068733096787965e+18
14293.0	1.706511228836249e+18
14294.0	1.70607042929623e+18
14295.0	1.705783471793766e+18
14296.0	1.704955962458112e+18
14297.0	1.705070201877299e+18
14298.0	1.704505745866752e+18
14299.0	1.7043384535351293e+18
14300.0	1.7039840616906747e+18
14301.0	1.70362628252631e+18
14302.0	1.7032676846338043e+18
14303.0	1.7028886135046136e+18
14304.0	1.7025391323512827e+18
14305.0	1.7021878140927997e+18
14306.0	1.7017972421820413e+18
14307.0	1.7014576730079227e+18
14308.0	1.7011088964976637e+18
14309.0	1.700745315772006e+18
14310.0	1.7002545352278013e+18
14311.0	1.6998020721672187e+18
14312.0	1.699627196533965e+18
14313.0	1.6992506453426176e+18
14314.0	1.698947138794291e+18
14315.0	1.698595684640358e+18
14316.0	1.6982068156170237e+18
14317.0	1.6978525043032061e+18
14318.0	1.6975158644310013e+18
14319.0	1.697150758656409e+18
14320.0	1.696791944337817e+18
14321.0	1.6964321837842432e+18
14322.0	1.6960509433610237e+18
14323.0	1.695707206726451e+18
14324.0	1.6953582506999805e+18
14325.0	1.694995391394611e+18
14326.0	1.694642969195315e+18
14327.0	1.6942811534327803e+18
14328.0	1.6939232719273981e+18
14329.0	1.6935693414563835e+18
14330.0	1.693211621012275e+18
14331.0	1.692851048441446e+18
14332.0	1.692496391516979e+18
14333.0	1.6921389512523776e+18
14334.0	1.6917815512530941e+18
14335.0	1.6914134876553213e+18
14336.0	1.6910135372808184e+18
14337.0	1.6907080929640443e+18
14338.0	1.690350966433382e+18
14339.0	1.6899891422822397e+18
14340.0	1.6896387618701307e+18
14341.0	1.689278194332467e+18
14342.0	1.688924044079923e+18
14343.0	1.6885632701825021e+18
14344.0	1.6882072509480957e+18
14345.0	1.6878557867278333e+18
14346.0	1.687496935499366e+18
14347.0	1.6871148763480061e+18
14348.0	1.686786173776691e+18
14349.0	1.686430669602816e+18
14350.0	1.6860370811486205e+18
14351.0	1.68567508083671e+18
14352.0	1.6853572767449085e+18
14353.0	1.6850058209132536e+18
14354.0	1.684645884198912e+18
14355.0	1.6842813236838397e+18
14356.0	1.6839299131506685e+18
14357.0	1.683584349477273e+18
14358.0	1.6832288721469437e+18
14359.0	1.6828648132706304e+18
14360.0	1.682514568753971e+18
14361.0	1.6821618915409915e+18
14362.0	1.6818079677808637e+18
14363.0	1.681452718620672e+18
14364.0	1.6809732559863803e+18
14365.0	1.68072362107863e+18
14366.0	1.680366393884672e+18
14367.0	1.6800337117577213e+18
14368.0	1.6796787612319741e+18
14369.0	1.679324501927526e+18
14370.0	1.67897010840535e+18
14371.0	1.6786158692335613e+18
14372.0	1.6782578149228536e+18
14373.0	1.6779063037263867e+18
14374.0	1.6775439343157243e+18
14375.0	1.6771868765716475e+18
14376.0	1.6768338839470075e+18
14377.0	1.6764795491450877e+18
14378.0	1.6761244291694587e+18
14379.0	1.675772223396249e+18
14380.0	1.675418031200665e+18
14381.0	1.6750578277285888e+18
14382.0	1.6747103178981376e+18
14383.0	1.674349906388582e+18
14384.0	1.6739928855543805e+18
14385.0	1.6736510028021757e+18
14386.0	1.6732890830209021e+18
14387.0	1.6729443699523584e+18
14388.0	1.672590065349427e+18
14389.0	1.67223820854231e+18
14390.0	1.67188408345559e+18
14391.0	1.6715322283261947e+18
14392.0	1.6711769254789115e+18
14393.0	1.6708270953594877e+18
14394.0	1.6704524416712704e+18
14395.0	1.670108335937945e+18
14396.0	1.6697689982894077e+18
14397.0	1.6694168864686077e+18
14398.0	1.6690632210776061e+18
14399.0	1.6687120303259643e+18
14400.0	1.668345303872307e+18
14401.0	1.6680042750803963e+18
14402.0	1.6675916109316093e+18
14403.0	1.6652624786882522e+18
14404.0	1.661147993971096e+18
14405.0	1.6655976958525417e+18
14406.0	1.666171379331891e+18
14407.0	1.6629309473030157e+18
14408.0	1.6654435031711736e+18
14409.0	1.6651052258426877e+18
14410.0	1.664755773210624e+18
14411.0	1.664412957645209e+18
14412.0	1.664060818980864e+18
14413.0	1.6637118344331261e+18
14414.0	1.6633591471538176e+18
14415.0	1.6630087835189243e+18
14416.0	1.662653052852633e+18
14417.0	1.6622869303787515e+18
14418.0	1.6619279751315453e+18
14419.0	1.6616048291741693e+18
14420.0	1.6612519539900416e+18
14421.0	1.6609040230514685e+18
14422.0	1.6605513022177277e+18
14423.0	1.6601968600416253e+18
14424.0	1.648179127150175e+18
14425.0	1.6594987986714624e+18
14426.0	1.6591523978149888e+18
14427.0	1.6588019570049021e+18
14428.0	1.6584383913787387e+18
14429.0	1.6580998942687224e+18
14430.0	1.6577524783906813e+18
14431.0	1.6571913358802941e+18
14432.0	1.657044201373696e+18
14433.0	1.6545135848325102e+18
14434.0	1.6563432073461757e+18
14435.0	1.655970075351449e+18
14436.0	1.6556542895587325e+18
14437.0	1.6553049325567997e+18
14438.0	1.6548740886167547e+18
14439.0	1.6545806299430907e+18
14440.0	1.654245575517798e+18
14441.0	1.653891988979712e+18
14442.0	1.653539333577113e+18
14443.0	1.6531662535917568e+18
14444.0	1.652846800299622e+18
14445.0	1.6525006880112635e+18
14446.0	1.6495780198088717e+18
14447.0	1.6517956187979768e+18
14448.0	1.6514547242237947e+18
14449.0	1.6511061624619003e+18
14450.0	1.6507542167355387e+18
14451.0	1.6504083057737725e+18
14452.0	1.650059128288051e+18
14453.0	1.64967423714263e+18
14454.0	1.6493633234534397e+18
14455.0	1.6490102653976576e+18
14456.0	1.6486574103461885e+18
14457.0	1.648306670901657e+18
14458.0	1.6479669574434816e+18
14459.0	1.64761831515095e+18
14460.0	1.647271067045068e+18
14461.0	1.6468958160879616e+18
14462.0	1.6463746167734272e+18
14463.0	1.6462209441857533e+18
14464.0	1.6458822843367421e+18
14465.0	1.645522023822131e+18
14466.0	1.6451872294436861e+18
14467.0	1.6448065678344187e+18
14468.0	1.6444898827829248e+18
14469.0	1.64411993007063e+18
14470.0	1.6437817718603776e+18
14471.0	1.6434445615628288e+18
14472.0	1.6431010195439613e+18
14473.0	1.64275763019776e+18
14474.0	1.642412029614489e+18
14475.0	1.6420617666428925e+18
14476.0	1.6415761367039997e+18
14477.0	1.641371347294617e+18
14478.0	1.641023505275289e+18
14479.0	1.6406763293114365e+18
14480.0	1.640321793182924e+18
14481.0	1.6399863142940667e+18
14482.0	1.639637829707366e+18
14483.0	1.6392869493342203e+18
14484.0	1.638942346995302e+18
14485.0	1.6385770348609533e+18
14486.0	1.6380715843190784e+18
14487.0	1.6379071055265792e+18
14488.0	1.637531728740352e+18
14489.0	1.6371961575768061e+18
14490.0	1.6368648545370112e+18
14491.0	1.6365246729945085e+18
14492.0	1.636178993558323e+18
14493.0	1.6358283681988603e+18
14494.0	1.6354746826751997e+18
14495.0	1.6351430038257661e+18
14496.0	1.6347144298430461e+18
14497.0	1.6344515073802237e+18
14498.0	1.634106230597222e+18
14499.0	1.6337614990737405e+18
14500.0	1.633416052840857e+18
14501.0	1.633008007459635e+18
14502.0	1.6325268721369088e+18
14503.0	1.6323617054785533e+18
14504.0	1.6320323922165757e+18
14505.0	1.6316333461340157e+18
14506.0	1.631217314797977e+18
14507.0	1.630850162203033e+18
14508.0	1.6306564004577277e+18
14509.0	1.630311680678297e+18
14510.0	1.6299650097086461e+18
14511.0	1.6296222461526013e+18
14512.0	1.629267889540301e+18
14513.0	1.6289331840811003e+18
14514.0	1.6285620720631803e+18
14515.0	1.6282430314905597e+18
14516.0	1.6264144692969485e+18
14517.0	1.6275448728125437e+18
14518.0	1.6272007687569403e+18
14519.0	1.6268566395355133e+18
14520.0	1.6265119533105147e+18
14521.0	1.6261668392665085e+18
14522.0	1.6258217235447803e+18
14523.0	1.6253252471357435e+18
14524.0	1.624992868676403e+18
14525.0	1.6247889281941504e+18
14526.0	1.6244470001434621e+18
14527.0	1.6240912409559037e+18
14528.0	1.6236716310396925e+18
14529.0	1.6234104936726523e+18
14530.0	1.6230620292186107e+18
14531.0	1.6227284679655421e+18
14532.0	1.622182834313625e+18
14533.0	1.6220421254807547e+18
14534.0	1.6216997159239677e+18
14535.0	1.6213493959098368e+18
14536.0	1.621010551511449e+18
14537.0	1.6206618773422075e+18
14538.0	1.6203263112118272e+18
14539.0	1.6199832876089341e+18
14540.0	1.6196401348214784e+18
14541.0	1.619283288470323e+18
14542.0	1.618952718594867e+18
14543.0	1.6185183145295872e+18
14544.0	1.6182677015101437e+18
14545.0	1.6179195474345981e+18
14546.0	1.6029230601076646e+18
14547.0	1.604119473579612e+18
14548.0	1.6168883090096125e+18
14549.0	1.616479721724313e+18
14550.0	1.6162060131893243e+18
14551.0	1.6158687995363325e+18
14552.0	1.6155250746458107e+18
14553.0	1.6151782191267837e+18
14554.0	1.614841176601395e+18
14555.0	1.6144982184296443e+18
14556.0	1.6141525289271293e+18
14557.0	1.6138137164054525e+18
14558.0	1.613471031702323e+18
14559.0	1.6120256544112617e+18
14560.0	1.6127659440340987e+18
14561.0	1.612439987893043e+18
14562.0	1.6120835072851965e+18
14563.0	1.6117594301923323e+18
14564.0	1.611397183255347e+18
14565.0	1.6110758593036285e+18
14566.0	1.610733778580275e+18
14567.0	1.610390869062451e+18
14568.0	1.6100112090529787e+18
14569.0	1.609707338439065e+18
14570.0	1.609040650462822e+18
14571.0	1.6090215764459515e+18
14572.0	1.6086428609937403e+18
14573.0	1.6083067428929533e+18
14574.0	1.6079440832364541e+18
14575.0	1.607651161433702e+18
14576.0	1.6073068543737853e+18
14577.0	1.606968605566566e+18
14578.0	1.6066288199663613e+18
14579.0	1.6062893850099712e+18
14580.0	1.6059478445129723e+18
14581.0	1.6056008094777341e+18
14582.0	1.6052612956684288e+18
14583.0	1.6049226777624576e+18
14584.0	1.6045679419850747e+18
14585.0	1.604239608512512e+18
14586.0	1.603895897043763e+18
14587.0	1.6035536686809085e+18
14588.0	1.6032148477706235e+18
14589.0	1.6028844456673275e+18
14590.0	1.602554546880512e+18
14591.0	1.602221795966976e+18
14592.0	1.6018906657325056e+18
14593.0	1.601491646493491e+18
14594.0	1.601234325943091e+18
14595.0	1.6009005801406461e+18
14596.0	1.6004555963629565e+18
14597.0	1.6001114470088701e+18
14598.0	1.5999026864324603e+18
14599.0	1.5995841927970813e+18
14600.0	1.5992505174589437e+18
14601.0	1.5989231704866816e+18
14602.0	1.5985808733372413e+18
14603.0	1.598263080989491e+18
14604.0	1.5978978292531197e+18
14605.0	1.5975728948445181e+18
14606.0	1.597222648650137e+18
14607.0	1.5969291144790016e+18
14608.0	1.5966017842839547e+18
14609.0	1.5962612386758656e+18
14610.0	1.5958872191664125e+18
14611.0	1.5956065782857725e+18
14612.0	1.5952832628785147e+18
14613.0	1.5949540049813501e+18
14614.0	1.5946217087303677e+18
14615.0	1.594290367102976e+18
14616.0	1.593963899256832e+18
14617.0	1.5936335575515133e+18
14618.0	1.5932866097577981e+18
14619.0	1.5929034852532216e+18
14620.0	1.5923482399342592e+18
14621.0	1.5923128903401467e+18
14622.0	1.5919807299846141e+18
14623.0	1.5916522857824253e+18
14624.0	1.5912856851578875e+18
14625.0	1.590989486764851e+18
14626.0	1.5906564053401597e+18
14627.0	1.5903218592645115e+18
14628.0	1.590000167891763e+18
14629.0	1.589669790954291e+18
14630.0	1.5893364511604733e+18
14631.0	1.5890078240866301e+18
14632.0	1.5877037226983424e+18
14633.0	1.5882293830746107e+18
14634.0	1.5880105024815101e+18
14635.0	1.5873924399103985e+18
14636.0	1.5865532821536763e+18
14637.0	1.587024232028569e+18
14638.0	1.5866872197021693e+18
14639.0	1.5863508113555453e+18
14640.0	1.5860286787420157e+18
14641.0	1.581957796331517e+18
14642.0	1.5853653059436544e+18
14643.0	1.5850361235439613e+18
14644.0	1.5846969855442941e+18
14645.0	1.5843581193355267e+18
14646.0	1.5840195970596864e+18
14647.0	1.5836807828602877e+18
14648.0	1.5833749728002048e+18
