# Flux units: erg / (cm m2 s)
# Wavelength units: Angstrom
wave	flux
14000.0	2.2712084806500347e+18
14001.0	2.2706853938987003e+18
14002.0	2.270213942385049e+18
14003.0	2.2697133220036603e+18
14004.0	2.2692123241349115e+18
14005.0	2.2687113279438843e+18
14006.0	2.2682067884048376e+18
14007.0	2.2677044382924795e+18
14008.0	2.2671541808398333e+18
14009.0	2.2667075109519357e+18
14010.0	2.266154700007014e+18
14011.0	2.265303098589184e+18
14012.0	2.2651061256847357e+18
14013.0	2.2646063575859195e+18
14014.0	2.264102975674777e+18
14015.0	2.2636050715246592e+18
14016.0	2.2631065667502075e+18
14017.0	2.2626069311913976e+18
14018.0	2.2621071865806845e+18
14019.0	2.261607948641894e+18
14020.0	2.2611082224861181e+18
14021.0	2.2606086389366781e+18
14022.0	2.2601092114153464e+18
14023.0	2.2596051114393592e+18
14024.0	2.2591032797429752e+18
14025.0	2.2586137558122493e+18
14026.0	2.258114353456742e+18
14027.0	2.257617088518553e+18
14028.0	2.2571188286914555e+18
14029.0	2.256620260163584e+18
14030.0	2.2557232780541952e+18
14031.0	2.255506033239654e+18
14032.0	2.255023931549286e+18
14033.0	2.2545020242362368e+18
14034.0	2.2540289990197245e+18
14035.0	2.2535322122321915e+18
14036.0	2.253034863407923e+18
14037.0	2.2525375582044157e+18
14038.0	2.252040343597875e+18
14039.0	2.2515432313323515e+18
14040.0	2.2510413878919165e+18
14041.0	2.2505471931842555e+18
14042.0	2.2500463177891832e+18
14043.0	2.2495361025179643e+18
14044.0	2.249054187054694e+18
14045.0	2.2485614955855864e+18
14046.0	2.2480638699372544e+18
14047.0	2.2475663885729787e+18
14048.0	2.2470739336626173e+18
14049.0	2.2465789974020093e+18
14050.0	2.2460833128775675e+18
14051.0	2.245582897178214e+18
14052.0	2.2450550373089275e+18
14053.0	2.2444963325280256e+18
14054.0	2.24400094831575e+18
14055.0	2.243505621146009e+18
14056.0	2.243010404705894e+18
14057.0	2.2425153359052795e+18
14058.0	2.24202040803328e+18
14059.0	2.241525532170649e+18
14060.0	2.2410308123361277e+18
14061.0	2.240532941740441e+18
14062.0	2.2400417451212795e+18
14063.0	2.239538564536729e+18
14064.0	2.239008689723801e+18
14065.0	2.238554835832012e+18
14066.0	2.2380651122524155e+18
14067.0	2.2375660353748987e+18
14068.0	2.237077613707264e+18
14069.0	2.2365830180241405e+18
14070.0	2.2360903081000955e+18
14071.0	2.235595791269888e+18
14072.0	2.2351039738937344e+18
14073.0	2.2346108915154936e+18
14074.0	2.2341179450327037e+18
14075.0	2.2336148516896765e+18
14076.0	2.2331263427805181e+18
14077.0	2.2325142361210875e+18
14078.0	2.2320426252238843e+18
14079.0	2.2315518631346173e+18
14080.0	2.231063139477094e+18
14081.0	2.2305708238176253e+18
14082.0	2.230074530280243e+18
14083.0	2.2295856640163837e+18
14084.0	2.229094249293414e+18
14085.0	2.2284401190633467e+18
14086.0	2.2281044505919485e+18
14087.0	2.2276193357135867e+18
14088.0	2.2271209836118013e+18
14089.0	2.2266316794626045e+18
14090.0	2.2261442543616e+18
14091.0	2.2256542472470523e+18
14092.0	2.225163335840563e+18
14093.0	2.224672468054835e+18
14094.0	2.2241816556339192e+18
14095.0	2.223691002596556e+18
14096.0	2.2231848776105981e+18
14097.0	2.2227009958576123e+18
14098.0	2.2222130221416443e+18
14099.0	2.22172986516439e+18
14100.0	2.221234103464755e+18
14101.0	2.2207502166786043e+18
14102.0	2.220260298483302e+18
14103.0	2.219763959647436e+18
14104.0	2.2192607773851643e+18
14105.0	2.218693615209676e+18
14106.0	2.2182045224534008e+18
14107.0	2.217713746942361e+18
14108.0	2.2172189281222648e+18
14109.0	2.2167339038408696e+18
14110.0	2.2162423901323261e+18
14111.0	2.215748178647449e+18
14112.0	2.2152650485137405e+18
14113.0	2.214781015765811e+18
14114.0	2.214284638342348e+18
14115.0	2.2138028940066816e+18
14116.0	2.2132961482637304e+18
14117.0	2.2122882838560765e+18
14118.0	2.2122758318063616e+18
14119.0	2.2117764965597176e+18
14120.0	2.211292955384217e+18
14121.0	2.2108035186950144e+18
14122.0	2.2103185061576701e+18
14123.0	2.209826547852902e+18
14124.0	2.2093387351982075e+18
14125.0	2.208611067074969e+18
14126.0	2.2083758572175357e+18
14127.0	2.2078000262545403e+18
14128.0	2.2071727496364027e+18
14129.0	2.206679762888294e+18
14130.0	2.2061876753989627e+18
14131.0	2.2057136687153147e+18
14132.0	2.2052235542265856e+18
14133.0	2.2044464436477947e+18
14134.0	2.204254029112934e+18
14135.0	2.203758661677875e+18
14136.0	2.2031981013368827e+18
14137.0	2.202696578341273e+18
14138.0	2.202206104820121e+18
14139.0	2.201726251276697e+18
14140.0	2.2012328081883133e+18
14141.0	2.2007493878087675e+18
14142.0	2.2002253900546043e+18
14143.0	2.1997774518091773e+18
14144.0	2.1992995326787584e+18
14145.0	2.1988145637621757e+18
14146.0	2.1983287006199805e+18
14147.0	2.197843924641382e+18
14148.0	2.197357979290828e+18
14149.0	2.1968730707722237e+18
14150.0	2.1963909825036285e+18
14151.0	2.195901700164812e+18
14152.0	2.1954224019472376e+18
14153.0	2.1949381393514493e+18
14154.0	2.1944393225207805e+18
14155.0	2.1939491828662267e+18
14156.0	2.1934828165267453e+18
14157.0	2.1930026760929277e+18
14158.0	2.1925167525527547e+18
14159.0	2.1920356172300283e+18
14160.0	2.191548254204723e+18
14161.0	2.1910366128701432e+18
14162.0	2.1905273975209981e+18
14163.0	2.190101427362201e+18
14164.0	2.1895966462312445e+18
14165.0	2.1890541784399867e+18
14166.0	2.188651533644595e+18
14167.0	2.1881634005450752e+18
14168.0	2.1876872296005627e+18
14169.0	2.187207157953331e+18
14170.0	2.1867226353106944e+18
14171.0	2.186241511732019e+18
14172.0	2.1857116352413693e+18
14173.0	2.18513942815703e+18
14174.0	2.1846968300994557e+18
14175.0	2.1842184814723072e+18
14176.0	2.1837367505584128e+18
14177.0	2.1832550632652795e+18
14178.0	2.1827722250551296e+18
14179.0	2.1822835601178621e+18
14180.0	2.18181082850263e+18
14181.0	2.181329627748761e+18
14182.0	2.1808481199718395e+18
14183.0	2.1803675030650875e+18
14184.0	2.1798837622407165e+18
14185.0	2.1794054538788861e+18
14186.0	2.1788144194027512e+18
14187.0	2.178430417449779e+18
14188.0	2.1779635092062203e+18
14189.0	2.1774820718936061e+18
14190.0	2.177002617647923e+18
14191.0	2.1765221836128248e+18
14192.0	2.1760386223046653e+18
14193.0	2.1755464190525437e+18
14194.0	2.175082289115955e+18
14195.0	2.1746039924981757e+18
14196.0	2.1741242782056445e+18
14197.0	2.1736448038273021e+18
14198.0	2.1731629705723901e+18
14199.0	2.1726843098890237e+18
14200.0	2.1721489858363387e+18
14201.0	2.1717247370199037e+18
14202.0	2.1712490559700987e+18
14203.0	2.1707606494019576e+18
14204.0	2.170289889109606e+18
14205.0	2.169811365999411e+18
14206.0	2.169265645105971e+18
14207.0	2.168855826373017e+18
14208.0	2.1683778166456315e+18
14209.0	2.1678294164307963e+18
14210.0	2.167370242483814e+18
14211.0	2.1669432925356027e+18
14212.0	2.1664437526069243e+18
14213.0	2.165893263628697e+18
14214.0	2.1654159317008384e+18
14215.0	2.1649326623162365e+18
14216.0	2.1644611353051133e+18
14217.0	2.163983590306611e+18
14218.0	2.1634991968485373e+18
14219.0	2.1630288459202555e+18
14220.0	2.162551738807091e+18
14221.0	2.1620730294697981e+18
14222.0	2.1615847051100155e+18
14223.0	2.1611205030313976e+18
14224.0	2.1606438757466104e+18
14225.0	2.1600013217955837e+18
14226.0	2.159689619577241e+18
14227.0	2.1592142942044157e+18
14228.0	2.1583783912275968e+18
14229.0	2.1581877550776312e+18
14230.0	2.157785754527334e+18
14231.0	2.1573017419120632e+18
14232.0	2.156833837101875e+18
14233.0	2.156354981802803e+18
14234.0	2.1558824548696061e+18
14235.0	2.1554055608270845e+18
14236.0	2.15493116994519e+18
14237.0	2.1544552271708157e+18
14238.0	2.153980354782822e+18
14239.0	2.1535020078333947e+18
14240.0	2.1522770143739901e+18
14241.0	2.152554363564851e+18
14242.0	2.152079979393843e+18
14243.0	2.1515208417607677e+18
14244.0	2.1511310298578944e+18
14245.0	2.1506487754948605e+18
14246.0	2.1501690410696701e+18
14247.0	2.1497048306024443e+18
14248.0	2.1492261883740157e+18
14249.0	2.1487582365876224e+18
14250.0	2.148284072198144e+18
14251.0	2.1478115268100093e+18
14252.0	2.1473376442777595e+18
14253.0	2.1468634614333437e+18
14254.0	2.1463889346559995e+18
14255.0	2.1459001304678395e+18
14256.0	2.1452628244299773e+18
14257.0	2.1449594772652027e+18
14258.0	2.1444966140084221e+18
14259.0	2.1440147874643965e+18
14260.0	2.143545527055155e+18
14261.0	2.1429379435331576e+18
14262.0	2.1423896506925053e+18
14263.0	2.1416533070708736e+18
14264.0	2.1413862641238008e+18
14265.0	2.1409689174540283e+18
14266.0	2.1404995580592125e+18
14267.0	2.1400271368224763e+18
14268.0	2.1395548397371387e+18
14269.0	2.1390812373843963e+18
14270.0	2.138610322741657e+18
14271.0	2.1381369150046205e+18
14272.0	2.1376658510446587e+18
14273.0	2.1371922184929275e+18
14274.0	2.1363183990079488e+18
14275.0	2.136211409023795e+18
14276.0	2.1357654437789686e+18
14277.0	2.1352970725621755e+18
14278.0	2.1348360279556093e+18
14279.0	2.1343641855328253e+18
14280.0	2.133889761096499e+18
14281.0	2.1334225558962173e+18
14282.0	2.1329516815187965e+18
14283.0	2.1324807316439037e+18
14284.0	2.132009857266483e+18
14285.0	2.1315389812113403e+18
14286.0	2.131067957516697e+18
14287.0	2.130597802881843e+18
14288.0	2.1301269637365757e+18
14289.0	2.1291735128735734e+18
14290.0	2.129184703276646e+18
14291.0	2.1287159747051517e+18
14292.0	2.128246529746534e+18
14293.0	2.1277752896258043e+18
14294.0	2.1272312313544701e+18
14295.0	2.1268285949476861e+18
14296.0	2.1259750104629245e+18
14297.0	2.1258961357373437e+18
14298.0	2.1253154544812027e+18
14299.0	2.1249499728969725e+18
14300.0	2.124484603124121e+18
14301.0	2.124016654693171e+18
14302.0	2.1235494796918784e+18
14303.0	2.1230610529910781e+18
14304.0	2.1226056421736445e+18
14305.0	2.1221417269854203e+18
14306.0	2.1216536828051453e+18
14307.0	2.1211965691002875e+18
14308.0	2.1207344406855675e+18
14309.0	2.12026193388503e+18
14310.0	2.1197030932086781e+18
14311.0	2.119290814935859e+18
14312.0	2.118834296822169e+18
14313.0	2.1183597364903933e+18
14314.0	2.1179231312543736e+18
14315.0	2.1174583906271224e+18
14316.0	2.1169440531939325e+18
14317.0	2.1164232145895421e+18
14318.0	2.115966777006489e+18
14319.0	2.1154996825358333e+18
14320.0	2.1150318951661565e+18
14321.0	2.114564713453977e+18
14322.0	2.1140750771159037e+18
14323.0	2.1136190740627453e+18
14324.0	2.1131627958632443e+18
14325.0	2.1126895156330493e+18
14326.0	2.1122285784006653e+18
14327.0	2.1117576000045053e+18
14328.0	2.1112912084991992e+18
14329.0	2.1108278033383421e+18
14330.0	2.110361047767449e+18
14331.0	2.1098941965664248e+18
14332.0	2.1094277614403581e+18
14333.0	2.1089612927598587e+18
14334.0	2.1084948744110075e+18
14335.0	2.1080216562565117e+18
14336.0	2.1075409772740605e+18
14337.0	2.1070958626340861e+18
14338.0	2.1066289711677437e+18
14339.0	2.1061571807543293e+18
14340.0	2.1056979833192443e+18
14341.0	2.1052311069523963e+18
14342.0	2.1047666465046525e+18
14343.0	2.1042976494977021e+18
14344.0	2.1038332964241405e+18
14345.0	2.103369966760755e+18
14346.0	2.1029026978070525e+18
14347.0	2.1024296440692733e+18
14348.0	2.1019733289598973e+18
14349.0	2.1015089440096248e+18
14350.0	2.101029610559897e+18
14351.0	2.1005604340367355e+18
14352.0	2.1001094826033152e+18
14353.0	2.0996486930104317e+18
14354.0	2.0991824592109565e+18
14355.0	2.098714644997734e+18
14356.0	2.0982513690214397e+18
14357.0	2.097791123010355e+18
14358.0	2.097326645785395e+18
14359.0	2.096852994778726e+18
14360.0	2.0963967518113787e+18
14361.0	2.0959335127449592e+18
14362.0	2.0954700287311864e+18
14363.0	2.095005789742694e+18
14364.0	2.09449452086231e+18
14365.0	2.0940676967432187e+18
14366.0	2.0936065212743677e+18
14367.0	2.0931505400315901e+18
14368.0	2.0926865443127293e+18
14369.0	2.0922232146493437e+18
14370.0	2.0917596937256955e+18
14371.0	2.0912962852093947e+18
14372.0	2.0908298937040893e+18
14373.0	2.0903693910015997e+18
14374.0	2.0899063247405056e+18
14375.0	2.0894431678824445e+18
14376.0	2.0889800865218557e+18
14377.0	2.088516743436697e+18
14378.0	2.0880526671871997e+18
14379.0	2.0875912232828925e+18
14380.0	2.0871013436751867e+18
14381.0	2.0865736784216061e+18
14382.0	2.0861166922235901e+18
14383.0	2.0856492152324093e+18
14384.0	2.085180389353062e+18
14385.0	2.0847295587155965e+18
14386.0	2.084258115590553e+18
14387.0	2.0838043824947197e+18
14388.0	2.083340885059174e+18
14389.0	2.0828795250409464e+18
14390.0	2.0824163983818747e+18
14391.0	2.0819551524487163e+18
14392.0	2.0814918462734336e+18
14393.0	2.0810311959314427e+18
14394.0	2.08054753731543e+18
14395.0	2.0800988759719933e+18
14396.0	2.0796452804493304e+18
14397.0	2.0791837258153981e+18
14398.0	2.078721068918374e+18
14399.0	2.0782600813543421e+18
14400.0	2.0777886013194237e+18
14401.0	2.0773331603030016e+18
14402.0	2.076873399153459e+18
14403.0	2.0750418019614697e+18
14404.0	2.0720647638351857e+18
14405.0	2.074691379606321e+18
14406.0	2.075027952369664e+18
14407.0	2.0726756038148099e+18
14408.0	2.074088535647846e+18
14409.0	2.0736375607263227e+18
14410.0	2.0731830709780477e+18
14411.0	2.0727257827901437e+18
14412.0	2.0722638624129021e+18
14413.0	2.0718050542092283e+18
14414.0	2.0713429627043837e+18
14415.0	2.0708830539153403e+18
14416.0	2.0704213969403901e+18
14417.0	2.0699544652087293e+18
14418.0	2.0694885518540792e+18
14419.0	2.069040695817011e+18
14420.0	2.068578322454937e+18
14421.0	2.0681201048092667e+18
14422.0	2.067658553530777e+18
14423.0	2.0671848219934715e+18
14424.0	2.0590072596266967e+18
14425.0	2.0662643450707963e+18
14426.0	2.0658185106882555e+18
14427.0	2.0653600195739643e+18
14428.0	2.064887443986841e+18
14429.0	2.0644376803803133e+18
14430.0	2.063980731092172e+18
14431.0	2.0634430246748155e+18
14432.0	2.063053070165606e+18
14433.0	2.061177479757823e+18
14434.0	2.0621319187988475e+18
14435.0	2.061667017110323e+18
14436.0	2.0612223051235328e+18
14437.0	2.0607629181059067e+18
14438.0	2.0602586050592763e+18
14439.0	2.059830796117606e+18
14440.0	2.059384299035033e+18
14441.0	2.0589222058524667e+18
14442.0	2.05846091965399e+18
14443.0	2.0579806466801661e+18
14444.0	2.0575450933755901e+18
14445.0	2.057087514941849e+18
14446.0	2.054883612871885e+18
14447.0	2.056157642778214e+18
14448.0	2.055711551704268e+18
14449.0	2.0552529129504763e+18
14450.0	2.0547906905833472e+18
14451.0	2.054334093616742e+18
14452.0	2.053873278858035e+18
14453.0	2.053390497690419e+18
14454.0	2.0529580532039677e+18
14455.0	2.0524966814416893e+18
14456.0	2.0520342577479675e+18
14457.0	2.051572745057075e+18
14458.0	2.051052470167142e+18
14459.0	2.0505797553291264e+18
14460.0	2.050120824651776e+18
14461.0	2.0496446553849848e+18
14462.0	2.0491696689119227e+18
14463.0	2.048739479283302e+18
14464.0	2.0482887157547005e+18
14465.0	2.047821376336691e+18
14466.0	2.0473747869794301e+18
14467.0	2.046888692311654e+18
14468.0	2.0464553787654144e+18
14469.0	2.0459849238183928e+18
14470.0	2.0455265266565115e+18
14471.0	2.0450778854457336e+18
14472.0	2.044621818639155e+18
14473.0	2.0441690351337467e+18
14474.0	2.043711126188851e+18
14475.0	2.0432504070602747e+18
14476.0	2.04270371644375e+18
14477.0	2.0423362299822077e+18
14478.0	2.0418782086299645e+18
14479.0	2.041419633629593e+18
14480.0	2.040952200259174e+18
14481.0	2.0405043979091963e+18
14482.0	2.0400441586089981e+18
14483.0	2.0395823103737848e+18
14484.0	2.039123773961011e+18
14485.0	2.0386500810113024e+18
14486.0	2.038045483833753e+18
14487.0	2.037755269873664e+18
14488.0	2.037288396862259e+18
14489.0	2.0368336940433408e+18
14490.0	2.0363808551731197e+18
14491.0	2.035924325315379e+18
14492.0	2.0354675605766144e+18
14493.0	2.0350066719981565e+18
14494.0	2.0345395758497787e+18
14495.0	2.0340936844247037e+18
14496.0	2.033559318351052e+18
14497.0	2.0331776735969275e+18
14498.0	2.0327204055416827e+18
14499.0	2.0322629344821245e+18
14500.0	2.0318048493764603e+18
14501.0	2.0313002527948797e+18
14502.0	2.0307392210141184e+18
14503.0	2.0304206736916477e+18
14504.0	2.0299703866359803e+18
14505.0	2.0294705296179197e+18
14506.0	2.0289670839533563e+18
14507.0	2.0284622709456893e+18
14508.0	2.028143500486246e+18
14509.0	2.027686133445427e+18
14510.0	2.027228566755737e+18
14511.0	2.0267708339716096e+18
14512.0	2.0263038703632381e+18
14513.0	2.025855376791961e+18
14514.0	2.025376400696934e+18
14515.0	2.0249392267132925e+18
14516.0	2.0232788359774216e+18
14517.0	2.0240227662561277e+18
14518.0	2.0235669292974077e+18
14519.0	2.0231094448160765e+18
14520.0	2.0226517455863803e+18
14521.0	2.0221935900164093e+18
14522.0	2.0217358136115197e+18
14523.0	2.021174785186201e+18
14524.0	2.0207161229443064e+18
14525.0	2.0203597547438077e+18
14526.0	2.0199055619522555e+18
14527.0	2.019433238023372e+18
14528.0	2.0189222912655355e+18
14529.0	2.0185257969975293e+18
14530.0	2.01806410982359e+18
14531.0	2.0176149317419003e+18
14532.0	2.0170228604338173e+18
14533.0	2.0166992430366717e+18
14534.0	2.016242946382233e+18
14535.0	2.0157780967030776e+18
14536.0	2.01532648760279e+18
14537.0	2.0148612302372861e+18
14538.0	2.0144102368608253e+18
14539.0	2.0139521349779453e+18
14540.0	2.0134937445269501e+18
14541.0	2.0130225094393848e+18
14542.0	2.0125765039292416e+18
14543.0	2.012048823576166e+18
14544.0	2.0116585033236477e+18
14545.0	2.011194807916953e+18
14546.0	2.0023914184835028e+18
14547.0	2.0027121938202568e+18
14548.0	2.009770100156006e+18
14549.0	2.0092245185134584e+18
14550.0	2.0088306750455805e+18
14551.0	2.008275765270937e+18
14552.0	2.0078084728291325e+18
14553.0	2.007346985304064e+18
14554.0	2.006891762391449e+18
14555.0	2.006432284776857e+18
14556.0	2.005971067364966e+18
14557.0	2.0055143496024061e+18
14558.0	2.0050541958660093e+18
14559.0	2.003709141293464e+18
14560.0	2.0041311251857405e+18
14561.0	2.003673732979097e+18
14562.0	2.0032034944581627e+18
14563.0	2.002757945288294e+18
14564.0	2.0022926023589883e+18
14565.0	2.001840508397158e+18
14566.0	2.0013811213795325e+18
14567.0	2.0009206102884347e+18
14568.0	2.000449482575052e+18
14569.0	2.0000010175250427e+18
14570.0	1.9992907909955581e+18
14571.0	1.9990795943673853e+18
14572.0	1.9985971286114301e+18
14573.0	1.9981337402277888e+18
14574.0	1.997684184658739e+18
14575.0	1.9972370903072765e+18
14576.0	1.9967762621267968e+18
14577.0	1.9963158382772221e+18
14578.0	1.9958585299566587e+18
14579.0	1.9953989684559872e+18
14580.0	1.9949383332134912e+18
14581.0	1.994473897931571e+18
14582.0	1.9940161097826301e+18
14583.0	1.9935552748912637e+18
14584.0	1.9930862007091197e+18
14585.0	1.992632489423667e+18
14586.0	1.9921691564048381e+18
14587.0	1.99170774269952e+18
14588.0	1.9912479698059261e+18
14589.0	1.9907968506003453e+18
14590.0	1.9903462430998525e+18
14591.0	1.989894615544627e+18
14592.0	1.9894407129989115e+18
14593.0	1.9889262732247035e+18
14594.0	1.9885413871124475e+18
14595.0	1.9880864846446587e+18
14596.0	1.987592751310438e+18
14597.0	1.9871394292563965e+18
14598.0	1.9867292263251963e+18
14599.0	1.986281751130931e+18
14600.0	1.985828413977395e+18
14601.0	1.985376274717081e+18
14602.0	1.9849210350272507e+18
14603.0	1.98447017754624e+18
14604.0	1.9839923842449405e+18
14605.0	1.9835566195474427e+18
14606.0	1.9830777273384955e+18
14607.0	1.982653119489638e+18
14608.0	1.9822036092190717e+18
14609.0	1.9817422944993277e+18
14610.0	1.9812876118130683e+18
14611.0	1.9808386501574648e+18
14612.0	1.9803888043425792e+18
14613.0	1.9799351970758648e+18
14614.0	1.9794789255872507e+18
14615.0	1.9790252512116736e+18
14616.0	1.978571236258611e+18
14617.0	1.9781159244267512e+18
14618.0	1.977655076113612e+18
14619.0	1.9771717278760952e+18
14620.0	1.9766383600467965e+18
14621.0	1.9762929524015101e+18
14622.0	1.9758368772063227e+18
14623.0	1.9753804027133947e+18
14624.0	1.9748898033631224e+18
14625.0	1.97446470729728e+18
14626.0	1.9740071154417661e+18
14627.0	1.9735462553845755e+18
14628.0	1.9730951814774781e+18
14629.0	1.9726373983617021e+18
14630.0	1.9721783535992827e+18
14631.0	1.971720300370329e+18
14632.0	1.9706571583913984e+18
14633.0	1.9707169674887163e+18
14634.0	1.9703422030708733e+18
14635.0	1.9698571670454262e+18
14636.0	1.969356513109606e+18
14637.0	1.968967639053107e+18
14638.0	1.9685052522692603e+18
14639.0	1.9680401962303483e+18
14640.0	1.967581777258086e+18
14641.0	1.9647372288065516e+18
14642.0	1.9666589800464381e+18
14643.0	1.9662025844064253e+18
14644.0	1.9657343625068544e+18
14645.0	1.9652661104082941e+18
14646.0	1.964808303804416e+18
14647.0	1.9643428635672573e+18
14648.0	1.963889091883827e+18
