# Flux units: erg / (cm m2 s)
# Wavelength units: Angstrom
wave	flux
14000.0	2.1117949695754237e+18
14001.0	2.111289587820134e+18
14002.0	2.1108139856232443e+18
14003.0	2.110322747061043e+18
14004.0	2.1098316360056827e+18
14005.0	2.1093404662300667e+18
14006.0	2.1088474778042365e+18
14007.0	2.108355724181504e+18
14008.0	2.1078390681370621e+18
14009.0	2.1073769883762683e+18
14010.0	2.1068825319440381e+18
14011.0	2.106237864063795e+18
14012.0	2.1059058261819392e+18
14013.0	2.1054158274559997e+18
14014.0	2.1049241560416248e+18
14015.0	2.104435348498022e+18
14016.0	2.1039463631159293e+18
14017.0	2.1034568123416568e+18
14018.0	2.102967048496742e+18
14019.0	2.102478048015155e+18
14020.0	2.1019886834679805e+18
14021.0	2.101499493403852e+18
14022.0	2.101008506499891e+18
14023.0	2.1005081780420603e+18
14024.0	2.1000245244592125e+18
14025.0	2.0995447095033853e+18
14026.0	2.099056301257523e+18
14027.0	2.0985687100620797e+18
14028.0	2.0980750337703933e+18
14029.0	2.0975697828773883e+18
14030.0	2.096417285446042e+18
14031.0	2.0965853394632701e+18
14032.0	2.09610655966167e+18
14033.0	2.0955997518430205e+18
14034.0	2.0951309259636728e+18
14035.0	2.094645074565529e+18
14036.0	2.094158162847334e+18
14037.0	2.0936702595956733e+18
14038.0	2.093184575969689e+18
14039.0	2.09269798469632e+18
14040.0	2.0922081285767165e+18
14041.0	2.0917239179902973e+18
14042.0	2.091236019771801e+18
14043.0	2.090742100210483e+18
14044.0	2.0902641424924672e+18
14045.0	2.0897804268339192e+18
14046.0	2.089283844728422e+18
14047.0	2.0887832797118461e+18
14048.0	2.0883008307331067e+18
14049.0	2.0878169036816381e+18
14050.0	2.0873317586042877e+18
14051.0	2.0868442009632765e+18
14052.0	2.0863617922498557e+18
14053.0	2.0858769072193533e+18
14054.0	2.0853924047093757e+18
14055.0	2.084907892133068e+18
14056.0	2.0844235204853757e+18
14057.0	2.0839392981549056e+18
14058.0	2.0834551899095035e+18
14059.0	2.0829712259481597e+18
14060.0	2.0824873811050493e+18
14061.0	2.0820019726254075e+18
14062.0	2.0815201276264443e+18
14063.0	2.0810321287446528e+18
14064.0	2.080460451820339e+18
14065.0	2.0800680277049336e+18
14066.0	2.0795689155952637e+18
14067.0	2.0790653239689216e+18
14068.0	2.0785995213438968e+18
14069.0	2.07811496682455e+18
14070.0	2.0776339338428408e+18
14071.0	2.077151144286617e+18
14072.0	2.0766695845003261e+18
14073.0	2.0761874341560315e+18
14074.0	2.0757054213849083e+18
14075.0	2.0752177496588288e+18
14076.0	2.0747224677875707e+18
14077.0	2.0741004659261437e+18
14078.0	2.0737666999910397e+18
14079.0	2.073295439737651e+18
14080.0	2.072816158297292e+18
14081.0	2.07233509008343e+18
14082.0	2.0718492823060477e+18
14083.0	2.071372896613171e+18
14084.0	2.0708925816963064e+18
14085.0	2.0702464609091581e+18
14086.0	2.0699192632541176e+18
14087.0	2.0694513768988667e+18
14088.0	2.0689602859761661e+18
14089.0	2.06845377511424e+18
14090.0	2.0679868131835901e+18
14091.0	2.067509798345113e+18
14092.0	2.067030156194611e+18
14093.0	2.0665506096742397e+18
14094.0	2.0660711134855165e+18
14095.0	2.0655916877611005e+18
14096.0	2.0650790330826747e+18
14097.0	2.064620157770137e+18
14098.0	2.06413921035223e+18
14099.0	2.0636758555230203e+18
14100.0	2.0631943276134397e+18
14101.0	2.0627189116436477e+18
14102.0	2.0622404220878845e+18
14103.0	2.0617588102922235e+18
14104.0	2.0612842667376637e+18
14105.0	2.0608054751920128e+18
14106.0	2.0603284318322688e+18
14107.0	2.0598484189052925e+18
14108.0	2.0593697095679997e+18
14109.0	2.0588942197784573e+18
14110.0	2.0584125106749435e+18
14111.0	2.0579302210797565e+18
14112.0	2.0574637591101435e+18
14113.0	2.056970597878988e+18
14114.0	2.0564843673157627e+18
14115.0	2.0560101794381821e+18
14116.0	2.0554885489491963e+18
14117.0	2.0539889997053952e+18
14118.0	2.0545826463940605e+18
14119.0	2.0540885036957693e+18
14120.0	2.053613252142694e+18
14121.0	2.053146989821952e+18
14122.0	2.0526565498552317e+18
14123.0	2.0521723929559035e+18
14124.0	2.0516918515466237e+18
14125.0	2.0511230586257403e+18
14126.0	2.0507690895671293e+18
14127.0	2.0503022182334461e+18
14128.0	2.0498268928606205e+18
14129.0	2.0493490223841275e+18
14130.0	2.0488710915096573e+18
14131.0	2.048402802501222e+18
14132.0	2.0479267355754493e+18
14133.0	2.0473031801438203e+18
14134.0	2.046979604689715e+18
14135.0	2.0464969157967864e+18
14136.0	2.0459613182754816e+18
14137.0	2.045556002547302e+18
14138.0	2.0450686042898427e+18
14139.0	2.0446103715446781e+18
14140.0	2.0441278168694776e+18
14141.0	2.043639720679833e+18
14142.0	2.043068057177292e+18
14143.0	2.0426862446510077e+18
14144.0	2.0422235424555005e+18
14145.0	2.041750762186342e+18
14146.0	2.0412762270203901e+18
14147.0	2.040804028920627e+18
14148.0	2.0403272053424125e+18
14149.0	2.0398524118073336e+18
14150.0	2.0393884278325245e+18
14151.0	2.0389041987911677e+18
14152.0	2.0384445164945403e+18
14153.0	2.0379726472282112e+18
14154.0	2.0374935251714043e+18
14155.0	2.0368628461338624e+18
14156.0	2.0365468372041725e+18
14157.0	2.036086351278899e+18
14158.0	2.0356129703854077e+18
14159.0	2.0351443005341693e+18
14160.0	2.0346728087552e+18
14161.0	2.0341850665648125e+18
14162.0	2.0337022753308664e+18
14163.0	2.033260950663987e+18
14164.0	2.032750985373286e+18
14165.0	2.03222631317504e+18
14166.0	2.0318495724011515e+18
14167.0	2.0313764465213437e+18
14168.0	2.03090371322839e+18
14169.0	2.0304357698306043e+18
14170.0	2.02996104340439e+18
14171.0	2.0294945193590784e+18
14172.0	2.0290197140799488e+18
14173.0	2.0284930940469245e+18
14174.0	2.0280654511996925e+18
14175.0	2.0275988181024763e+18
14176.0	2.0271276333465592e+18
14177.0	2.0266603711037435e+18
14178.0	2.026191278466662e+18
14179.0	2.0257146411155453e+18
14180.0	2.0252554973675515e+18
14181.0	2.024787205003673e+18
14182.0	2.024318827075993e+18
14183.0	2.0238509977632763e+18
14184.0	2.023381621591244e+18
14185.0	2.0229151646547963e+18
14186.0	2.0222390126510077e+18
14187.0	2.02197303337943e+18
14188.0	2.021512376326553e+18
14189.0	2.021042530392473e+18
14190.0	2.0205765750947837e+18
14191.0	2.0201086434410493e+18
14192.0	2.0196418996142077e+18
14193.0	2.0191424016285693e+18
14194.0	2.018708636775219e+18
14195.0	2.0182443793317883e+18
14196.0	2.017777912329011e+18
14197.0	2.0173116449751037e+18
14198.0	2.016844127718604e+18
14199.0	2.0163778737864701e+18
14200.0	2.015790860809011e+18
14201.0	2.0154452283490296e+18
14202.0	2.0149822392631293e+18
14203.0	2.0145063434649597e+18
14204.0	2.0140504242978816e+18
14205.0	2.0135852290080768e+18
14206.0	2.0130857830318077e+18
14207.0	2.0126557846634493e+18
14208.0	2.0121887858229243e+18
14209.0	2.0116683347722237e+18
14210.0	2.0112170696048637e+18
14211.0	2.0107765284339707e+18
14212.0	2.0103119790669821e+18
14213.0	2.009844381279846e+18
14214.0	2.0093835262558203e+18
14215.0	2.0089162556243965e+18
14216.0	2.008455781443174e+18
14217.0	2.0079919635628027e+18
14218.0	2.007524751651635e+18
14219.0	2.0070646633463805e+18
14220.0	2.006601261540966e+18
14221.0	2.0061337795166205e+18
14222.0	2.0056441096241147e+18
14223.0	2.005210532675584e+18
14224.0	2.004748632431001e+18
14225.0	2.0039437505265661e+18
14226.0	2.003822697879961e+18
14227.0	2.0033605728206843e+18
14228.0	2.0021115778760701e+18
14229.0	2.0023276264751096e+18
14230.0	2.001973610440294e+18
14231.0	2.0014831553740792e+18
14232.0	2.0010495666814973e+18
14233.0	2.0005856766590973e+18
14234.0	2.0001260346277883e+18
14235.0	1.999663770317619e+18
14236.0	1.9992026502135805e+18
14237.0	1.9987412214087677e+18
14238.0	1.9982802707546107e+18
14239.0	1.9978157398425597e+18
14240.0	1.9969719683514365e+18
14241.0	1.996894252931481e+18
14242.0	1.996435582300979e+18
14243.0	1.9959328362463232e+18
14244.0	1.9955156489601021e+18
14245.0	1.9950506315087872e+18
14246.0	1.9945861425397755e+18
14247.0	1.9941348035526648e+18
14248.0	1.9936711064682496e+18
14249.0	1.993190617068339e+18
14250.0	1.9927210177593344e+18
14251.0	1.992262055205273e+18
14252.0	1.9918024853159928e+18
14253.0	1.9913428583841787e+18
14254.0	1.9908830435475448e+18
14255.0	1.990416153758924e+18
14256.0	1.9896256197296128e+18
14257.0	1.989501431421337e+18
14258.0	1.9890476563824635e+18
14259.0	1.9885845481783293e+18
14260.0	1.988120290734899e+18
14261.0	1.9876657590435837e+18
14262.0	1.9872217936429053e+18
14263.0	1.9862636619366403e+18
14264.0	1.9862310638059515e+18
14265.0	1.985842741719859e+18
14266.0	1.9853897820536824e+18
14267.0	1.984931946928537e+18
14268.0	1.9844744607694845e+18
14269.0	1.9840163051995133e+18
14270.0	1.9835595958255608e+18
14271.0	1.9831008060768256e+18
14272.0	1.9826448533553152e+18
14273.0	1.9821875769114621e+18
14274.0	1.9810002583683075e+18
14275.0	1.9812083495337984e+18
14276.0	1.9808067013050365e+18
14277.0	1.9803539932971005e+18
14278.0	1.979904790049587e+18
14279.0	1.979448360855142e+18
14280.0	1.978990163342131e+18
14281.0	1.9785362557632507e+18
14282.0	1.9780803936387064e+18
14283.0	1.97762457010176e+18
14284.0	1.9771688187068408e+18
14285.0	1.9767130522124283e+18
14286.0	1.9762563059286008e+18
14287.0	1.975802364795289e+18
14288.0	1.975347115039129e+18
14289.0	1.9746448677535734e+18
14290.0	1.9744350082695165e+18
14291.0	1.9739818892197883e+18
14292.0	1.9735274095378432e+18
14293.0	1.973072169848012e+18
14294.0	1.972579151223193e+18
14295.0	1.972159625193062e+18
14296.0	1.9715088655056896e+18
14297.0	1.9712553751937021e+18
14298.0	1.970640033887027e+18
14299.0	1.9703200588234747e+18
14300.0	1.9698718353653752e+18
14301.0	1.9694196071858173e+18
14302.0	1.9689660250849277e+18
14303.0	1.9685022323703803e+18
14304.0	1.9680560439885821e+18
14305.0	1.9676046563475448e+18
14306.0	1.9671247608610816e+18
14307.0	1.966688910599782e+18
14308.0	1.9662436533534715e+18
14309.0	1.965785378665267e+18
14310.0	1.9652154163724288e+18
14311.0	1.9647302108971005e+18
14312.0	1.9643919620898816e+18
14313.0	1.963958099928678e+18
14314.0	1.9635233250869245e+18
14315.0	1.9630783782191101e+18
14316.0	1.9626126259257341e+18
14317.0	1.9621497341476861e+18
14318.0	1.9617241934856187e+18
14319.0	1.9612729299959803e+18
14320.0	1.9608213796159483e+18
14321.0	1.9603702100787197e+18
14322.0	1.959906623723929e+18
14323.0	1.9594634434969597e+18
14324.0	1.9590156747014141e+18
14325.0	1.9585629062955005e+18
14326.0	1.958106351271936e+18
14327.0	1.957634075996979e+18
14328.0	1.9571838275289083e+18
14329.0	1.9567351494082555e+18
14330.0	1.9562847918882816e+18
14331.0	1.955831157778022e+18
14332.0	1.955384415748096e+18
14333.0	1.954934415582822e+18
14334.0	1.9544845194362877e+18
14335.0	1.9540294374522877e+18
14336.0	1.9535443695501307e+18
14337.0	1.9531353074696187e+18
14338.0	1.952685441522073e+18
14339.0	1.9522331848212475e+18
14340.0	1.9517873420500987e+18
14341.0	1.9513351591690235e+18
14342.0	1.950889418738892e+18
14343.0	1.9504363751866365e+18
14344.0	1.949989336199987e+18
14345.0	1.949543110908313e+18
14346.0	1.9490926913126392e+18
14347.0	1.9486271856443387e+18
14348.0	1.948197044669644e+18
14349.0	1.94774966510551e+18
14350.0	1.947273281090355e+18
14351.0	1.9468219421032443e+18
14352.0	1.9464033757298683e+18
14353.0	1.945949656055808e+18
14354.0	1.9454878229200893e+18
14355.0	1.9450334657118205e+18
14356.0	1.944589315761766e+18
14357.0	1.9441491084574715e+18
14358.0	1.9437018513670141e+18
14359.0	1.9432500174520317e+18
14360.0	1.942805005153075e+18
14361.0	1.9423599894986747e+18
14362.0	1.9419139957325821e+18
14363.0	1.9414671748497405e+18
14364.0	1.940919647050137e+18
14365.0	1.9405603243819003e+18
14366.0	1.9401122217197565e+18
14367.0	1.9396817603002365e+18
14368.0	1.939235476288307e+18
14369.0	1.9387895815077883e+18
14370.0	1.9383437420920832e+18
14371.0	1.9378980704485373e+18
14372.0	1.937450372117299e+18
14373.0	1.937006671796633e+18
14374.0	1.9365612551667712e+18
14375.0	1.936115868735897e+18
14376.0	1.9356705880014843e+18
14377.0	1.935225250224537e+18
14378.0	1.9347796205240317e+18
14379.0	1.9343353984319483e+18
14380.0	1.9338904029102077e+18
14381.0	1.9334422062956536e+18
14382.0	1.9330007205675005e+18
14383.0	1.932550121455616e+18
14384.0	1.9321060100931581e+18
14385.0	1.9316679636942843e+18
14386.0	1.9312193191280637e+18
14387.0	1.9307795614531581e+18
14388.0	1.9303349534851064e+18
14389.0	1.929891682661171e+18
14390.0	1.9294473481617403e+18
14391.0	1.9290041108922365e+18
14392.0	1.9285585281679355e+18
14393.0	1.9281172655767547e+18
14394.0	1.927662883202662e+18
14395.0	1.927211173439078e+18
14396.0	1.9267865874006008e+18
14397.0	1.9263444792377341e+18
14398.0	1.9258999920656381e+18
14399.0	1.9254578604146683e+18
14400.0	1.9250023841660928e+18
14401.0	1.9245712466247675e+18
14402.0	1.924130386686771e+18
14403.0	1.9222021594415076e+18
14404.0	1.919262658658303e+18
14405.0	1.9224302322712558e+18
14406.0	1.9223614423302144e+18
14407.0	1.9197077095448584e+18
14408.0	1.9214545264312315e+18
14409.0	1.9210308295852032e+18
14410.0	1.920586827274649e+18
14411.0	1.920151668234649e+18
14412.0	1.9197104308092928e+18
14413.0	1.9192699953348603e+18
14414.0	1.9188279576363003e+18
14415.0	1.91838710440919e+18
14416.0	1.9179409126719488e+18
14417.0	1.9174764706791424e+18
14418.0	1.917022979175219e+18
14419.0	1.916604647682867e+18
14420.0	1.9161629824385021e+18
14421.0	1.9157234931990525e+18
14422.0	1.9152828396208125e+18
14423.0	1.914837797122867e+18
14424.0	1.905442930294778e+18
14425.0	1.9139593605480443e+18
14426.0	1.9135219885932541e+18
14427.0	1.913082244340121e+18
14428.0	1.9126345694969853e+18
14429.0	1.9122016284049405e+18
14430.0	1.9117628740075517e+18
14431.0	1.9111657695346688e+18
14432.0	1.9108763575255037e+18
14433.0	1.9087945281568755e+18
14434.0	1.9100002429173752e+18
14435.0	1.9095402099769336e+18
14436.0	1.909126654957977e+18
14437.0	1.9086877629874179e+18
14438.0	1.908188330432921e+18
14439.0	1.9077981913743355e+18
14440.0	1.907371033388646e+18
14441.0	1.9069310659985405e+18
14442.0	1.9064911120302077e+18
14443.0	1.9060421453414392e+18
14444.0	1.9056159570788352e+18
14445.0	1.9051788149719037e+18
14446.0	1.9029374208573443e+18
14447.0	1.9042985362587643e+18
14448.0	1.9038647479173117e+18
14449.0	1.9034268625797117e+18
14450.0	1.9029749800108027e+18
14451.0	1.9025345982234621e+18
14452.0	1.9020959159681021e+18
14453.0	1.9016270145912827e+18
14454.0	1.901221960587673e+18
14455.0	1.900783229678387e+18
14456.0	1.9003389270556664e+18
14457.0	1.899898741561753e+18
14458.0	1.8994647267278843e+18
14459.0	1.8990299032322043e+18
14460.0	1.8985931419680765e+18
14461.0	1.8981293005996027e+18
14462.0	1.8975784509112317e+18
14463.0	1.8972746490839035e+18
14464.0	1.896848796365619e+18
14465.0	1.8964090487570427e+18
14466.0	1.8959790470332416e+18
14467.0	1.8955172776509435e+18
14468.0	1.8951048550940672e+18
14469.0	1.8946545579720704e+18
14470.0	1.8942268463382525e+18
14471.0	1.893794859869798e+18
14472.0	1.8933607561166845e+18
14473.0	1.892928229421875e+18
14474.0	1.8924926559846397e+18
14475.0	1.892054931708313e+18
14476.0	1.8915142339133435e+18
14477.0	1.891185806488371e+18
14478.0	1.890750813542809e+18
14479.0	1.8903142619938816e+18
14480.0	1.8898757340889083e+18
14481.0	1.8894460142223355e+18
14482.0	1.8890101186625533e+18
14483.0	1.8885730268872704e+18
14484.0	1.8881396328103928e+18
14485.0	1.8876948453261307e+18
14486.0	1.887187371452006e+18
14487.0	1.8868359793737725e+18
14488.0	1.8863651133849597e+18
14489.0	1.8859524844683261e+18
14490.0	1.8855302623395837e+18
14491.0	1.8851001951846397e+18
14492.0	1.8846656720011261e+18
14493.0	1.884229150651187e+18
14494.0	1.8837910371434493e+18
14495.0	1.8833521049075707e+18
14496.0	1.8828739727065083e+18
14497.0	1.8824787920945147e+18
14498.0	1.882044829270016e+18
14499.0	1.8816116549746683e+18
14500.0	1.8811779471638525e+18
14501.0	1.8806935235067904e+18
14502.0	1.880190289235149e+18
14503.0	1.8798639086305275e+18
14504.0	1.8794427803762688e+18
14505.0	1.8789635928883197e+18
14506.0	1.878469993771827e+18
14507.0	1.8780751436709883e+18
14508.0	1.8777119001673725e+18
14509.0	1.8772789557198843e+18
14510.0	1.8768460582486013e+18
14511.0	1.8764132262084603e+18
14512.0	1.8759756948701181e+18
14513.0	1.8755477315780605e+18
14514.0	1.8751000852561917e+18
14515.0	1.8746815943802875e+18
14516.0	1.8736405026963456e+18
14517.0	1.8738172959653888e+18
14518.0	1.8733850729381883e+18
14519.0	1.87295286165504e+18
14520.0	1.8725205849407488e+18
14521.0	1.8720876740476925e+18
14522.0	1.8716533136031741e+18
14523.0	1.8710940266528765e+18
14524.0	1.8706734000373755e+18
14525.0	1.8703585202143232e+18
14526.0	1.8699282852872187e+18
14527.0	1.8694889269100541e+18
14528.0	1.8690196631453693e+18
14529.0	1.8686298394984445e+18
14530.0	1.8681966215823355e+18
14531.0	1.8677691901280256e+18
14532.0	1.8671734446096381e+18
14533.0	1.8669062758334461e+18
14534.0	1.866475324519219e+18
14535.0	1.8660404288815104e+18
14536.0	1.8656124622340093e+18
14537.0	1.8651776152502272e+18
14538.0	1.8647498633510907e+18
14539.0	1.8643189103591424e+18
14540.0	1.8638877661069307e+18
14541.0	1.8634503555645437e+18
14542.0	1.8630255715549184e+18
14543.0	1.862520513599897e+18
14544.0	1.8621634675998715e+18
14545.0	1.8617300819116027e+18
14546.0	1.8514257087823805e+18
14547.0	1.852096534020088e+18
14548.0	1.86043641930711e+18
14549.0	1.859975282425856e+18
14550.0	1.8595771305689083e+18
14551.0	1.8591484559228925e+18
14552.0	1.8587168469417981e+18
14553.0	1.8582846675353597e+18
14554.0	1.8578567394754555e+18
14555.0	1.8574258166824955e+18
14556.0	1.8569925736005627e+18
14557.0	1.8565650398052347e+18
14558.0	1.8561341304340475e+18
14559.0	1.855223672864767e+18
14560.0	1.855241824134758e+18
14561.0	1.8548415264718843e+18
14562.0	1.8544026965770235e+18
14563.0	1.8539826689081341e+18
14564.0	1.8535360829063165e+18
14565.0	1.8531229624172541e+18
14566.0	1.8526928013099005e+18
14567.0	1.8522616704794621e+18
14568.0	1.8517929217753083e+18
14569.0	1.8514018750693376e+18
14570.0	1.8508218833567744e+18
14571.0	1.8505411468460027e+18
14572.0	1.85008491897815e+18
14573.0	1.8496640339935232e+18
14574.0	1.84919539098583e+18
14575.0	1.848770373772902e+18
14576.0	1.8483401690447872e+18
14577.0	1.8479142911606781e+18
14578.0	1.8474860225232893e+18
14579.0	1.847056753963827e+18
14580.0	1.8466270978506747e+18
14581.0	1.8461925461458944e+18
14582.0	1.8457648563224576e+18
14583.0	1.845337265484595e+18
14584.0	1.8448992257966075e+18
14585.0	1.8444734989074424e+18
14586.0	1.8440295335067645e+18
14587.0	1.8435982114160637e+18
14588.0	1.843171045041766e+18
14589.0	1.842755829078425e+18
14590.0	1.8423419754250235e+18
14591.0	1.8419257947717632e+18
14592.0	1.8415131725660155e+18
14593.0	1.8410658886320125e+18
14594.0	1.8406857806708728e+18
14595.0	1.8402698130882555e+18
14596.0	1.839771913971302e+18
14597.0	1.8393490073321472e+18
14598.0	1.8390211889201147e+18
14599.0	1.8386143095554043e+18
14600.0	1.8381969326866427e+18
14601.0	1.837784330613555e+18
14602.0	1.8373610062217208e+18
14603.0	1.8369550261157883e+18
14604.0	1.8365209844383741e+18
14605.0	1.8361039498248187e+18
14606.0	1.835687505769267e+18
14607.0	1.8352966603898875e+18
14608.0	1.8348817548050424e+18
14609.0	1.8344557695467515e+18
14610.0	1.8340141898661885e+18
14611.0	1.8336313891618813e+18
14612.0	1.833223352169267e+18
14613.0	1.8328094163075064e+18
14614.0	1.832393634951987e+18
14615.0	1.8319511878893565e+18
14616.0	1.8315254911991805e+18
14617.0	1.8311101544398845e+18
14618.0	1.8306762939564032e+18
14619.0	1.8302287063547896e+18
14620.0	1.8296297010233341e+18
14621.0	1.8294476145426432e+18
14622.0	1.8290308265541632e+18
14623.0	1.828615743130828e+18
14624.0	1.8281825906458621e+18
14625.0	1.8277822862721021e+18
14626.0	1.827364139329126e+18
14627.0	1.8269442022572027e+18
14628.0	1.8265343835242493e+18
14629.0	1.8261176978767872e+18
14630.0	1.8256988513239037e+18
14631.0	1.8252831152668672e+18
14632.0	1.8241422964555779e+18
14633.0	1.8243620393975803e+18
14634.0	1.8240278859087872e+18
14635.0	1.823441778900991e+18
14636.0	1.8226482820153341e+18
14637.0	1.8227795435978747e+18
14638.0	1.8223560749219837e+18
14639.0	1.8219366931759104e+18
14640.0	1.8215235827531776e+18
14641.0	1.8183247733194732e+18
14642.0	1.8206859835998203e+18
14643.0	1.82026783162368e+18
14644.0	1.819844493810073e+18
14645.0	1.8194225619271675e+18
14646.0	1.8189875119390715e+18
14647.0	1.8185659525103613e+18
14648.0	1.8181667319447547e+18
