# Flux units: erg / (cm m2 s)
# Wavelength units: Angstrom
wave	flux
14000.0	1.841603727589375e+18
14001.0	1.8412474332086272e+18
14002.0	1.8409479833911293e+18
14003.0	1.840575118154137e+18
14004.0	1.840199264894976e+18
14005.0	1.8398233059393533e+18
14006.0	1.8394414883799037e+18
14007.0	1.839064905311846e+18
14008.0	1.8386194769379328e+18
14009.0	1.8383185272373243e+18
14010.0	1.8379344380428283e+18
14011.0	1.8370812444671997e+18
14012.0	1.8371936551698427e+18
14013.0	1.8368185669517307e+18
14014.0	1.836438977406566e+18
14015.0	1.836066469524275e+18
14016.0	1.8356932569989117e+18
14017.0	1.8353184086949885e+18
14018.0	1.8349433708085243e+18
14019.0	1.8345688278499325e+18
14020.0	1.834193610447257e+18
14021.0	1.8338184215658493e+18
14022.0	1.8334339666280443e+18
14023.0	1.8330315097374717e+18
14024.0	1.8326660717740027e+18
14025.0	1.8323198135238656e+18
14026.0	1.8319464651030523e+18
14027.0	1.8315739874197504e+18
14028.0	1.8312000064978941e+18
14029.0	1.830825488705126e+18
14030.0	1.8277793737474066e+18
14031.0	1.8299762931400694e+18
14032.0	1.8297015729389563e+18
14033.0	1.8292715343052797e+18
14034.0	1.828953109456486e+18
14035.0	1.8285846465609725e+18
14036.0	1.8282044966567939e+18
14037.0	1.8278371880337408e+18
14038.0	1.8274657421492224e+18
14039.0	1.8270896087105533e+18
14040.0	1.8267129165905917e+18
14041.0	1.826343663488204e+18
14042.0	1.8259644480749565e+18
14043.0	1.8255707639906304e+18
14044.0	1.8252201923182587e+18
14045.0	1.8248538399965184e+18
14046.0	1.8244814109671421e+18
14047.0	1.8240978670321661e+18
14048.0	1.8237345245429755e+18
14049.0	1.8233681655103485e+18
14050.0	1.8229962968399872e+18
14051.0	1.8226176619184123e+18
14052.0	1.8222525091676155e+18
14053.0	1.821880897188659e+18
14054.0	1.8215093607071744e+18
14055.0	1.821137830936576e+18
14056.0	1.8207662810333181e+18
14057.0	1.820396524614451e+18
14058.0	1.8200258337046528e+18
14059.0	1.8196546696773627e+18
14060.0	1.819283594569318e+18
14061.0	1.8189073051025408e+18
14062.0	1.8185416708456443e+18
14063.0	1.8181583131377661e+18
14064.0	1.8173188382916605e+18
14065.0	1.8174227714670587e+18
14066.0	1.8170585716621307e+18
14067.0	1.8166481674043395e+18
14068.0	1.816318109233971e+18
14069.0	1.8159414288580603e+18
14070.0	1.8155757778239485e+18
14071.0	1.8152052647526397e+18
14072.0	1.814837477978931e+18
14073.0	1.8144675437215744e+18
14074.0	1.8140976883171325e+18
14075.0	1.8137122217132027e+18
14076.0	1.8133132393840637e+18
14077.0	1.8123592231288835e+18
14078.0	1.8125721528434685e+18
14079.0	1.8122418614697981e+18
14080.0	1.8118805423128576e+18
14081.0	1.8115113412198392e+18
14082.0	1.8111373502316541e+18
14083.0	1.8107719995097085e+18
14084.0	1.8104038855802877e+18
14085.0	1.8095237779947515e+18
14086.0	1.8096162623979512e+18
14087.0	1.8092977133977597e+18
14088.0	1.8089114733641725e+18
14089.0	1.8085277633347581e+18
14090.0	1.8081815923261437e+18
14091.0	1.8078238316167168e+18
14092.0	1.8074556858105853e+18
14093.0	1.8070875047723005e+18
14094.0	1.8066845193994237e+18
14095.0	1.8062618157645821e+18
14096.0	1.8057680287432696e+18
14097.0	1.805492983064166e+18
14098.0	1.80510118641664e+18
14099.0	1.8047910209912827e+18
14100.0	1.8044143120941053e+18
14101.0	1.8040564775649277e+18
14102.0	1.803688976003891e+18
14103.0	1.80331026055168e+18
14104.0	1.8029547899322365e+18
14105.0	1.8025871759638525e+18
14106.0	1.8022206458036221e+18
14107.0	1.801852164453171e+18
14108.0	1.8014729540730877e+18
14109.0	1.8011157855993856e+18
14110.0	1.8007454872764413e+18
14111.0	1.8003741386997755e+18
14112.0	1.8000124856762365e+18
14113.0	1.7996334296465405e+18
14114.0	1.7992760447467517e+18
14115.0	1.7989160795111421e+18
14116.0	1.7984507349041152e+18
14117.0	1.7936010105061379e+18
14118.0	1.7978209786134525e+18
14119.0	1.7973793905442813e+18
14120.0	1.7970280789966848e+18
14121.0	1.7967072130629624e+18
14122.0	1.7962537333030907e+18
14123.0	1.7959136289357821e+18
14124.0	1.7955343447359488e+18
14125.0	1.7949008202825723e+18
14126.0	1.7948805550833661e+18
14127.0	1.7945337935167485e+18
14128.0	1.7941678706917376e+18
14129.0	1.7937945759580155e+18
14130.0	1.793423391798067e+18
14131.0	1.7930713856737277e+18
14132.0	1.7927045048696827e+18
14133.0	1.7919215373647862e+18
14134.0	1.7919801435357181e+18
14135.0	1.7915837046325243e+18
14136.0	1.7910921674358784e+18
14137.0	1.7908765651107837e+18
14138.0	1.7904674359214075e+18
14139.0	1.7901584147021821e+18
14140.0	1.7897849857507325e+18
14141.0	1.7894053592956925e+18
14142.0	1.7886988975734781e+18
14143.0	1.7886948458758144e+18
14144.0	1.7883396118151165e+18
14145.0	1.787975250948915e+18
14146.0	1.7876050818105341e+18
14147.0	1.7872439170039805e+18
14148.0	1.786868941193216e+18
14149.0	1.7865060483334144e+18
14150.0	1.7861598521589755e+18
14151.0	1.7857691611299835e+18
14152.0	1.7854338953117693e+18
14153.0	1.7850708783005693e+18
14154.0	1.7846887201636347e+18
14155.0	1.7838803653754877e+18
14156.0	1.7838913041203195e+18
14157.0	1.7836194645671933e+18
14158.0	1.7832527817342976e+18
14159.0	1.78289502102487e+18
14160.0	1.7825257662447613e+18
14161.0	1.7821265540677627e+18
14162.0	1.7817257161785336e+18
14163.0	1.7814446156021755e+18
14164.0	1.7808499069157376e+18
14165.0	1.780237783479091e+18
14166.0	1.7799579697151997e+18
14167.0	1.779587978415308e+18
14168.0	1.7792204516884475e+18
14169.0	1.7788760003444733e+18
14170.0	1.7785026519236605e+18
14171.0	1.778149572057497e+18
14172.0	1.7777920445513723e+18
14173.0	1.777377818443776e+18
14174.0	1.777061364917862e+18
14175.0	1.7767080166162432e+18
14176.0	1.7763280210624512e+18
14177.0	1.7759522382675965e+18
14178.0	1.7755911003045885e+18
14179.0	1.7752211610140672e+18
14180.0	1.7748712436531195e+18
14181.0	1.7745106375278587e+18
14182.0	1.7741494609772541e+18
14183.0	1.7737896031158272e+18
14184.0	1.7734251768184832e+18
14185.0	1.773068291879731e+18
14186.0	1.7718794885529597e+18
14187.0	1.772328164995891e+18
14188.0	1.7719875623452664e+18
14189.0	1.7716203174756347e+18
14190.0	1.771261972919091e+18
14191.0	1.7708985415106552e+18
14192.0	1.7705424719446013e+18
14193.0	1.7700483628007421e+18
14194.0	1.7698050680029181e+18
14195.0	1.7694379506401277e+18
14196.0	1.7690783310151675e+18
14197.0	1.7687189546598397e+18
14198.0	1.7683560030797821e+18
14199.0	1.7679978061627387e+18
14200.0	1.7671374956920835e+18
14201.0	1.767242599917158e+18
14202.0	1.7669220225515523e+18
14203.0	1.7665523416301565e+18
14204.0	1.7662033369497597e+18
14205.0	1.7658447759671293e+18
14206.0	1.7653901251575803e+18
14207.0	1.765129405543219e+18
14208.0	1.7647712556023803e+18
14209.0	1.7643114306994168e+18
14210.0	1.763979377718067e+18
14211.0	1.7636926131535872e+18
14212.0	1.7633375250546685e+18
14213.0	1.7629714797559805e+18
14214.0	1.7625993158066176e+18
14215.0	1.7622200316067837e+18
14216.0	1.7618740602470397e+18
14217.0	1.7615164790538237e+18
14218.0	1.7611498733961216e+18
14219.0	1.760801071720038e+18
14220.0	1.760438734186086e+18
14221.0	1.7600748229492739e+18
14222.0	1.7596595717537787e+18
14223.0	1.7593674753900544e+18
14224.0	1.7590136137056253e+18
14225.0	1.7570900236828682e+18
14226.0	1.7582879068389368e+18
14227.0	1.7579422274027515e+18
14228.0	1.7538641811210248e+18
14229.0	1.7562862809513956e+18
14230.0	1.7568718074675197e+18
14231.0	1.7564485266964475e+18
14232.0	1.7561585761386493e+18
14233.0	1.755797892838195e+18
14234.0	1.7554458598703104e+18
14235.0	1.755087515313766e+18
14236.0	1.7547330513272827e+18
14237.0	1.7543478581919741e+18
14238.0	1.753988864357171e+18
14239.0	1.7536198864011261e+18
14240.0	1.7520353555251197e+18
14241.0	1.7529087505465344e+18
14242.0	1.752558727489126e+18
14243.0	1.7520879453863933e+18
14244.0	1.7518532640112635e+18
14245.0	1.7514825093480448e+18
14246.0	1.7511228729458685e+18
14247.0	1.7507829816492027e+18
14248.0	1.7504184731435005e+18
14249.0	1.7500742046711803e+18
14250.0	1.749718777672499e+18
14251.0	1.7493655182901243e+18
14252.0	1.749010327850188e+18
14253.0	1.7486545518854144e+18
14254.0	1.748298339713024e+18
14255.0	1.7479187468124157e+18
14256.0	1.7460338635046922e+18
14257.0	1.7471376700997627e+18
14258.0	1.7468808595767293e+18
14259.0	1.7465115762753528e+18
14260.0	1.7461218214150144e+18
14261.0	1.745802649980108e+18
14262.0	1.7454556753428475e+18
14263.0	1.7428461924646922e+18
14264.0	1.7442470077923323e+18
14265.0	1.744377495945216e+18
14266.0	1.7440306823692285e+18
14267.0	1.743678169572966e+18
14268.0	1.7433226251337728e+18
14269.0	1.7429659415216125e+18
14270.0	1.7426166063300603e+18
14271.0	1.742261271606067e+18
14272.0	1.741908532317388e+18
14273.0	1.741552147339673e+18
14274.0	1.7377176793907215e+18
14275.0	1.7405314735276032e+18
14276.0	1.7404784826908672e+18
14277.0	1.740127120811622e+18
14278.0	1.739788721009459e+18
14279.0	1.739434694908313e+18
14280.0	1.7390775666999296e+18
14281.0	1.7387299964715005e+18
14282.0	1.7383773679124477e+18
14283.0	1.7380245732589563e+18
14284.0	1.737671778605465e+18
14285.0	1.7373183950716925e+18
14286.0	1.7369598928093184e+18
14287.0	1.7366139214495741e+18
14288.0	1.7362615596482557e+18
14289.0	1.7351124881244147e+18
14290.0	1.7355248083402752e+18
14291.0	1.7351739095121912e+18
14292.0	1.7348225140785147e+18
14293.0	1.7344685785743352e+18
14294.0	1.7340092033007608e+18
14295.0	1.733755483140915e+18
14296.0	1.732773106679808e+18
14297.0	1.7330599366754304e+18
14298.0	1.7321780473495547e+18
14299.0	1.7323390046044152e+18
14300.0	1.7320018614157312e+18
14301.0	1.7316532375781368e+18
14302.0	1.731303484633907e+18
14303.0	1.7309253446402048e+18
14304.0	1.730587793765171e+18
14305.0	1.7302476709429248e+18
14306.0	1.7298514199445496e+18
14307.0	1.7295168755466237e+18
14308.0	1.7291869666934781e+18
14309.0	1.7288206177271805e+18
14310.0	1.728291070069964e+18
14311.0	1.727463461748736e+18
14312.0	1.7276564685193213e+18
14313.0	1.7273406122622976e+18
14314.0	1.727062283282022e+18
14315.0	1.726734708139622e+18
14316.0	1.7263490704080893e+18
14317.0	1.7259720561655803e+18
14318.0	1.7256916468105213e+18
14319.0	1.725342702528102e+18
14320.0	1.7249926459162621e+18
14321.0	1.7246412941033472e+18
14322.0	1.7242338946449405e+18
14323.0	1.72389815067607e+18
14324.0	1.723562930156339e+18
14325.0	1.7232074863804413e+18
14326.0	1.7228653117046781e+18
14327.0	1.722510634647552e+18
14328.0	1.7221610125656056e+18
14329.0	1.721792913735679e+18
14330.0	1.7209899259789312e+18
14331.0	1.7206335544229888e+18
14332.0	1.7202913612922875e+18
14333.0	1.719942168707072e+18
14334.0	1.7195930298089472e+18
14335.0	1.7192316569649147e+18
14336.0	1.718727765026406e+18
14337.0	1.7185455191621627e+18
14338.0	1.718195447450828e+18
14339.0	1.717835940233216e+18
14340.0	1.7174984078131197e+18
14341.0	1.7171389274390525e+18
14342.0	1.7168028043051005e+18
14343.0	1.7164497932255232e+18
14344.0	1.7161000318926843e+18
14345.0	1.7157571374743547e+18
14346.0	1.7154021835931643e+18
14347.0	1.714980028573286e+18
14348.0	1.7147093550366723e+18
14349.0	1.714364693977497e+18
14350.0	1.7138883921707e+18
14351.0	1.7135272407859197e+18
14352.0	1.713314836198195e+18
14353.0	1.7129723444330493e+18
14354.0	1.7126094868054013e+18
14355.0	1.7122319222702075e+18
14356.0	1.7118949518868477e+18
14357.0	1.7115836372221944e+18
14358.0	1.711222287866265e+18
14359.0	1.7108474815053821e+18
14360.0	1.7105000270397437e+18
14361.0	1.7101588841627648e+18
14362.0	1.7098167027761147e+18
14363.0	1.7094691661021181e+18
14364.0	1.7087335086686203e+18
14365.0	1.7086823952023547e+18
14366.0	1.7083547747614712e+18
14367.0	1.7080820879589376e+18
14368.0	1.707734853274828e+18
14369.0	1.7073884809396221e+18
14370.0	1.7070420985380861e+18
14371.0	1.7066960365813757e+18
14372.0	1.7063440271015933e+18
14373.0	1.705999844193075e+18
14374.0	1.7056560186392568e+18
14375.0	1.705308731945779e+18
14376.0	1.704963799095705e+18
14377.0	1.704617066050355e+18
14378.0	1.7042692374528e+18
14379.0	1.7039252474822653e+18
14380.0	1.7035778567700475e+18
14381.0	1.70322466785198e+18
14382.0	1.7028859979366395e+18
14383.0	1.7025345572044797e+18
14384.0	1.7021807810838525e+18
14385.0	1.7018499075407867e+18
14386.0	1.701492997436211e+18
14387.0	1.7011585771896827e+18
14388.0	1.7008115119554552e+18
14389.0	1.7004674498428925e+18
14390.0	1.700120842626662e+18
14391.0	1.6997767217938427e+18
14392.0	1.6994297085689856e+18
14393.0	1.6990868191838205e+18
14394.0	1.698712449030553e+18
14395.0	1.6983731801686013e+18
14396.0	1.6980508613279741e+18
14397.0	1.697707057584537e+18
14398.0	1.6973610811916285e+18
14399.0	1.696997517243187e+18
14400.0	1.6966222293762048e+18
14401.0	1.6962927282094077e+18
14402.0	1.695952539956019e+18
14403.0	1.6936912749068262e+18
14404.0	1.6897561956712435e+18
14405.0	1.6935216320872425e+18
14406.0	1.6945748721532928e+18
14407.0	1.6916231827226632e+18
14408.0	1.6938225952096253e+18
14409.0	1.6935269689196544e+18
14410.0	1.6931678995873787e+18
14411.0	1.6928519275675648e+18
14412.0	1.692507912431206e+18
14413.0	1.6921669507481597e+18
14414.0	1.691820949189427e+18
14415.0	1.691478048060211e+18
14416.0	1.691117832844083e+18
14417.0	1.6907458786099197e+18
14418.0	1.6903827642908667e+18
14419.0	1.6901022760828925e+18
14420.0	1.6897558299279357e+18
14421.0	1.689415930242662e+18
14422.0	1.6890687123357693e+18
14423.0	1.6887110959103997e+18
14424.0	1.6777210698399698e+18
14425.0	1.6880332745736184e+18
14426.0	1.6876994348187643e+18
14427.0	1.687356250154598e+18
14428.0	1.6869975381770237e+18
14429.0	1.6866660287774715e+18
14430.0	1.6863275601887224e+18
14431.0	1.6852769776336896e+18
14432.0	1.6856341041643515e+18
14433.0	1.6833342699732982e+18
14434.0	1.684941567531417e+18
14435.0	1.6845151024447485e+18
14436.0	1.684271108037017e+18
14437.0	1.68392915985367e+18
14438.0	1.6834733514162176e+18
14439.0	1.683223639333273e+18
14440.0	1.6829012449951741e+18
14441.0	1.6825520406659067e+18
14442.0	1.682206295798579e+18
14443.0	1.6818313619308544e+18
14444.0	1.681528462717747e+18
14445.0	1.681190477312819e+18
14446.0	1.6783590620659722e+18
14447.0	1.680488845751091e+18
14448.0	1.6801555864879104e+18
14449.0	1.6797946095861757e+18
14450.0	1.6794485576957952e+18
14451.0	1.6791092351467515e+18
14452.0	1.678766396093235e+18
14453.0	1.6783938965995515e+18
14454.0	1.6780833855635453e+18
14455.0	1.677738226221056e+18
14456.0	1.677387258606387e+18
14457.0	1.6770471827603453e+18
14458.0	1.6767089389862907e+18
14459.0	1.6763664337993725e+18
14460.0	1.6758726635552765e+18
14461.0	1.675301926155059e+18
14462.0	1.6744481353105405e+18
14463.0	1.6746826891788288e+18
14464.0	1.6743764764655613e+18
14465.0	1.674023712011059e+18
14466.0	1.6737045321875453e+18
14467.0	1.6733286638288893e+18
14468.0	1.6730181796364285e+18
14469.0	1.67261065267118e+18
14470.0	1.672317808043622e+18
14471.0	1.6719922629443581e+18
14472.0	1.6716558613086205e+18
14473.0	1.6713184949829632e+18
14474.0	1.6709802008772605e+18
14475.0	1.6706346640474107e+18
14476.0	1.670173156389683e+18
14477.0	1.6699561045131261e+18
14478.0	1.669616701433446e+18
14479.0	1.669273347319398e+18
14480.0	1.6689232487645181e+18
14481.0	1.6685985358151677e+18
14482.0	1.6682549099102203e+18
14483.0	1.6679096683593725e+18
14484.0	1.6675683241558013e+18
14485.0	1.6672088639143933e+18
14486.0	1.6666512731406333e+18
14487.0	1.6665481318498304e+18
14488.0	1.666142240663142e+18
14489.0	1.6658082834677757e+18
14490.0	1.665522401384857e+18
14491.0	1.6651970777448443e+18
14492.0	1.6648570975289341e+18
14493.0	1.6645064168046584e+18
14494.0	1.664158162065817e+18
14495.0	1.6638392439668733e+18
14496.0	1.663388846181581e+18
14497.0	1.6631593556770816e+18
14498.0	1.6628206387855357e+18
14499.0	1.6624816048046077e+18
14500.0	1.6621418712137725e+18
14501.0	1.6617445615730688e+18
14502.0	1.661207529599795e+18
14503.0	1.6610869668478976e+18
14504.0	1.6607721725886461e+18
14505.0	1.6603613589667837e+18
14506.0	1.6599670675472384e+18
14507.0	1.6595352035524603e+18
14508.0	1.6593992258945021e+18
14509.0	1.6590601046720507e+18
14510.0	1.6587184467345403e+18
14511.0	1.65838156023726e+18
14512.0	1.6580296078000123e+18
14513.0	1.657703524152115e+18
14514.0	1.6573330127585275e+18
14515.0	1.6570242549415933e+18
14516.0	1.6546717721690122e+18
14517.0	1.656346406761267e+18
14518.0	1.656008766966988e+18
14519.0	1.6556699762556925e+18
14520.0	1.655330563109683e+18
14521.0	1.654991208683929e+18
14522.0	1.6546462523457533e+18
14523.0	1.6541245715251195e+18
14524.0	1.653847687063142e+18
14525.0	1.6536329152102395e+18
14526.0	1.6532969330049021e+18
14527.0	1.6529335485726715e+18
14528.0	1.6525062798573568e+18
14529.0	1.6522732174835707e+18
14530.0	1.6519301972361216e+18
14531.0	1.6516038199869435e+18
14532.0	1.6510899086950395e+18
14533.0	1.6509268492550141e+18
14534.0	1.6505910398550013e+18
14535.0	1.650243543446323e+18
14536.0	1.6499138896068603e+18
14537.0	1.6495655979581437e+18
14538.0	1.6492375010443261e+18
14539.0	1.6488993495449597e+18
14540.0	1.648561070538752e+18
14541.0	1.6482061367902203e+18
14542.0	1.647884445417472e+18
14543.0	1.6474593694842877e+18
14544.0	1.6472074797187072e+18
14545.0	1.6468605973561341e+18
14546.0	1.6332010796613578e+18
14547.0	1.6340237370261435e+18
14548.0	1.645841255655014e+18
14549.0	1.6454151496007677e+18
14550.0	1.6451721333047296e+18
14551.0	1.6448391575764987e+18
14552.0	1.6444992813793277e+18
14553.0	1.6441565278896125e+18
14554.0	1.6438251292196861e+18
14555.0	1.6434865582899195e+18
14556.0	1.643145920407142e+18
14557.0	1.6428108726927357e+18
14558.0	1.6424718336786432e+18
14559.0	1.6406141428826092e+18
14560.0	1.6417547050024957e+18
14561.0	1.6414526916263933e+18
14562.0	1.6410866127732733e+18
14563.0	1.6407780780933115e+18
14564.0	1.6403793155457021e+18
14565.0	1.6401076001439741e+18
14566.0	1.6397697808334848e+18
14567.0	1.6394281061187581e+18
14568.0	1.639003255000268e+18
14569.0	1.6387379484950525e+18
14570.0	1.637917217154662e+18
14571.0	1.6380496548200443e+18
14572.0	1.6376398729969661e+18
14573.0	1.6373260887261184e+18
14574.0	1.6368748269142013e+18
14575.0	1.6366805450751995e+18
14576.0	1.6363406101577725e+18
14577.0	1.6360205176537088e+18
14578.0	1.635683468417433e+18
14579.0	1.6353494340468733e+18
14580.0	1.6350108731834365e+18
14581.0	1.6346646384214016e+18
14582.0	1.6343259768946688e+18
14583.0	1.6339977507962877e+18
14584.0	1.6336264290631675e+18
14585.0	1.6333222413598715e+18
14586.0	1.632982361807257e+18
14587.0	1.6326447639560187e+18
14588.0	1.632308981399552e+18
14589.0	1.6319804214345725e+18
14590.0	1.6316522272129021e+18
14591.0	1.631315328971571e+18
14592.0	1.6309881011175421e+18
14593.0	1.6305678503116797e+18
14594.0	1.6303367911374843e+18
14595.0	1.630003474831769e+18
14596.0	1.6293000514633723e+18
14597.0	1.6289051443199997e+18
14598.0	1.628979848229683e+18
14599.0	1.628692107231232e+18
14600.0	1.6283509207334907e+18
14601.0	1.6280294122323965e+18
14602.0	1.6276676937777155e+18
14603.0	1.6273708679168e+18
14604.0	1.6269741337346043e+18
14605.0	1.6266201965527035e+18
14606.0	1.6263197837230077e+18
14607.0	1.6260461473300477e+18
14608.0	1.625725811556352e+18
14609.0	1.625381898761011e+18
14610.0	1.6249008775233533e+18
14611.0	1.6247163784790016e+18
14612.0	1.6244105432530941e+18
14613.0	1.6240845938229243e+18
14614.0	1.623753272328192e+18
14615.0	1.6234197966389243e+18
14616.0	1.6230977110015997e+18
14617.0	1.6227680672284672e+18
14618.0	1.622400065706393e+18
14619.0	1.6218062915108854e+18
14620.0	1.620856795037696e+18
14621.0	1.6214493226860541e+18
14622.0	1.621117273060147e+18
14623.0	1.6207898539458557e+18
14624.0	1.6204109153566715e+18
14625.0	1.6201272260558843e+18
14626.0	1.6197960538783744e+18
14627.0	1.619461130315366e+18
14628.0	1.6191389423370235e+18
14629.0	1.6188083858833403e+18
14630.0	1.6184682882269181e+18
14631.0	1.6181467595931648e+18
14632.0	1.6169773909934083e+18
14633.0	1.6173291035164667e+18
14634.0	1.6171398951075837e+18
14635.0	1.6160533807890412e+18
14636.0	1.6149172327546875e+18
14637.0	1.6161626927398907e+18
14638.0	1.6158093226278907e+18
14639.0	1.615471520094617e+18
14640.0	1.615165010424627e+18
14641.0	1.611484225129675e+18
14642.0	1.6144995455074304e+18
14643.0	1.6141684773486592e+18
14644.0	1.6138241736441856e+18
14645.0	1.6134841112199165e+18
14646.0	1.6131245889028093e+18
14647.0	1.612753183283609e+18
