# Flux units: erg / (cm m2 s)
# Wavelength units: Angstrom
wave	flux
14000.0	2.0418241373405181e+18
14001.0	2.0413588027998203e+18
14002.0	2.0409631322931197e+18
14003.0	2.040524129592934e+18
14004.0	2.0400843752734715e+18
14005.0	2.039644575655526e+18
14006.0	2.0392005599231997e+18
14007.0	2.0387597754826747e+18
14008.0	2.0382654817894397e+18
14009.0	2.0378856422637565e+18
14010.0	2.037438762660659e+18
14011.0	2.0366527014371325e+18
14012.0	2.036568682817126e+18
14013.0	2.0361299401637883e+18
14014.0	2.0356875702763512e+18
14015.0	2.0352509549740027e+18
14016.0	2.034813791056691e+18
14017.0	2.034375335293747e+18
14018.0	2.0339355709079547e+18
14019.0	2.0334604669943803e+18
14020.0	2.0330217411182587e+18
14021.0	2.0325831477821437e+18
14022.0	2.0321425009147901e+18
14023.0	2.0316910579089405e+18
14024.0	2.031255925712486e+18
14025.0	2.0308317758816253e+18
14026.0	2.0303936724402173e+18
14027.0	2.0299574295920637e+18
14028.0	2.0295200475709437e+18
14029.0	2.029082340071833e+18
14030.0	2.0277927660748805e+18
14031.0	2.0281802107125755e+18
14032.0	2.0277696957251576e+18
14033.0	2.0273013781954555e+18
14034.0	2.0268960272351227e+18
14035.0	2.02646136815616e+18
14036.0	2.0260163659235325e+18
14037.0	2.025551017961062e+18
14038.0	2.0251146610278397e+18
14039.0	2.02467845341184e+18
14040.0	2.024236472755814e+18
14041.0	2.0238036172275707e+18
14042.0	2.0233631062556664e+18
14043.0	2.0229113612599293e+18
14044.0	2.022492313380454e+18
14045.0	2.0220615784923133e+18
14046.0	2.0216247870291963e+18
14047.0	2.0211855578365952e+18
14048.0	2.0207550158864384e+18
14049.0	2.0203218852118525e+18
14050.0	2.019886900654899e+18
14051.0	2.0194466463743997e+18
14052.0	2.019017052336947e+18
14053.0	2.018582265751142e+18
14054.0	2.0181477543116797e+18
14055.0	2.0177132445499387e+18
14056.0	2.017255338960486e+18
14057.0	2.0168072027439101e+18
14058.0	2.0163729228300283e+18
14059.0	2.015938760356659e+18
14060.0	2.0155047136460792e+18
14061.0	2.015066905483673e+18
14062.0	2.0146369121484792e+18
14063.0	2.014193533950361e+18
14064.0	2.013634606032486e+18
14065.0	2.0133310927732733e+18
14066.0	2.0129025976434683e+18
14067.0	2.012454885890457e+18
14068.0	2.0120361584558075e+18
14069.0	2.0116007360135163e+18
14070.0	2.0111695145861117e+18
14071.0	2.010735603770982e+18
14072.0	2.0103044695851005e+18
14073.0	2.0098718204166136e+18
14074.0	2.0094392937218043e+18
14075.0	2.0089954944155643e+18
14076.0	2.0085576409546747e+18
14077.0	2.0079426754576381e+18
14078.0	2.0076918107799552e+18
14079.0	2.0072375106142205e+18
14080.0	2.0068095674548221e+18
14081.0	2.0063777084932093e+18
14082.0	2.0059410512478205e+18
14083.0	2.0055133698129915e+18
14084.0	2.0050825359392765e+18
14085.0	2.0044024412897277e+18
14086.0	2.004203641346457e+18
14087.0	2.003788619998822e+18
14088.0	2.0033482164011003e+18
14089.0	2.002913399616307e+18
14090.0	2.0024921723764733e+18
14091.0	2.002064766087987e+18
14092.0	2.0016341134082045e+18
14093.0	2.0012035228041216e+18
14094.0	2.0007730026643453e+18
14095.0	2.000342454003302e+18
14096.0	1.9998699857903616e+18
14097.0	1.9994648848105464e+18
14098.0	1.9990329906167803e+18
14099.0	1.998622029355417e+18
14100.0	1.9981854459297784e+18
14101.0	1.9977626902855675e+18
14102.0	1.9973328932438016e+18
14103.0	1.9968878054473728e+18
14104.0	1.996438345508454e+18
14105.0	1.996008337073766e+18
14106.0	1.9955795382763517e+18
14107.0	1.995148644004659e+18
14108.0	1.9947140621008893e+18
14109.0	1.9942891069636603e+18
14110.0	1.9938568738701302e+18
14111.0	1.9934222097580027e+18
14112.0	1.993000995939942e+18
14113.0	1.992569709081395e+18
14114.0	1.9921403969011707e+18
14115.0	1.9917192065712128e+18
14116.0	1.991245751857971e+18
14117.0	1.9894272677380096e+18
14118.0	1.9904347546583037e+18
14119.0	1.9899803336966144e+18
14120.0	1.989558517576499e+18
14121.0	1.989139874027929e+18
14122.0	1.9886954405429243e+18
14123.0	1.9882663833763837e+18
14124.0	1.9878357139193853e+18
14125.0	1.9871629458800637e+18
14126.0	1.987007996546252e+18
14127.0	1.986588170203955e+18
14128.0	1.9861604954800125e+18
14129.0	1.985726995706675e+18
14130.0	1.9852946820825088e+18
14131.0	1.9848520907358205e+18
14132.0	1.9844160458588152e+18
14133.0	1.9836667619704827e+18
14134.0	1.9835660802195453e+18
14135.0	1.9831251145850877e+18
14136.0	1.9826548911636477e+18
14137.0	1.9822841532776445e+18
14138.0	1.9818431423447037e+18
14139.0	1.981435214403993e+18
14140.0	1.98100005200855e+18
14141.0	1.9805751874682875e+18
14142.0	1.9800352714915837e+18
14143.0	1.9797243880013821e+18
14144.0	1.9793075513589755e+18
14145.0	1.9788823160422397e+18
14146.0	1.9784560942252027e+18
14147.0	1.9780300653461501e+18
14148.0	1.977491738171801e+18
14149.0	1.976961242601881e+18
14150.0	1.9765431409573888e+18
14151.0	1.9761071111798781e+18
14152.0	1.9756939722358781e+18
14153.0	1.9752694012968955e+18
14154.0	1.9748294775275517e+18
14155.0	1.9743058773934077e+18
14156.0	1.9739787166482427e+18
14157.0	1.9735723674435581e+18
14158.0	1.9731454644715517e+18
14159.0	1.9727246096859133e+18
14160.0	1.9722967755784187e+18
14161.0	1.9718418261344253e+18
14162.0	1.9713822696669181e+18
14163.0	1.9709939777798141e+18
14164.0	1.9705186842836987e+18
14165.0	1.9700491806048248e+18
14166.0	1.9697229476397048e+18
14167.0	1.9692932630052861e+18
14168.0	1.9688727689297915e+18
14169.0	1.9684562460213243e+18
14170.0	1.9680284135915515e+18
14171.0	1.9676091308310525e+18
14172.0	1.9671881367945216e+18
14173.0	1.966715036080537e+18
14174.0	1.966338984850227e+18
14175.0	1.9659209285042173e+18
14176.0	1.965497669543526e+18
14177.0	1.9650761755459581e+18
14178.0	1.9646531564994555e+18
14179.0	1.964222485364736e+18
14180.0	1.9638109771661312e+18
14181.0	1.9633892734533627e+18
14182.0	1.962967195608678e+18
14183.0	1.9625461579513853e+18
14184.0	1.9621216138559483e+18
14185.0	1.961703112913715e+18
14186.0	1.9610060397215741e+18
14187.0	1.9608458508632061e+18
14188.0	1.960439409383833e+18
14189.0	1.960015814878822e+18
14190.0	1.959596152953241e+18
14191.0	1.9591743804538877e+18
14192.0	1.9587519184109565e+18
14193.0	1.9582910147330043e+18
14194.0	1.9579131733737472e+18
14195.0	1.9574959458222075e+18
14196.0	1.957075579253555e+18
14197.0	1.9566554693763064e+18
14198.0	1.956232329533849e+18
14199.0	1.9557791484084224e+18
14200.0	1.9552014769848317e+18
14201.0	1.9549329240883197e+18
14202.0	1.954521976248729e+18
14203.0	1.9540908319965181e+18
14204.0	1.9536810166190077e+18
14205.0	1.953261764057497e+18
14206.0	1.952768292447846e+18
14207.0	1.9524247521067005e+18
14208.0	1.9520058686439421e+18
14209.0	1.951506952827699e+18
14210.0	1.951111302453657e+18
14211.0	1.950746094338048e+18
14212.0	1.9503298650308603e+18
14213.0	1.9499087636201472e+18
14214.0	1.9494928178479096e+18
14215.0	1.9490678375448573e+18
14216.0	1.9486567303217147e+18
14217.0	1.948238472649113e+18
14218.0	1.9478130645270525e+18
14219.0	1.9474022878150653e+18
14220.0	1.94698445628375e+18
14221.0	1.9465624405147643e+18
14222.0	1.9461216292306941e+18
14223.0	1.9457306177568765e+18
14224.0	1.9453135412002816e+18
14225.0	1.9444234528489472e+18
14226.0	1.9444767809077245e+18
14227.0	1.9440615766884347e+18
14228.0	1.942558153585459e+18
14229.0	1.9429980840656883e+18
14230.0	1.9428105550561275e+18
14231.0	1.9423708040921088e+18
14232.0	1.9419769321029627e+18
14233.0	1.9415567282733053e+18
14234.0	1.9411438527315965e+18
14235.0	1.9407259188592637e+18
14236.0	1.9403108404690941e+18
14237.0	1.9398939585282045e+18
14238.0	1.9394783281676288e+18
14239.0	1.9390360320999421e+18
14240.0	1.9377228408160253e+18
14241.0	1.938192795802009e+18
14242.0	1.9377793263468541e+18
14243.0	1.9372719212593144e+18
14244.0	1.936949857432371e+18
14245.0	1.936522506508697e+18
14246.0	1.936103235492249e+18
14247.0	1.9357004850003963e+18
14248.0	1.9352793080922107e+18
14249.0	1.9348717593165821e+18
14250.0	1.9344565097988093e+18
14251.0	1.9340430436990968e+18
14252.0	1.933628069327667e+18
14253.0	1.9332127728336893e+18
14254.0	1.9327970317434877e+18
14255.0	1.932364669465395e+18
14256.0	1.9314771077627904e+18
14257.0	1.9315336117485565e+18
14258.0	1.9311404225921021e+18
14259.0	1.93071424775127e+18
14260.0	1.9302960185999352e+18
14261.0	1.9298855740768253e+18
14262.0	1.9294990337310717e+18
14263.0	1.9283686268600323e+18
14264.0	1.928531624224358e+18
14265.0	1.928253632466124e+18
14266.0	1.9278449159962621e+18
14267.0	1.9274314817732603e+18
14268.0	1.92701818512343e+18
14269.0	1.9266033852350461e+18
14270.0	1.9261916555771896e+18
14271.0	1.9257769513189373e+18
14272.0	1.9253651226755072e+18
14273.0	1.9249506633646077e+18
14274.0	1.9234515033522179e+18
14275.0	1.924027154799001e+18
14276.0	1.9236991921029117e+18
14277.0	1.9232892995502077e+18
14278.0	1.9228890136313853e+18
14279.0	1.9224760156159997e+18
14280.0	1.9220601604407293e+18
14281.0	1.9216522710876155e+18
14282.0	1.9212403300368381e+18
14283.0	1.920828295033651e+18
14284.0	1.9204163271393275e+18
14285.0	1.9200041763733504e+18
14286.0	1.919590854557696e+18
14287.0	1.919180987170816e+18
14288.0	1.9187411254771712e+18
14289.0	1.9177546637639672e+18
14290.0	1.9179118461452288e+18
14291.0	1.9175020223791104e+18
14292.0	1.9170913765294077e+18
14293.0	1.9166788499537917e+18
14294.0	1.9161856551682045e+18
14295.0	1.9158498155692027e+18
14296.0	1.914984748757811e+18
14297.0	1.9150354495045627e+18
14298.0	1.9144152109285373e+18
14299.0	1.914168481834598e+18
14300.0	1.9136707471343608e+18
14301.0	1.9132615407697917e+18
14302.0	1.9128529853612027e+18
14303.0	1.912422186719641e+18
14304.0	1.9120229527322621e+18
14305.0	1.91162111492096e+18
14306.0	1.9111828822949888e+18
14307.0	1.9107881647341563e+18
14308.0	1.9103882613358587e+18
14309.0	1.9099710321065981e+18
14310.0	1.9094336796884987e+18
14311.0	1.9089823188910075e+18
14312.0	1.9086944017317888e+18
14313.0	1.908288993728921e+18
14314.0	1.9079247888908283e+18
14315.0	1.907524757985689e+18
14316.0	1.907085312367001e+18
14317.0	1.9066816844267517e+18
14318.0	1.906299997729587e+18
14319.0	1.9058918936281088e+18
14320.0	1.905483046295961e+18
14321.0	1.9050748432089083e+18
14322.0	1.904642043045478e+18
14323.0	1.9042461376577533e+18
14324.0	1.9038496702332925e+18
14325.0	1.90343520756695e+18
14326.0	1.9030332321824765e+18
14327.0	1.902620970686873e+18
14328.0	1.9022131870302205e+18
14329.0	1.9018091396595707e+18
14330.0	1.9014012704391163e+18
14331.0	1.9009932737118205e+18
14332.0	1.9005857366802427e+18
14333.0	1.9001781459615744e+18
14334.0	1.8997706189963261e+18
14335.0	1.8993542454050813e+18
14336.0	1.898901446800179e+18
14337.0	1.8985481454747643e+18
14338.0	1.8981400447287293e+18
14339.0	1.897727034969292e+18
14340.0	1.897326757439078e+18
14341.0	1.8969163011719165e+18
14342.0	1.8965134382727165e+18
14343.0	1.896088342206873e+18
14344.0	1.895663165610393e+18
14345.0	1.895261284178329e+18
14346.0	1.8948514587344896e+18
14347.0	1.8944224133119997e+18
14348.0	1.8940405018001403e+18
14349.0	1.8936355904028672e+18
14350.0	1.8931902744363003e+18
14351.0	1.892777878722969e+18
14352.0	1.8924121505136635e+18
14353.0	1.892010465375027e+18
14354.0	1.8916000258850813e+18
14355.0	1.8911849223290875e+18
14356.0	1.8907828513144827e+18
14357.0	1.890388360246067e+18
14358.0	1.889982636831539e+18
14359.0	1.8895677245358077e+18
14360.0	1.8891681046724605e+18
14361.0	1.8887650303803387e+18
14362.0	1.8883612564783104e+18
14363.0	1.8879558283427837e+18
14364.0	1.887423356416819e+18
14365.0	1.887119697195827e+18
14366.0	1.8867190841212928e+18
14367.0	1.8863363924688896e+18
14368.0	1.8859312881336315e+18
14369.0	1.8855269219958781e+18
14370.0	1.885122411574067e+18
14371.0	1.8847180571803645e+18
14372.0	1.8843100268986365e+18
14373.0	1.8839090329812987e+18
14374.0	1.883504700397977e+18
14375.0	1.8830999282515965e+18
14376.0	1.882696558680473e+18
14377.0	1.8822921187229693e+18
14378.0	1.8818868885585917e+18
14379.0	1.881484597762457e+18
14380.0	1.881079966544691e+18
14381.0	1.8806698793762813e+18
14382.0	1.8802723549872125e+18
14383.0	1.8798628818649083e+18
14384.0	1.8794539338694653e+18
14385.0	1.8790628116660221e+18
14386.0	1.878650171005337e+18
14387.0	1.8782560171589627e+18
14388.0	1.8778516040450045e+18
14389.0	1.87744965885952e+18
14390.0	1.877045586323046e+18
14391.0	1.8766435706732541e+18
14392.0	1.8762390619291643e+18
14393.0	1.8758382290731003e+18
14394.0	1.8754123193122816e+18
14395.0	1.8750193029611517e+18
14396.0	1.874629856801587e+18
14397.0	1.8742278344409083e+18
14398.0	1.8738242585100288e+18
14399.0	1.8734225649827835e+18
14400.0	1.8730069346222075e+18
14401.0	1.872614278981222e+18
14402.0	1.8722151523680253e+18
14403.0	1.8700745977102308e+18
14404.0	1.8665495200792558e+18
14405.0	1.8700531950157804e+18
14406.0	1.8706074806779904e+18
14407.0	1.867769290791323e+18
14408.0	1.869746393422233e+18
14409.0	1.869361376447692e+18
14410.0	1.8689614998929405e+18
14411.0	1.8685693022699517e+18
14412.0	1.8681665383563261e+18
14413.0	1.867767369800089e+18
14414.0	1.867364464957849e+18
14415.0	1.8669639642906621e+18
14416.0	1.8665581301465083e+18
14417.0	1.8661441775075325e+18
14418.0	1.8657340265857021e+18
14419.0	1.8653592302911488e+18
14420.0	1.8649561710985216e+18
14421.0	1.8645580158861307e+18
14422.0	1.8641566428037115e+18
14423.0	1.8637454416281597e+18
14424.0	1.8535019563712458e+18
14425.0	1.8629473830174717e+18
14426.0	1.8625548599164925e+18
14427.0	1.8621551712665592e+18
14428.0	1.8617411078979581e+18
14429.0	1.861351342971289e+18
14430.0	1.8609544728936443e+18
14431.0	1.8603374823866365e+18
14432.0	1.8601461583708155e+18
14433.0	1.857932805695077e+18
14434.0	1.8593428099039227e+18
14435.0	1.85891907782574e+18
14436.0	1.858554367993446e+18
14437.0	1.8581549242908672e+18
14438.0	1.857687980815155e+18
14439.0	1.8573408518275072e+18
14440.0	1.8569555731283965e+18
14441.0	1.856552037462835e+18
14442.0	1.8561500385902587e+18
14443.0	1.8557264273080315e+18
14444.0	1.855355427697459e+18
14445.0	1.854958829410713e+18
14446.0	1.8523602835996677e+18
14447.0	1.8541490049384445e+18
14448.0	1.853762040129126e+18
14449.0	1.853279196885811e+18
14450.0	1.852868509093069e+18
14451.0	1.8524720165027837e+18
14452.0	1.8520719352659963e+18
14453.0	1.8516422405652477e+18
14454.0	1.8512763647164408e+18
14455.0	1.8508745302605821e+18
14456.0	1.8504714643570683e+18
14457.0	1.8500690426986493e+18
14458.0	1.8496769440612347e+18
14459.0	1.8492769970421755e+18
14460.0	1.84887608868864e+18
14461.0	1.8484392737374203e+18
14462.0	1.847918540829491e+18
14463.0	1.8476694092382203e+18
14464.0	1.8472871756038141e+18
14465.0	1.8468794657669117e+18
14466.0	1.8464963513286653e+18
14467.0	1.8460661935767547e+18
14468.0	1.845698302784307e+18
14469.0	1.845275075700326e+18
14470.0	1.8448881075355645e+18
14471.0	1.8445009850204155e+18
14472.0	1.844106337923891e+18
14473.0	1.843714252708249e+18
14474.0	1.8433166041677821e+18
14475.0	1.8429151052562427e+18
14476.0	1.842404841331097e+18
14477.0	1.8421239739580413e+18
14478.0	1.8417274041925627e+18
14479.0	1.841328431929753e+18
14480.0	1.8409221179572221e+18
14481.0	1.8405364030504952e+18
14482.0	1.840136914049433e+18
14483.0	1.839735591298662e+18
14484.0	1.8393384662073336e+18
14485.0	1.838901381142937e+18
14486.0	1.8383339874418683e+18
14487.0	1.838122336151142e+18
14488.0	1.8376976779706363e+18
14489.0	1.8373100068405243e+18
14490.0	1.8369286808535037e+18
14491.0	1.836537347257139e+18
14492.0	1.8361413009407997e+18
14493.0	1.8357416190017533e+18
14494.0	1.835334227931955e+18
14495.0	1.8349517812269053e+18
14496.0	1.834470105677824e+18
14497.0	1.834158316217958e+18
14498.0	1.8337623722426363e+18
14499.0	1.8333665188642808e+18
14500.0	1.8329699910418427e+18
14501.0	1.832517727630131e+18
14502.0	1.83199039792087e+18
14503.0	1.831762632114176e+18
14504.0	1.8313814118236155e+18
14505.0	1.8309355388534784e+18
14506.0	1.830482406381977e+18
14507.0	1.8300424356364285e+18
14508.0	1.8298013235544061e+18
14509.0	1.8294054735314941e+18
14510.0	1.8290077679484925e+18
14511.0	1.8286135335714813e+18
14512.0	1.8282075803090936e+18
14513.0	1.8278219761319933e+18
14514.0	1.8274012186542075e+18
14515.0	1.8270293399175165e+18
14516.0	1.825202490677658e+18
14517.0	1.8262381700317181e+18
14518.0	1.8258431689359355e+18
14519.0	1.8254475923816445e+18
14520.0	1.8250519034200061e+18
14521.0	1.8246554057965563e+18
14522.0	1.8242575777398781e+18
14523.0	1.8237242250100733e+18
14524.0	1.8233431288709115e+18
14525.0	1.8230700578701307e+18
14526.0	1.8226781806919675e+18
14527.0	1.8222653101834237e+18
14528.0	1.8218049635090427e+18
14529.0	1.8214841747505147e+18
14530.0	1.8210846219960317e+18
14531.0	1.8206989154779133e+18
14532.0	1.8201348570873853e+18
14533.0	1.819908448557465e+18
14534.0	1.819514625222246e+18
14535.0	1.8191120592797693e+18
14536.0	1.8187234620473341e+18
14537.0	1.818320258570649e+18
14538.0	1.817932797155737e+18
14539.0	1.8175375712452603e+18
14540.0	1.8171421591076861e+18
14541.0	1.816733340296806e+18
14542.0	1.8163511955816443e+18
14543.0	1.8158731623661565e+18
14544.0	1.8155600072409085e+18
14545.0	1.8151599394258941e+18
14546.0	1.8032358368214984e+18
14547.0	1.803936099362399e+18
14548.0	1.8139697637228541e+18
14549.0	1.8135077712035835e+18
14550.0	1.8131848399945725e+18
14551.0	1.8127938050326528e+18
14552.0	1.8123973090869245e+18
14553.0	1.8119986908233725e+18
14554.0	1.811608165888819e+18
14555.0	1.8112124098183165e+18
14556.0	1.8108144710320125e+18
14557.0	1.810422201266995e+18
14558.0	1.810026200249139e+18
14559.0	1.8085640675524588e+18
14560.0	1.8092192966901755e+18
14561.0	1.8088366855684093e+18
14562.0	1.808426563167846e+18
14563.0	1.8080490774855675e+18
14564.0	1.8076343363174392e+18
14565.0	1.807260442637107e+18
14566.0	1.8068651546509307e+18
14567.0	1.8064682694737915e+18
14568.0	1.8060402457837563e+18
14569.0	1.8056780592447488e+18
14570.0	1.8049692587786235e+18
14571.0	1.8048857417973755e+18
14572.0	1.804454963288473e+18
14573.0	1.8040626448695293e+18
14574.0	1.8036484019847165e+18
14575.0	1.803287913299968e+18
14576.0	1.8028747038916603e+18
14577.0	1.8024834021720061e+18
14578.0	1.802091055231795e+18
14579.0	1.801696651404902e+18
14580.0	1.801301121826816e+18
14581.0	1.8009000842887168e+18
14582.0	1.800506000906649e+18
14583.0	1.8001134140522493e+18
14584.0	1.7997040113942525e+18
14585.0	1.7993217945370621e+18
14586.0	1.7989238255517693e+18
14587.0	1.79852769534935e+18
14588.0	1.7981340347531261e+18
14589.0	1.797749049655296e+18
14590.0	1.797364549419008e+18
14591.0	1.7969772742311933e+18
14592.0	1.7965909452783613e+18
14593.0	1.7961357710196733e+18
14594.0	1.795825187841638e+18
14595.0	1.7954366023532541e+18
14596.0	1.7949366631268344e+18
14597.0	1.7945369191120893e+18
14598.0	1.7942724682448893e+18
14599.0	1.7938993479942141e+18
14600.0	1.793510099805798e+18
14601.0	1.7931262689804285e+18
14602.0	1.7927312964059139e+18
14603.0	1.7923542754525181e+18
14604.0	1.7919331773972477e+18
14605.0	1.7915553544929277e+18
14606.0	1.7911539780550653e+18
14607.0	1.7908049565974525e+18
14608.0	1.7904231373602813e+18
14609.0	1.7900260324016123e+18
14610.0	1.7896070717636603e+18
14611.0	1.789255733372518e+18
14612.0	1.7888791301718016e+18
14613.0	1.7884941685620733e+18
14614.0	1.7881056585711608e+18
14615.0	1.7877184135823355e+18
14616.0	1.787334205269606e+18
14617.0	1.7869468579397627e+18
14618.0	1.7865439900073984e+18
14619.0	1.7860847153971197e+18
14620.0	1.7854846363238395e+18
14621.0	1.7853970038915064e+18
14622.0	1.7850074050592765e+18
14623.0	1.784621517347225e+18
14624.0	1.784195869310976e+18
14625.0	1.7838432390742008e+18
14626.0	1.7834538298245117e+18
14627.0	1.7830610852642813e+18
14628.0	1.782680292792729e+18
14629.0	1.782291574764339e+18
14630.0	1.7818997898608637e+18
14631.0	1.781513044833075e+18
14632.0	1.7803386145472512e+18
14633.0	1.7806177438007288e+18
14634.0	1.7803395742040061e+18
14635.0	1.7797885970087928e+18
14636.0	1.7791796813758461e+18
14637.0	1.7791755105599485e+18
14638.0	1.7787784458665981e+18
14639.0	1.7783823878062077e+18
14640.0	1.7779999813664763e+18
14641.0	1.7745110150152172e+18
14642.0	1.7772166816727035e+18
14643.0	1.776827951900262e+18
14644.0	1.776428217951846e+18
14645.0	1.7760295694893053e+18
14646.0	1.7756318907498493e+18
14647.0	1.7752299455643648e+18
14648.0	1.774839127028531e+18
