# Flux units: erg / (cm m2 s)
# Wavelength units: Angstrom
wave	flux
14000.0	1.916500169247948e+18
14001.0	1.9160952192630781e+18
14002.0	1.9157416042037243e+18
14003.0	1.9153360066183165e+18
14004.0	1.9149290282680312e+18
14005.0	1.9144533337964536e+18
14006.0	1.914041001836544e+18
14007.0	1.9136331997249533e+18
14008.0	1.9131695580053504e+18
14009.0	1.9128243231653883e+18
14010.0	1.9124102128205821e+18
14011.0	1.9116298977935352e+18
14012.0	1.9116056110956541e+18
14013.0	1.911199473283891e+18
14014.0	1.910789652873216e+18
14015.0	1.9103857028104187e+18
14016.0	1.9099812058103805e+18
14017.0	1.909575356566732e+18
14018.0	1.909169311029657e+18
14019.0	1.9087638795386877e+18
14020.0	1.908357834001612e+18
14021.0	1.9079518455070715e+18
14022.0	1.9075383022321661e+18
14023.0	1.9071056580968443e+18
14024.0	1.9067108751048704e+18
14025.0	1.9063275157192704e+18
14026.0	1.9059037735747581e+18
14027.0	1.90550010536919e+18
14028.0	1.9050952443035643e+18
14029.0	1.9046899436748797e+18
14030.0	1.902080383621531e+18
14031.0	1.903814199843225e+18
14032.0	1.9034743169351675e+18
14033.0	1.9030223320252413e+18
14034.0	1.902663987468697e+18
14035.0	1.9022639146205181e+18
14036.0	1.9018538861723643e+18
14037.0	1.9014545901092861e+18
14038.0	1.9010524318531581e+18
14039.0	1.9006460490940416e+18
14040.0	1.900238901293875e+18
14041.0	1.899838613697331e+18
14042.0	1.8994303250464768e+18
14043.0	1.8990034656952317e+18
14044.0	1.8986030455586808e+18
14045.0	1.8982044960817147e+18
14046.0	1.897801074501222e+18
14047.0	1.8973887945506813e+18
14048.0	1.8969933169819643e+18
14049.0	1.8965952053903355e+18
14050.0	1.8961926612582397e+18
14051.0	1.895784525280051e+18
14052.0	1.89538751259607e+18
14053.0	1.8949851278475261e+18
14054.0	1.894582936036966e+18
14055.0	1.8941807660367864e+18
14056.0	1.8937786631454717e+18
14057.0	1.893376707893657e+18
14058.0	1.8929748163952637e+18
14059.0	1.8925730456928253e+18
14060.0	1.8921713639096315e+18
14061.0	1.8917656505614333e+18
14062.0	1.891368275489587e+18
14063.0	1.8909422751318013e+18
14064.0	1.8901736437579779e+18
14065.0	1.8901379468754941e+18
14066.0	1.8897418082844672e+18
14067.0	1.889301488572825e+18
14068.0	1.8889401190842363e+18
14069.0	1.888533826922086e+18
14070.0	1.888137037375078e+18
14071.0	1.8877360937893883e+18
14072.0	1.8873372976873472e+18
14073.0	1.8869368456740861e+18
14074.0	1.8865364892909565e+18
14075.0	1.8861232295510016e+18
14076.0	1.8856920349671421e+18
14077.0	1.8848145697931261e+18
14078.0	1.8848971875155965e+18
14079.0	1.8845297144758272e+18
14080.0	1.8841364749877243e+18
14081.0	1.8837368349917181e+18
14082.0	1.8833320947220475e+18
14083.0	1.8829368721670144e+18
14084.0	1.882538225382195e+18
14085.0	1.8817014667673597e+18
14086.0	1.8816778377363453e+18
14087.0	1.8813200367615997e+18
14088.0	1.8809065639510013e+18
14089.0	1.8804890813857787e+18
14090.0	1.880114352200089e+18
14091.0	1.8797245033873403e+18
14092.0	1.8793259471994877e+18
14093.0	1.8789274027556861e+18
14094.0	1.8785289069658107e+18
14095.0	1.8781303759437821e+18
14096.0	1.877626083029811e+18
14097.0	1.877303817876275e+18
14098.0	1.8768876623888381e+18
14099.0	1.8765379195109373e+18
14100.0	1.8761328957063165e+18
14101.0	1.8757426358517755e+18
14102.0	1.8753448145059837e+18
14103.0	1.8749384283914237e+18
14104.0	1.8745499636989947e+18
14105.0	1.8741519594815483e+18
14106.0	1.8737552320102392e+18
14107.0	1.8733562278707197e+18
14108.0	1.8729490851037181e+18
14109.0	1.8725603888857088e+18
14110.0	1.87215396250583e+18
14111.0	1.8717368507170813e+18
14112.0	1.8713461311668221e+18
14113.0	1.870936017154867e+18
14114.0	1.8705499549597693e+18
14115.0	1.8701582958854141e+18
14116.0	1.8696658577522688e+18
14117.0	1.8656489023471619e+18
14118.0	1.868972695329177e+18
14119.0	1.8685135700361213e+18
14120.0	1.8681285463506941e+18
14121.0	1.867769946780467e+18
14122.0	1.8673050669023227e+18
14123.0	1.866917927609958e+18
14124.0	1.8665107076677627e+18
14125.0	1.8659116050284536e+18
14126.0	1.8657904148086781e+18
14127.0	1.8654132797702141e+18
14128.0	1.8650174029037565e+18
14129.0	1.8646155416043515e+18
14130.0	1.8642151466336253e+18
14131.0	1.8638302655545344e+18
14132.0	1.863434147096166e+18
14133.0	1.862703267813785e+18
14134.0	1.8626489079562237e+18
14135.0	1.8622270582816765e+18
14136.0	1.8617029883854845e+18
14137.0	1.8614575175827456e+18
14138.0	1.8610073345458176e+18
14139.0	1.8606569876881405e+18
14140.0	1.8602528413319165e+18
14141.0	1.8598504901378043e+18
14142.0	1.8591638842507261e+18
14143.0	1.859072310850355e+18
14144.0	1.85868798174167e+18
14145.0	1.8582944788512768e+18
14146.0	1.857894858987929e+18
14147.0	1.8575029734211581e+18
14148.0	1.8570985150087165e+18
14149.0	1.856704054139289e+18
14150.0	1.8563279307669504e+18
14151.0	1.855907933297049e+18
14152.0	1.8555420272492544e+18
14153.0	1.8551490729738237e+18
14154.0	1.8547404370345981e+18
14155.0	1.8539497654321152e+18
14156.0	1.8539007390515192e+18
14157.0	1.8535778212642813e+18
14158.0	1.8531816105312256e+18
14159.0	1.8527935199707133e+18
14160.0	1.85239656768471e+18
14161.0	1.8519730671321088e+18
14162.0	1.85155061851095e+18
14163.0	1.8512239493382136e+18
14164.0	1.850707897273548e+18
14165.0	1.8503358625087483e+18
14166.0	1.850047785965977e+18
14167.0	1.8496495988768763e+18
14168.0	1.8492507977416704e+18
14169.0	1.8488224485736443e+18
14170.0	1.8482408076607483e+18
14171.0	1.8478575304835064e+18
14172.0	1.8474698056663037e+18
14173.0	1.847025446001049e+18
14174.0	1.8466807832641533e+18
14175.0	1.846296502809395e+18
14176.0	1.8459032968757245e+18
14177.0	1.8455144110751741e+18
14178.0	1.845123624416051e+18
14179.0	1.8447239424770045e+18
14180.0	1.8443444938604544e+18
14181.0	1.8439542340059133e+18
14182.0	1.843563559754137e+18
14183.0	1.8431739324006397e+18
14184.0	1.842780684523929e+18
14185.0	1.842393593885491e+18
14186.0	1.8413190568214525e+18
14187.0	1.8415982800273403e+18
14188.0	1.8412241816649723e+18
14189.0	1.8408283131871232e+18
14190.0	1.8404404642185208e+18
14191.0	1.8400480854015997e+18
14192.0	1.83966198965207e+18
14193.0	1.83916153536512e+18
14194.0	1.83888226853847e+18
14195.0	1.838500340249395e+18
14196.0	1.838111343719219e+18
14197.0	1.8377225686482941e+18
14198.0	1.8373309599055864e+18
14199.0	1.8369429716860923e+18
14200.0	1.8361434182254595e+18
14201.0	1.8361417304375293e+18
14202.0	1.8357792737853437e+18
14203.0	1.8353796706992125e+18
14204.0	1.8350019753017341e+18
14205.0	1.834614087745536e+18
14206.0	1.8341292983451645e+18
14207.0	1.833820017079091e+18
14208.0	1.8334324851998715e+18
14209.0	1.8329622735224827e+18
14210.0	1.8325974730932221e+18
14211.0	1.8322665475407872e+18
14212.0	1.8318816345849853e+18
14213.0	1.831486415385395e+18
14214.0	1.8311070389108733e+18
14215.0	1.8307128464769021e+18
14216.0	1.8303335454998525e+18
14217.0	1.8299464968044541e+18
14218.0	1.8295522557165565e+18
14219.0	1.8291727953559552e+18
14220.0	1.828782389539635e+18
14221.0	1.8283888564502525e+18
14222.0	1.8279457835974653e+18
14223.0	1.8276232919515133e+18
14224.0	1.8272399610871805e+18
14225.0	1.8256031490506757e+18
14226.0	1.826461402634649e+18
14227.0	1.826081467478835e+18
14228.0	1.822775465056666e+18
14229.0	1.824638093387364e+18
14230.0	1.8249239620485117e+18
14231.0	1.824473111278387e+18
14232.0	1.8241526832300027e+18
14233.0	1.8237634333638656e+18
14234.0	1.8233818926284792e+18
14235.0	1.8229949764730875e+18
14236.0	1.8226110986715133e+18
14237.0	1.8222252562579456e+18
14238.0	1.8218407459553275e+18
14239.0	1.8214446795063293e+18
14240.0	1.820107845769625e+18
14241.0	1.8206761135636475e+18
14242.0	1.820296557572915e+18
14243.0	1.8198193061756928e+18
14244.0	1.819532263109427e+18
14245.0	1.8191350423879675e+18
14246.0	1.8187349745729533e+18
14247.0	1.8183569117544445e+18
14248.0	1.8179659707449341e+18
14249.0	1.8175902751916027e+18
14250.0	1.8172060652011517e+18
14251.0	1.816823665472307e+18
14252.0	1.8164397188841472e+18
14253.0	1.8160553746759677e+18
14254.0	1.8156706227814397e+18
14255.0	1.8152677816926205e+18
14256.0	1.8136455993884677e+18
14257.0	1.8144586283089912e+18
14258.0	1.8141379804790784e+18
14259.0	1.8137426169954296e+18
14260.0	1.8133322714578941e+18
14261.0	1.812976082773606e+18
14262.0	1.8126191122710525e+18
14263.0	1.8104128278364168e+18
14264.0	1.8114873498009587e+18
14265.0	1.8114634858889208e+18
14266.0	1.8110891593564155e+18
14267.0	1.8107067143290877e+18
14268.0	1.8103243548655613e+18
14269.0	1.8099403881447421e+18
14270.0	1.8095596527157243e+18
14271.0	1.8091757564592125e+18
14272.0	1.8087947072962552e+18
14273.0	1.8084107355422717e+18
14274.0	1.8052449554137096e+18
14275.0	1.8073960260304899e+18
14276.0	1.8072519550435323e+18
14277.0	1.806872794995097e+18
14278.0	1.8065042431803384e+18
14279.0	1.8061220632330235e+18
14280.0	1.8057371184005117e+18
14281.0	1.8053602064990203e+18
14282.0	1.8049791489474552e+18
14283.0	1.804597973955379e+18
14284.0	1.8042168224514045e+18
14285.0	1.803835201185382e+18
14286.0	1.8034495449989115e+18
14287.0	1.8030739635306493e+18
14288.0	1.8026932884996093e+18
14289.0	1.8016958276435955e+18
14290.0	1.801929950337433e+18
14291.0	1.801551092278886e+18
14292.0	1.8011713299283965e+18
14293.0	1.8007896063213565e+18
14294.0	1.8003227970633725e+18
14295.0	1.8000064106463232e+18
14296.0	1.7991328746962944e+18
14297.0	1.7992506524303352e+18
14298.0	1.7984328554250235e+18
14299.0	1.798473845519155e+18
14300.0	1.7981083219918843e+18
14301.0	1.7977298279989243e+18
14302.0	1.7973519295971323e+18
14303.0	1.796950321633689e+18
14304.0	1.796582603646566e+18
14305.0	1.7962117248319485e+18
14306.0	1.7957898365698043e+18
14307.0	1.795428587877171e+18
14308.0	1.7950654752358397e+18
14309.0	1.7946748479602685e+18
14310.0	1.7941218860204024e+18
14311.0	1.7933838931984384e+18
14312.0	1.7934423668293632e+18
14313.0	1.7931042522398717e+18
14314.0	1.7927779102228477e+18
14315.0	1.792418528834355e+18
14316.0	1.7920125436952576e+18
14317.0	1.7916076490751995e+18
14318.0	1.791290871749017e+18
14319.0	1.7909137702649853e+18
14320.0	1.7905357594558461e+18
14321.0	1.7901584063135741e+18
14322.0	1.7897558806364152e+18
14323.0	1.789390449383833e+18
14324.0	1.7890236977643517e+18
14325.0	1.788641796318822e+18
14326.0	1.7882705333059581e+18
14327.0	1.7878889489498107e+18
14328.0	1.7875117233143805e+18
14329.0	1.7871386097745915e+18
14330.0	1.7867613522624507e+18
14331.0	1.7863771993145341e+18
14332.0	1.7860072919007227e+18
14333.0	1.7856303816769533e+18
14334.0	1.7852535284957181e+18
14335.0	1.7848665250988027e+18
14336.0	1.7843639300390912e+18
14337.0	1.784123032705433e+18
14338.0	1.7837455403122688e+18
14339.0	1.783260353291878e+18
14340.0	1.782867712750387e+18
14341.0	1.7824821119287293e+18
14342.0	1.782116387074867e+18
14343.0	1.7817355123949565e+18
14344.0	1.7813587514884093e+18
14345.0	1.7809879364272128e+18
14346.0	1.78060648293335e+18
14347.0	1.7801707803115517e+18
14348.0	1.7798579926073341e+18
14349.0	1.7794851391143933e+18
14350.0	1.779000168520089e+18
14351.0	1.7786010536509435e+18
14352.0	1.778335175042662e+18
14353.0	1.7779642207305725e+18
14354.0	1.777576621742489e+18
14355.0	1.7771770639548413e+18
14356.0	1.7768110807318528e+18
14357.0	1.7764648291926016e+18
14358.0	1.7760896839319547e+18
14359.0	1.7757056115146747e+18
14360.0	1.775331041712537e+18
14361.0	1.7749616275488763e+18
14362.0	1.7745908879851515e+18
14363.0	1.7742160480698365e+18
14364.0	1.7735182769455104e+18
14365.0	1.7733968820436987e+18
14366.0	1.7730347156373504e+18
14367.0	1.772719367729971e+18
14368.0	1.7723448767807488e+18
14369.0	1.7719711139627005e+18
14370.0	1.7715973679218688e+18
14371.0	1.7712239020605437e+18
14372.0	1.7708455036977152e+18
14373.0	1.7704740259364861e+18
14374.0	1.7701022126309376e+18
14375.0	1.76972792636375e+18
14376.0	1.769355296007782e+18
14377.0	1.76898142413783e+18
14378.0	1.7686066865635328e+18
14379.0	1.7682350477410304e+18
14380.0	1.767860853748531e+18
14381.0	1.7674814521081853e+18
14382.0	1.7671144505081856e+18
14383.0	1.7667352434835453e+18
14384.0	1.7663570045042685e+18
14385.0	1.765996650037248e+18
14386.0	1.7656144986111997e+18
14387.0	1.7652509967384576e+18
14388.0	1.7648770644705275e+18
14389.0	1.764505668917657e+18
14390.0	1.7641321476915197e+18
14391.0	1.7637606397313021e+18
14392.0	1.7633864709046272e+18
14393.0	1.7630165181923325e+18
14394.0	1.7626204467101693e+18
14395.0	1.7622474371891197e+18
14396.0	1.7618992193601533e+18
14397.0	1.761528469730099e+18
14398.0	1.7611552974700541e+18
14399.0	1.7607837928652797e+18
14400.0	1.7603932377317376e+18
14401.0	1.7600367118254075e+18
14402.0	1.759668723725107e+18
14403.0	1.7573544628060132e+18
14404.0	1.7536186113327094e+18
14405.0	1.7574908263399404e+18
14406.0	1.7581834770579453e+18
14407.0	1.7551214908538888e+18
14408.0	1.7573826871164925e+18
14409.0	1.7570582845456381e+18
14410.0	1.7566746902790144e+18
14411.0	1.7563266167341053e+18
14412.0	1.7559560046772221e+18
14413.0	1.7555876038574077e+18
14414.0	1.7552099923460093e+18
14415.0	1.7548273174708221e+18
14416.0	1.7544412301099005e+18
14417.0	1.7540420632313853e+18
14418.0	1.7536600007245821e+18
14419.0	1.7533445991301117e+18
14420.0	1.7529720207835133e+18
14421.0	1.7526045963976704e+18
14422.0	1.7522313855500285e+18
14423.0	1.7518499941318653e+18
14424.0	1.7405371995914186e+18
14425.0	1.751117167014707e+18
14426.0	1.750754564400742e+18
14427.0	1.7503853213646843e+18
14428.0	1.7500016935436285e+18
14429.0	1.7496422584680443e+18
14430.0	1.7492761494159357e+18
14431.0	1.7483380899708925e+18
14432.0	1.7485289542909952e+18
14433.0	1.7461476918820854e+18
14434.0	1.7477864198766587e+18
14435.0	1.747347251082035e+18
14436.0	1.7470597449646075e+18
14437.0	1.7466910572543997e+18
14438.0	1.74621876855767e+18
14439.0	1.7459342588510203e+18
14440.0	1.7455835730935805e+18
14441.0	1.7452098522185723e+18
14442.0	1.744838277149491e+18
14443.0	1.7444437525266427e+18
14444.0	1.7441056530366461e+18
14445.0	1.7437400892440576e+18
14446.0	1.740951021368116e+18
14447.0	1.7429895806189563e+18
14448.0	1.7426350528790528e+18
14449.0	1.7422667627888637e+18
14450.0	1.741894994781798e+18
14451.0	1.7415289931038712e+18
14452.0	1.7411595890065405e+18
14453.0	1.740758291421593e+18
14454.0	1.740424233562931e+18
14455.0	1.7400534101131256e+18
14456.0	1.739675939530342e+18
14457.0	1.7393079698849787e+18
14458.0	1.738943407692185e+18
14459.0	1.7385759363301368e+18
14460.0	1.7382011165474816e+18
14461.0	1.73775546000343e+18
14462.0	1.7369717945663485e+18
14463.0	1.7370742983229437e+18
14464.0	1.7367373447167997e+18
14465.0	1.7363619041771515e+18
14466.0	1.7360117821341693e+18
14467.0	1.7356111405383675e+18
14468.0	1.7352735024218107e+18
14469.0	1.734853786809139e+18
14470.0	1.7345257100279803e+18
14471.0	1.7341703417495552e+18
14472.0	1.7338069690613757e+18
14473.0	1.7334433581367293e+18
14474.0	1.7330785593851896e+18
14475.0	1.732707452400435e+18
14476.0	1.732214942125261e+18
14477.0	1.7319768063213565e+18
14478.0	1.7316128464306176e+18
14479.0	1.7312420447911933e+18
14480.0	1.7308680940683261e+18
14481.0	1.7305142944595963e+18
14482.0	1.730145417166848e+18
14483.0	1.7297749259059197e+18
14484.0	1.7294085534515197e+18
14485.0	1.7290257242259453e+18
14486.0	1.728486655498649e+18
14487.0	1.728309118998937e+18
14488.0	1.727874723322265e+18
14489.0	1.727528902957465e+18
14490.0	1.727207389423206e+18
14491.0	1.7268534186868733e+18
14492.0	1.726476016890675e+18
14493.0	1.7260948838416381e+18
14494.0	1.7257228809535485e+18
14495.0	1.7253743326134267e+18
14496.0	1.724919951917056e+18
14497.0	1.7246427386216443e+18
14498.0	1.724277678145536e+18
14499.0	1.7239127837638653e+18
14500.0	1.7235472082272253e+18
14501.0	1.7231221071282176e+18
14502.0	1.7225944469078016e+18
14503.0	1.7224196853596157e+18
14504.0	1.722082231792435e+18
14505.0	1.7216634825474048e+18
14506.0	1.7212383227281405e+18
14507.0	1.7208290190557181e+18
14508.0	1.7206263267983352e+18
14509.0	1.7202614475161595e+18
14510.0	1.719894590200217e+18
14511.0	1.7195314976915453e+18
14512.0	1.7191562467344381e+18
14513.0	1.71880207131607e+18
14514.0	1.718410521293619e+18
14515.0	1.7180715460329467e+18
14516.0	1.7161533565960197e+18
14517.0	1.7173429249638397e+18
14518.0	1.7169789650731005e+18
14519.0	1.7166146008514557e+18
14520.0	1.7162501711986685e+18
14521.0	1.7158846074060797e+18
14522.0	1.7155141580881915e+18
14523.0	1.7149703850295293e+18
14524.0	1.7146575771926525e+18
14525.0	1.7144248000315387e+18
14526.0	1.714064415365529e+18
14527.0	1.7136802238300157e+18
14528.0	1.7132406674817021e+18
14529.0	1.7129642024501243e+18
14530.0	1.7125961908617216e+18
14531.0	1.7122421949595643e+18
14532.0	1.7116937108586493e+18
14533.0	1.711514303699353e+18
14534.0	1.7111524728373243e+18
14535.0	1.7107811678814203e+18
14536.0	1.7104245631221757e+18
14537.0	1.7100527447834621e+18
14538.0	1.709697230543257e+18
14539.0	1.7093336766611453e+18
14540.0	1.7089699768172541e+18
14541.0	1.708592665618022e+18
14542.0	1.7082425922289661e+18
14543.0	1.707790731470438e+18
14544.0	1.7075151237545984e+18
14545.0	1.7071445788065787e+18
14546.0	1.6935243449630659e+18
14547.0	1.694393554069087e+18
14548.0	1.7060521203204093e+18
14549.0	1.7056184024432637e+18
14550.0	1.705330849349632e+18
14551.0	1.7049717229748221e+18
14552.0	1.704606947711385e+18
14553.0	1.7042399779880957e+18
14554.0	1.7038819152887803e+18
14555.0	1.7035181248479227e+18
14556.0	1.7031520409616381e+18
14557.0	1.7027920052617216e+18
14558.0	1.702427929608192e+18
14559.0	1.700877062216088e+18
14560.0	1.701655647512166e+18
14561.0	1.7013342363189248e+18
14562.0	1.700947863745331e+18
14563.0	1.700609474009497e+18
14564.0	1.7001947479408637e+18
14565.0	1.6998870537994235e+18
14566.0	1.699523998200627e+18
14567.0	1.699157744864461e+18
14568.0	1.698709296591667e+18
14569.0	1.6984312159141885e+18
14570.0	1.6976924966387707e+18
14571.0	1.6977056852082685e+18
14572.0	1.6972776279638016e+18
14573.0	1.6969395603505152e+18
14574.0	1.696478269118873e+18
14575.0	1.6962385914888187e+18
14576.0	1.6958740007747581e+18
14577.0	1.6955260664807421e+18
14578.0	1.6951641987088381e+18
14579.0	1.6948048273866747e+18
14580.0	1.6944420553228285e+18
14581.0	1.6940700943777787e+18
14582.0	1.693703914861363e+18
14583.0	1.6933359569600507e+18
14584.0	1.6929461400240128e+18
14585.0	1.692610432965017e+18
14586.0	1.6922456879005693e+18
14587.0	1.691882427619737e+18
14588.0	1.6915218516934653e+18
14589.0	1.691169800270643e+18
14590.0	1.690818284041011e+18
14591.0	1.69045943952343e+18
14592.0	1.6901089567703037e+18
14593.0	1.6896837331976184e+18
14594.0	1.6894100766719997e+18
14595.0	1.6890543309062144e+18
14596.0	1.6884037322801147e+18
14597.0	1.6880007099973624e+18
14598.0	1.687969494309273e+18
14599.0	1.6876489773416448e+18
14600.0	1.6872864502251523e+18
14601.0	1.6869400762122237e+18
14602.0	1.6865607316144125e+18
14603.0	1.686234236924723e+18
14604.0	1.6858273927921661e+18
14605.0	1.685453749092352e+18
14606.0	1.685124617024307e+18
14607.0	1.6848197213224957e+18
14608.0	1.6844726242115584e+18
14609.0	1.6841049699778557e+18
14610.0	1.6836317216243707e+18
14611.0	1.6833958691995643e+18
14612.0	1.6830631887503357e+18
14613.0	1.6827133519200253e+18
14614.0	1.6823591177814016e+18
14615.0	1.6820012832522235e+18
14616.0	1.6816560886775805e+18
14617.0	1.681303039010406e+18
14618.0	1.6809114956988413e+18
14619.0	1.6803634293506038e+18
14620.0	1.6794810148978685e+18
14621.0	1.6798904276221952e+18
14622.0	1.6795352808030203e+18
14623.0	1.679184031331123e+18
14624.0	1.6787913958227963e+18
14625.0	1.6784749238419453e+18
14626.0	1.6781197568901112e+18
14627.0	1.6777613687128061e+18
14628.0	1.677415694309785e+18
14629.0	1.677061602777497e+18
14630.0	1.676700562122342e+18
14631.0	1.6763548004777981e+18
14632.0	1.6751301408849923e+18
14633.0	1.6754946913337336e+18
14634.0	1.6752796275572733e+18
14635.0	1.67429867212636e+18
14636.0	1.673108285030399e+18
14637.0	1.674111495438336e+18
14638.0	1.6737383701544957e+18
14639.0	1.6733782304358397e+18
14640.0	1.673042516665958e+18
14641.0	1.6692465440391148e+18
14642.0	1.6723297265778685e+18
14643.0	1.6719743968870397e+18
14644.0	1.6716081368399872e+18
14645.0	1.6712453983305725e+18
14646.0	1.6708588697288704e+18
14647.0	1.6704761680101376e+18
