# Flux units: erg / (cm m2 s)
# Wavelength units: Angstrom
wave	flux
14000.0	2.1130677311242237e+18
14001.0	2.1125738602168315e+18
14002.0	2.112134377688268e+18
14003.0	2.111664603896217e+18
14004.0	2.1111946472325117e+18
14005.0	2.1107246519812093e+18
14006.0	2.1102514069831675e+18
14007.0	2.1097804688523261e+18
14008.0	2.1092670038343677e+18
14009.0	2.1088454544719867e+18
14010.0	2.1083696459153403e+18
14011.0	2.1076323342483456e+18
14012.0	2.1074378057842683e+18
14013.0	2.106968931250995e+18
14014.0	2.1064971592925176e+18
14015.0	2.10603007321047e+18
14016.0	2.1055625827975165e+18
14017.0	2.1050940706521083e+18
14018.0	2.1046253924122621e+18
14019.0	2.104157361772953e+18
14020.0	2.1036888143953915e+18
14021.0	2.1032204314345467e+18
14022.0	2.1027514629488635e+18
14023.0	2.1022742098739197e+18
14024.0	2.1018079592972283e+18
14025.0	2.1013498054049787e+18
14026.0	2.1008817412112384e+18
14027.0	2.1004154369474555e+18
14028.0	2.099948268657049e+18
14029.0	2.0994808520638461e+18
14030.0	2.0985701461917696e+18
14031.0	2.0984932209786877e+18
14032.0	2.098040189170483e+18
14033.0	2.09755015521239e+18
14034.0	2.097106996795801e+18
14035.0	2.0966414693171197e+18
14036.0	2.0961752103518203e+18
14037.0	2.0957090671493115e+18
14038.0	2.0952430262878205e+18
14039.0	2.0947770995113981e+18
14040.0	2.094306327474995e+18
14041.0	2.093843469251379e+18
14042.0	2.0933745192206333e+18
14043.0	2.0928963601760248e+18
14044.0	2.092444277958246e+18
14045.0	2.0919827149357056e+18
14046.0	2.0915164324823035e+18
14047.0	2.0910494537744381e+18
14048.0	2.0905736804499453e+18
14049.0	2.0900856765349883e+18
14050.0	2.089621013082931e+18
14051.0	2.0891521821704184e+18
14052.0	2.0886919579697147e+18
14053.0	2.088227576374886e+18
14054.0	2.0877634699263997e+18
14055.0	2.087299371866521e+18
14056.0	2.0868353895694333e+18
14057.0	2.086371563300454e+18
14058.0	2.0859078309838843e+18
14059.0	2.0854442295295992e+18
14060.0	2.0849807471935483e+18
14061.0	2.0845144009867261e+18
14062.0	2.084054129809817e+18
14063.0	2.083583302408601e+18
14064.0	2.083062908400435e+18
14065.0	2.0826612719157243e+18
14066.0	2.0822022892290045e+18
14067.0	2.081731282311577e+18
14068.0	2.0812006206472187e+18
14069.0	2.0807108870012925e+18
14070.0	2.080249578992435e+18
14071.0	2.07978635502551e+18
14072.0	2.0793254916128765e+18
14073.0	2.0788634957381624e+18
14074.0	2.0784016441475067e+18
14075.0	2.0779309224427517e+18
14076.0	2.0774682403799037e+18
14077.0	2.0769152935395325e+18
14078.0	2.0765475470311421e+18
14079.0	2.0760908544344061e+18
14080.0	2.075632932067737e+18
14081.0	2.0751718841057277e+18
14082.0	2.0747059690733568e+18
14083.0	2.0742494593482747e+18
14084.0	2.0737893894979581e+18
14085.0	2.0731620055056376e+18
14086.0	2.0728601397690368e+18
14087.0	2.0724081364041725e+18
14088.0	2.0719413976104955e+18
14089.0	2.0714798060666875e+18
14090.0	2.0710196540080125e+18
14091.0	2.0705299472056315e+18
14092.0	2.070070149146214e+18
14093.0	2.0696104366505976e+18
14094.0	2.0691508281737208e+18
14095.0	2.0686912817725435e+18
14096.0	2.068209589446246e+18
14097.0	2.0677608391835643e+18
14098.0	2.0673035040194555e+18
14099.0	2.0668545574633467e+18
14100.0	2.0663904342376445e+18
14101.0	2.065937073596006e+18
14102.0	2.0654782704254973e+18
14103.0	2.0650136422055933e+18
14104.0	2.0645615029452797e+18
14105.0	2.0641025504575483e+18
14106.0	2.063644968668364e+18
14107.0	2.0631850296803328e+18
14108.0	2.0627231378243576e+18
14109.0	2.0622687151849464e+18
14110.0	2.061807244437094e+18
14111.0	2.061343627883315e+18
14112.0	2.0608943994699773e+18
14113.0	2.0604409415204861e+18
14114.0	2.059977009555046e+18
14115.0	2.0595150086471677e+18
14116.0	2.0590021895520253e+18
14117.0	2.0578494001971192e+18
14118.0	2.058117879273881e+18
14119.0	2.057646575399731e+18
14120.0	2.0571937113636861e+18
14121.0	2.056738964924006e+18
14122.0	2.056277603228057e+18
14123.0	2.055817858855731e+18
14124.0	2.055360139493376e+18
14125.0	2.05470230988718e+18
14126.0	2.0544633436110845e+18
14127.0	2.054011917382451e+18
14128.0	2.0535556458938363e+18
14129.0	2.0530947975806973e+18
14130.0	2.052634655588352e+18
14131.0	2.0521899503124477e+18
14132.0	2.0517319423819773e+18
14133.0	2.0510211638820856e+18
14134.0	2.0508243436503037e+18
14135.0	2.0503599436005373e+18
14136.0	2.04987970921431e+18
14137.0	2.0494585893486587e+18
14138.0	2.048996029759488e+18
14139.0	2.048551000683315e+18
14140.0	2.048087172736614e+18
14141.0	2.047638612056473e+18
14142.0	2.0471228015837181e+18
14143.0	2.0466941839802365e+18
14144.0	2.0462445394919424e+18
14145.0	2.0457907577421821e+18
14146.0	2.0453362176622587e+18
14147.0	2.0448823956471805e+18
14148.0	2.044426686195302e+18
14149.0	2.0439726058110973e+18
14150.0	2.0435234243739645e+18
14151.0	2.043063221983641e+18
14152.0	2.0426173238476792e+18
14153.0	2.0421643809587197e+18
14154.0	2.0416990195744768e+18
14155.0	2.0411948776554493e+18
14156.0	2.0407983917760507e+18
14157.0	2.0403539700350973e+18
14158.0	2.0398995926941693e+18
14159.0	2.0394492502736896e+18
14160.0	2.038994674961612e+18
14161.0	2.0385162978131965e+18
14162.0	2.0380423834042365e+18
14163.0	2.0376407452418043e+18
14164.0	2.0371604823343096e+18
14165.0	2.036637700928307e+18
14166.0	2.0362850673360893e+18
14167.0	2.0358285525778424e+18
14168.0	2.0353806780858365e+18
14169.0	2.034933437772595e+18
14170.0	2.0344792600805373e+18
14171.0	2.034030378955571e+18
14172.0	2.0335808821067768e+18
14173.0	2.0330806761226237e+18
14174.0	2.032668654541209e+18
14175.0	2.0321937670537208e+18
14176.0	2.0317426562367483e+18
14177.0	2.031292805388697e+18
14178.0	2.0308415502876664e+18
14179.0	2.0303827756384253e+18
14180.0	2.0299430112526333e+18
14181.0	2.029493193959014e+18
14182.0	2.0290431132631037e+18
14183.0	2.0285938697502715e+18
14184.0	2.02814189993984e+18
14185.0	2.0276948341096445e+18
14186.0	2.0271001489113083e+18
14187.0	2.026784683563417e+18
14188.0	2.0263469878083576e+18
14189.0	2.025896298099507e+18
14190.0	2.025448547758899e+18
14191.0	2.0249993612886008e+18
14192.0	2.0245483427463168e+18
14193.0	2.0240805889310717e+18
14194.0	2.0236538755416061e+18
14195.0	2.023207354970931e+18
14196.0	2.0227590744702973e+18
14197.0	2.0223110372392952e+18
14198.0	2.0218608558800893e+18
14199.0	2.021413367264051e+18
14200.0	2.020885987223142e+18
14201.0	2.020516750897971e+18
14202.0	2.0200725875261435e+18
14203.0	2.0196137608675325e+18
14204.0	2.0191764543438843e+18
14205.0	2.0187294287790077e+18
14206.0	2.018223540351795e+18
14207.0	2.0178366896275453e+18
14208.0	2.017390021417369e+18
14209.0	2.0168810359160827e+18
14210.0	2.016452745468313e+18
14211.0	2.0160133417926648e+18
14212.0	2.0155685358534648e+18
14213.0	2.015120866043494e+18
14214.0	2.014676014805811e+18
14215.0	2.0142247227949053e+18
14216.0	2.0137843426852861e+18
14217.0	2.013338412672614e+18
14218.0	2.0128866743877627e+18
14219.0	2.012446863025766e+18
14220.0	2.0120013490880507e+18
14221.0	2.011553395743129e+18
14222.0	2.0110929735712765e+18
14223.0	2.010664916326809e+18
14224.0	2.0102199879139325e+18
14225.0	2.0095400962686973e+18
14226.0	2.0093293828243453e+18
14227.0	2.0088852345520125e+18
14228.0	2.0079056833740797e+18
14229.0	2.0078974407278584e+18
14230.0	2.007551476079001e+18
14231.0	2.0070934916366336e+18
14232.0	2.006662753393049e+18
14233.0	2.006215499658035e+18
14234.0	2.0057745960992765e+18
14235.0	2.005329471392972e+18
14236.0	2.0048865394687997e+18
14237.0	2.0044423794524155e+18
14238.0	2.003967369491251e+18
14239.0	2.003470963546521e+18
14240.0	2.002354798854144e+18
14241.0	2.0025852121055232e+18
14242.0	2.0021433522454528e+18
14243.0	2.0016270233567232e+18
14244.0	2.0012583289356283e+18
14245.0	2.0008077549895675e+18
14246.0	2.000359328527155e+18
14247.0	1.999927464532377e+18
14248.0	1.9994806520381437e+18
14249.0	1.9990439411056637e+18
14250.0	1.9986014571331581e+18
14251.0	1.9981395552108536e+18
14252.0	1.9976839564886008e+18
14253.0	1.9972414691606525e+18
14254.0	1.996798656354713e+18
14255.0	1.9963432086274043e+18
14256.0	1.9956702694604797e+18
14257.0	1.9954666041245693e+18
14258.0	1.9950327587405821e+18
14259.0	1.9945815992696824e+18
14260.0	1.9941416352350205e+18
14261.0	1.9936984013209592e+18
14262.0	1.9932806687752192e+18
14263.0	1.992479561744384e+18
14264.0	1.9923333919277053e+18
14265.0	1.991954475148902e+18
14266.0	1.991517376662732e+18
14267.0	1.9910767096627197e+18
14268.0	1.9906362507001853e+18
14269.0	1.990194654242406e+18
14270.0	1.989755485447782e+18
14271.0	1.989313649075814e+18
14272.0	1.9888749081001981e+18
14273.0	1.9884340733280253e+18
14274.0	1.9874561461846019e+18
14275.0	1.9875060684685312e+18
14276.0	1.987101871780659e+18
14277.0	1.9866653974069245e+18
14278.0	1.9862363603730432e+18
14279.0	1.9857965423001597e+18
14280.0	1.9853542093225981e+18
14281.0	1.984918535222067e+18
14282.0	1.9844795727872e+18
14283.0	1.9840405717647355e+18
14284.0	1.9836016579837952e+18
14285.0	1.9831627089707005e+18
14286.0	1.9827232264421379e+18
14287.0	1.98228556424151e+18
14288.0	1.9818469994266621e+18
14289.0	1.9809713193484278e+18
14290.0	1.98096825918423e+18
14291.0	1.9805317848104955e+18
14292.0	1.980094228306329e+18
14293.0	1.9796552256061435e+18
14294.0	1.979152388954521e+18
14295.0	1.9787740392456187e+18
14296.0	1.9779881676046336e+18
14297.0	1.9779050817978365e+18
14298.0	1.977341291842764e+18
14299.0	1.9770222143602683e+18
14300.0	1.9765630135697405e+18
14301.0	1.9761196622151675e+18
14302.0	1.9756843370807293e+18
14303.0	1.975230899263897e+18
14304.0	1.9748030399905787e+18
14305.0	1.974372581926502e+18
14306.0	1.9739110860128253e+18
14307.0	1.9734905214730235e+18
14308.0	1.9730616538890237e+18
14309.0	1.972620788917862e+18
14310.0	1.972069311761612e+18
14311.0	1.9716636940435448e+18
14312.0	1.971282638169702e+18
14313.0	1.9708461956726781e+18
14314.0	1.9704417875918843e+18
14315.0	1.97001030443991e+18
14316.0	1.9695503067316224e+18
14317.0	1.9691224910790656e+18
14318.0	1.968704751822438e+18
14319.0	1.9682698058530816e+18
14320.0	1.9678343498563581e+18
14321.0	1.967399472673587e+18
14322.0	1.9669445148409853e+18
14323.0	1.96652055962583e+18
14324.0	1.966094572689817e+18
14325.0	1.9656546858303488e+18
14326.0	1.9652250683047933e+18
14327.0	1.9647870672044027e+18
14328.0	1.9643528527216635e+18
14329.0	1.9639214651998205e+18
14330.0	1.9634871265656832e+18
14331.0	1.963052688945971e+18
14332.0	1.9626186841784317e+18
14333.0	1.9621846508896253e+18
14334.0	1.9617506914205693e+18
14335.0	1.9613094892273664e+18
14336.0	1.9608538686947328e+18
14337.0	1.960449081448857e+18
14338.0	1.9600147797245947e+18
14339.0	1.9595764212695037e+18
14340.0	1.9591487129911293e+18
14341.0	1.9587135422070781e+18
14342.0	1.9582823912439803e+18
14343.0	1.9578445814038525e+18
14344.0	1.9574117996953597e+18
14345.0	1.956983358252646e+18
14346.0	1.9565485414678525e+18
14347.0	1.956103742239539e+18
14348.0	1.9556845584646147e+18
14349.0	1.9552527615787005e+18
14350.0	1.954800815256371e+18
14351.0	1.9543642620297216e+18
14352.0	1.9539517119660032e+18
14353.0	1.9535230977179645e+18
14354.0	1.9530888530362368e+18
14355.0	1.952642983421542e+18
14356.0	1.9521901294518264e+18
14357.0	1.9517637281185787e+18
14358.0	1.9513319194886141e+18
14359.0	1.9508924218605568e+18
14360.0	1.9504667369144315e+18
14361.0	1.9500365204422648e+18
14362.0	1.9496058073645053e+18
14363.0	1.94917430240215e+18
14364.0	1.9486772018806781e+18
14365.0	1.9483000970412032e+18
14366.0	1.9478702396014587e+18
14367.0	1.947450213610291e+18
14368.0	1.9470191096233984e+18
14369.0	1.9465885945167872e+18
14370.0	1.9461579619696637e+18
14371.0	1.9457274737065981e+18
14372.0	1.9452944151740416e+18
14373.0	1.9448664351047677e+18
14374.0	1.9444362723196925e+18
14375.0	1.9440060592029693e+18
14376.0	1.943575933327769e+18
14377.0	1.9431050488840187e+18
14378.0	1.9426646050209787e+18
14379.0	1.9422360176164861e+18
14380.0	1.9418057508126715e+18
14381.0	1.9413706639147003e+18
14382.0	1.9409461751840765e+18
14383.0	1.9405104960503803e+18
14384.0	1.9400779072798715e+18
14385.0	1.9396587285381115e+18
14386.0	1.9392219672739835e+18
14387.0	1.9388001998077952e+18
14388.0	1.9383701259419643e+18
14389.0	1.9379421005742075e+18
14390.0	1.937512362252697e+18
14391.0	1.9370843083636733e+18
14392.0	1.936653880498585e+18
14393.0	1.9362272476397565e+18
14394.0	1.9357801214115837e+18
14395.0	1.9353599746244603e+18
14396.0	1.9349415324024827e+18
14397.0	1.9345135691104253e+18
14398.0	1.934084099224371e+18
14399.0	1.9336568405753853e+18
14400.0	1.9332184133337083e+18
14401.0	1.9327979008032765e+18
14402.0	1.9323723366531064e+18
14403.0	1.9302600214052836e+18
14404.0	1.9269201256513526e+18
14405.0	1.9303820655853548e+18
14406.0	1.9306617753305083e+18
14407.0	1.9278361364791306e+18
14408.0	1.9297889742225403e+18
14409.0	1.929371530244915e+18
14410.0	1.9289480917680125e+18
14411.0	1.9285257840754688e+18
14412.0	1.928097626167705e+18
14413.0	1.9276723203866621e+18
14414.0	1.9272441155026936e+18
14415.0	1.926817839998566e+18
14416.0	1.926388709012275e+18
14417.0	1.925952692656537e+18
14418.0	1.9255194579632125e+18
14419.0	1.9251036849963005e+18
14420.0	1.9246513930633216e+18
14421.0	1.924226974797004e+18
14422.0	1.9238002714738683e+18
14423.0	1.9233670367805437e+18
14424.0	1.9132237719011272e+18
14425.0	1.9225161148399616e+18
14426.0	1.9220960234176507e+18
14427.0	1.9216706270396416e+18
14428.0	1.9212331711987707e+18
14429.0	1.9208167422427133e+18
14430.0	1.9203934161731581e+18
14431.0	1.9198595265724416e+18
14432.0	1.919534082136473e+18
14433.0	1.9173178353909747e+18
14434.0	1.9186824354201597e+18
14435.0	1.9182461908942843e+18
14436.0	1.91784062854103e+18
14437.0	1.9174155475746808e+18
14438.0	1.916932066797158e+18
14439.0	1.9165513582116861e+18
14440.0	1.9161400026857464e+18
14441.0	1.9157123430612987e+18
14442.0	1.915285419956633e+18
14443.0	1.9148419310288893e+18
14444.0	1.9144389104238587e+18
14445.0	1.9140162453766141e+18
14446.0	1.9115072697663493e+18
14447.0	1.9131588289757181e+18
14448.0	1.912743253979955e+18
14449.0	1.9123190135521275e+18
14450.0	1.9118918605996027e+18
14451.0	1.911469719001497e+18
14452.0	1.911044211893862e+18
14453.0	1.910588044423987e+18
14454.0	1.910197821479321e+18
14455.0	1.9097714436341755e+18
14456.0	1.9093422958706683e+18
14457.0	1.908914626179891e+18
14458.0	1.9084984220385275e+18
14459.0	1.9080733628825597e+18
14460.0	1.907649926083379e+18
14461.0	1.9072040497577981e+18
14462.0	1.9067226678099965e+18
14463.0	1.9063727672262653e+18
14464.0	1.905958230740172e+18
14465.0	1.9055267643654141e+18
14466.0	1.9051142897991677e+18
14467.0	1.9046604073861123e+18
14468.0	1.904265307304755e+18
14469.0	1.9038282708942843e+18
14470.0	1.9034082281259005e+18
14471.0	1.9029929081438205e+18
14472.0	1.9025723234713597e+18
14473.0	1.9021543141015552e+18
14474.0	1.9017312497565693e+18
14475.0	1.9013051135033341e+18
14476.0	1.900769957222809e+18
14477.0	1.9004631455629312e+18
14478.0	1.9000406986194941e+18
14479.0	1.8996172836306944e+18
14480.0	1.8991873909587963e+18
14481.0	1.8987739147927547e+18
14482.0	1.8983497800613883e+18
14483.0	1.8979239474757627e+18
14484.0	1.8975022890614781e+18
14485.0	1.8970652862054397e+18
14486.0	1.8965148626583547e+18
14487.0	1.896239246553907e+18
14488.0	1.8957997136936955e+18
14489.0	1.8953682338971645e+18
14490.0	1.8948804044652541e+18
14491.0	1.8944599741431805e+18
14492.0	1.894038753614233e+18
14493.0	1.8936144695656445e+18
14494.0	1.8931845852823547e+18
14495.0	1.8927738219921405e+18
14496.0	1.8922850329034747e+18
14497.0	1.8919138118336512e+18
14498.0	1.8914789648498683e+18
14499.0	1.8910579473252344e+18
14500.0	1.8906363979628544e+18
14501.0	1.8901591851532288e+18
14502.0	1.88963914514432e+18
14503.0	1.8893587726991355e+18
14504.0	1.888948138593484e+18
14505.0	1.8884766132600827e+18
14506.0	1.8879952950657024e+18
14507.0	1.8875661489799165e+18
14508.0	1.8872665867550717e+18
14509.0	1.8868455977517053e+18
14510.0	1.8864245819047933e+18
14511.0	1.8860035727687675e+18
14512.0	1.885574458559692e+18
14513.0	1.8851616870367227e+18
14514.0	1.8847199160958973e+18
14515.0	1.8843189238562813e+18
14516.0	1.8828094341120005e+18
14517.0	1.8834776790138877e+18
14518.0	1.8830572688244733e+18
14519.0	1.8826365918773243e+18
14520.0	1.882215834399539e+18
14521.0	1.881794382345011e+18
14522.0	1.8813726165565437e+18
14523.0	1.8808231929315325e+18
14524.0	1.8804056919113725e+18
14525.0	1.8801096008925181e+18
14526.0	1.8796919404888061e+18
14527.0	1.879258816525107e+18
14528.0	1.8787866687569917e+18
14529.0	1.878424738909388e+18
14530.0	1.8780006679314432e+18
14531.0	1.8775882202087421e+18
14532.0	1.876997103524249e+18
14533.0	1.8767479115350016e+18
14534.0	1.876328761314508e+18
14535.0	1.8759027727007741e+18
14536.0	1.8754879963004928e+18
14537.0	1.875061606711296e+18
14538.0	1.8746476305842173e+18
14539.0	1.8742276213702653e+18
14540.0	1.8738074309623805e+18
14541.0	1.8733765132025853e+18
14542.0	1.8729671088668664e+18
14543.0	1.8724650339008512e+18
14544.0	1.8721264914923517e+18
14545.0	1.8717024775569403e+18
14546.0	1.8602693568233408e+18
14547.0	1.8609614857699254e+18
14548.0	1.87043904749568e+18
14549.0	1.8699663930556416e+18
14550.0	1.8696028710502397e+18
14551.0	1.8691860276969472e+18
14552.0	1.8687647266373627e+18
14553.0	1.86834184348631e+18
14554.0	1.867925407819366e+18
14555.0	1.8675047124172797e+18
14556.0	1.8670817185366016e+18
14557.0	1.8666646000369661e+18
14558.0	1.866243874435891e+18
14559.0	1.8650136716509169e+18
14560.0	1.865392095179571e+18
14561.0	1.8649799309918205e+18
14562.0	1.864549056852787e+18
14563.0	1.864141982872371e+18
14564.0	1.863711486220697e+18
14565.0	1.8633021338943483e+18
14566.0	1.8628817656479736e+18
14567.0	1.8624605233086461e+18
14568.0	1.8620198999293944e+18
14569.0	1.861619922711347e+18
14570.0	1.8609662035230715e+18
14571.0	1.8607776091602941e+18
14572.0	1.8603324676767741e+18
14573.0	1.8599122923683835e+18
14574.0	1.8594898487803904e+18
14575.0	1.8590933964554237e+18
14576.0	1.858672018220646e+18
14577.0	1.8582527119720445e+18
14578.0	1.8578347462230013e+18
14579.0	1.857415111140966e+18
14580.0	1.8569946338426872e+18
14581.0	1.8565698229895165e+18
14582.0	1.856152810186342e+18
14583.0	1.855732529181491e+18
14584.0	1.8553034300719107e+18
14585.0	1.854890992415539e+18
14586.0	1.8544683525341181e+18
14587.0	1.8540446540103675e+18
14588.0	1.8536002154921981e+18
14589.0	1.853191342994227e+18
14590.0	1.852783165072998e+18
14591.0	1.8523734788800507e+18
14592.0	1.8519632793042941e+18
14593.0	1.851499342305689e+18
14594.0	1.8511490894004221e+18
14595.0	1.8507374385954816e+18
14596.0	1.8502689063174141e+18
14597.0	1.8498571984699387e+18
14598.0	1.8495077827477504e+18
14599.0	1.8491048376401915e+18
14600.0	1.8486938847674365e+18
14601.0	1.848285591083417e+18
14602.0	1.8478709790998525e+18
14603.0	1.8474664921661437e+18
14604.0	1.847032326337331e+18
14605.0	1.8466339127558141e+18
14606.0	1.846205461246771e+18
14607.0	1.8458245144248317e+18
14608.0	1.845416745867673e+18
14609.0	1.8449967584641021e+18
14610.0	1.8445756134326264e+18
14611.0	1.8441820853764093e+18
14612.0	1.8437773400735741e+18
14613.0	1.8433678384300027e+18
14614.0	1.8429557967159293e+18
14615.0	1.8425451575771133e+18
14616.0	1.8421361072406525e+18
14617.0	1.841725020150169e+18
14618.0	1.841305180386099e+18
14619.0	1.8408621679312896e+18
14620.0	1.840337096435302e+18
14621.0	1.8400798195056635e+18
14622.0	1.8396666436517883e+18
14623.0	1.8392564088438784e+18
14624.0	1.8388147838648315e+18
14625.0	1.8384305017323517e+18
14626.0	1.83801660613591e+18
14627.0	1.837599636953497e+18
14628.0	1.8371941635194875e+18
14629.0	1.8367810598076413e+18
14630.0	1.8363660283936763e+18
14631.0	1.8359528810610688e+18
14632.0	1.8347591636877312e+18
14633.0	1.8350239182225403e+18
14634.0	1.8347073539670013e+18
14635.0	1.8342130334302203e+18
14636.0	1.8336685087522808e+18
14637.0	1.8334672559800315e+18
14638.0	1.8330489261654008e+18
14639.0	1.8326294655664125e+18
14640.0	1.8322185076604925e+18
14641.0	1.8287616344457193e+18
14642.0	1.83138616648663e+18
14643.0	1.830972384975257e+18
14644.0	1.8305497903923192e+18
14645.0	1.8301274961215485e+18
14646.0	1.8297098826940416e+18
14647.0	1.829288885302067e+18
14648.0	1.828885138243584e+18
