# Flux units: erg / (cm m2 s)
# Wavelength units: Angstrom
wave	flux
14000.0	1.88281065046016e+18
14001.0	1.8823499514642427e+18
14002.0	1.8821260662276093e+18
14003.0	1.8817749492957184e+18
14004.0	1.8814230673227773e+18
14005.0	1.8810711048192e+18
14006.0	1.8807105607696384e+18
14007.0	1.8803571638140925e+18
14008.0	1.8799055463251965e+18
14009.0	1.8796610855108603e+18
14010.0	1.879296254882611e+18
14011.0	1.8782465732640765e+18
14012.0	1.8786071458349053e+18
14013.0	1.8782581612871677e+18
14014.0	1.8779006958567424e+18
14015.0	1.8775534309736445e+18
14016.0	1.8772050051071997e+18
14017.0	1.876854136478105e+18
14018.0	1.8765031487307773e+18
14019.0	1.8761523992199163e+18
14020.0	1.8758007856824315e+18
14021.0	1.875449371793817e+18
14022.0	1.8750988840075261e+18
14023.0	1.8747371638751232e+18
14024.0	1.8743836679340032e+18
14025.0	1.8740486252527613e+18
14026.0	1.8736964899438587e+18
14027.0	1.8733484264652797e+18
14028.0	1.872991257991577e+18
14029.0	1.8726439998193661e+18
14030.0	1.8719211014586368e+18
14031.0	1.8719199572525053e+18
14032.0	1.871596611646259e+18
14033.0	1.8712018252988413e+18
14034.0	1.8708983892148221e+18
14035.0	1.870549730145075e+18
14036.0	1.8702003949535232e+18
14037.0	1.8698510496956408e+18
14038.0	1.8695017614802936e+18
14039.0	1.869147817587507e+18
14040.0	1.8687970848538624e+18
14041.0	1.8684516939857912e+18
14042.0	1.8680928293355517e+18
14043.0	1.867710785283686e+18
14044.0	1.8673936103374845e+18
14045.0	1.867054281077555e+18
14046.0	1.8667049525968893e+18
14047.0	1.8663534263009277e+18
14048.0	1.8660116425342968e+18
14049.0	1.8656644799922168e+18
14050.0	1.865316136334131e+18
14051.0	1.8649067991072765e+18
14052.0	1.8645548164710397e+18
14053.0	1.8642110009835517e+18
14054.0	1.8638631505756155e+18
14055.0	1.8635151508504576e+18
14056.0	1.8631671880351744e+18
14057.0	1.8628193778925565e+18
14058.0	1.8624715979489277e+18
14059.0	1.8621239153131517e+18
14060.0	1.8617762796535803e+18
14061.0	1.8614209784840187e+18
14062.0	1.8610811509407744e+18
14063.0	1.8607162532036605e+18
14064.0	1.860317262485913e+18
14065.0	1.860029524842905e+18
14066.0	1.859692208848896e+18
14067.0	1.8593343994855421e+18
14068.0	1.8589824134938621e+18
14069.0	1.8586340933238781e+18
14070.0	1.8582884407312381e+18
14071.0	1.8579385988677632e+18
14072.0	1.8575951960997888e+18
14073.0	1.8572486123716605e+18
14074.0	1.8569021628612608e+18
14075.0	1.8565361460838397e+18
14076.0	1.8562062842068987e+18
14077.0	1.8557792654721024e+18
14078.0	1.8555103619317755e+18
14079.0	1.8551593339191293e+18
14080.0	1.854824665369804e+18
14081.0	1.8544787258867707e+18
14082.0	1.8541304644370427e+18
14083.0	1.8537851993980925e+18
14084.0	1.853440144074342e+18
14085.0	1.8528003013214203e+18
14086.0	1.852740955275264e+18
14087.0	1.8524042365501437e+18
14088.0	1.8520461956612093e+18
14089.0	1.8517115136901115e+18
14090.0	1.851367332459315e+18
14091.0	1.8510233961758715e+18
14092.0	1.8506783576293376e+18
14093.0	1.8503333157273597e+18
14094.0	1.8499883107352576e+18
14095.0	1.849643179914035e+18
14096.0	1.849280515224371e+18
14097.0	1.848936557130547e+18
14098.0	1.8486017023541243e+18
14099.0	1.8482644501135355e+18
14100.0	1.847906251518771e+18
14101.0	1.847575866192691e+18
14102.0	1.84723128230871e+18
14103.0	1.8468699581186045e+18
14104.0	1.8465398580051965e+18
14105.0	1.8461988023697403e+18
14106.0	1.8458548409204733e+18
14107.0	1.8455102620696576e+18
14108.0	1.8451540381532155e+18
14109.0	1.8448177271144443e+18
14110.0	1.8444762587594752e+18
14111.0	1.844123490949529e+18
14112.0	1.8437831282130944e+18
14113.0	1.843448553616179e+18
14114.0	1.8430902828793853e+18
14115.0	1.8427596173737981e+18
14116.0	1.8423995883847675e+18
14117.0	1.8414167086071805e+18
14118.0	1.8417297311924221e+18
14119.0	1.841373002281779e+18
14120.0	1.841037256635187e+18
14121.0	1.8406895505113083e+18
14122.0	1.8403490367799293e+18
14123.0	1.8400096689324024e+18
14124.0	1.8396641690124283e+18
14125.0	1.8388048601415672e+18
14126.0	1.838987889501798e+18
14127.0	1.8386474680451064e+18
14128.0	1.8383039109267453e+18
14129.0	1.8379498177167355e+18
14130.0	1.8375971237265403e+18
14131.0	1.83727870223319e+18
14132.0	1.836928004731699e+18
14133.0	1.835977494914661e+18
14134.0	1.8362499183149053e+18
14135.0	1.835895736185651e+18
14136.0	1.8355604452016125e+18
14137.0	1.8352261507842043e+18
14138.0	1.8348794496155645e+18
14139.0	1.8345442240626685e+18
14140.0	1.8341985563705344e+18
14141.0	1.8338554253934587e+18
14142.0	1.833473297455513e+18
14143.0	1.8331756377669632e+18
14144.0	1.8328386136965115e+18
14145.0	1.8324960162349053e+18
14146.0	1.832154958921728e+18
14147.0	1.8318148428103677e+18
14148.0	1.831474444841779e+18
14149.0	1.8311346743410685e+18
14150.0	1.830793989482086e+18
14151.0	1.8304505665814525e+18
14152.0	1.830112977118822e+18
14153.0	1.8297723795013627e+18
14154.0	1.8294034451660797e+18
14155.0	1.829070261400371e+18
14156.0	1.8287486723686397e+18
14157.0	1.8284114385829885e+18
14158.0	1.828066747324825e+18
14159.0	1.8277313472888827e+18
14160.0	1.8273837200179192e+18
14161.0	1.8269832227061755e+18
14162.0	1.8265909076426744e+18
14163.0	1.826369070904115e+18
14164.0	1.8260014049263613e+18
14165.0	1.8256380808921088e+18
14166.0	1.8253512945172477e+18
14167.0	1.824997936149299e+18
14168.0	1.8246732382994427e+18
14169.0	1.8243358585520125e+18
14170.0	1.8239932376023037e+18
14171.0	1.823654223754035e+18
14172.0	1.8233184848183293e+18
14173.0	1.8229398750625787e+18
14174.0	1.8226352461185024e+18
14175.0	1.8223020891963387e+18
14176.0	1.8219634746458107e+18
14177.0	1.8216248869388285e+18
14178.0	1.82128552747991e+18
14179.0	1.8209401080905725e+18
14180.0	1.8206095080161277e+18
14181.0	1.8202711870668792e+18
14182.0	1.8199320188682237e+18
14183.0	1.819594699518771e+18
14184.0	1.8192506877378555e+18
14185.0	1.8189177992511485e+18
14186.0	1.81844095050711e+18
14187.0	1.8182130303500285e+18
14188.0	1.8179001352716285e+18
14189.0	1.8175657016033275e+18
14190.0	1.8172282698465275e+18
14191.0	1.8168904538914816e+18
14192.0	1.8165446553370621e+18
14193.0	1.8161972931461117e+18
14194.0	1.8158776586600445e+18
14195.0	1.8155424448511997e+18
14196.0	1.8152049224974333e+18
14197.0	1.8148677960859643e+18
14198.0	1.8145248798572541e+18
14199.0	1.8141915417411581e+18
14200.0	1.813782946067251e+18
14201.0	1.8135162906738685e+18
14202.0	1.8131814124093435e+18
14203.0	1.8128376103436288e+18
14204.0	1.8125065639952381e+18
14205.0	1.8121698570141693e+18
14206.0	1.8116930116255741e+18
14207.0	1.8114992901455864e+18
14208.0	1.8111638867542016e+18
14209.0	1.8106735323512824e+18
14210.0	1.8103848769945592e+18
14211.0	1.810149714113331e+18
14212.0	1.8098187315183616e+18
14213.0	1.80948367877079e+18
14214.0	1.8091470774861821e+18
14215.0	1.8087976298872832e+18
14216.0	1.8084391058145277e+18
14217.0	1.808060657120051e+18
14218.0	1.80771124978647e+18
14219.0	1.8073888520929277e+18
14220.0	1.8070533614600187e+18
14221.0	1.8067165403938813e+18
14222.0	1.8063688292368384e+18
14223.0	1.8060462688043005e+18
14224.0	1.8057107882377213e+18
14225.0	1.8051489226293245e+18
14226.0	1.8050381443497984e+18
14227.0	1.8047047827455997e+18
14228.0	1.8037820459319296e+18
14229.0	1.803932532526284e+18
14230.0	1.8037000120565755e+18
14231.0	1.803361387439718e+18
14232.0	1.8030305692614653e+18
14233.0	1.8026919966539776e+18
14234.0	1.802326296965939e+18
14235.0	1.8019422916575227e+18
14236.0	1.8016102420316155e+18
14237.0	1.8012738588508155e+18
14238.0	1.800939782537216e+18
14239.0	1.8005973377482752e+18
14240.0	1.79841736334377e+18
14241.0	1.7999301716213755e+18
14242.0	1.7995999104466941e+18
14243.0	1.7990901867479037e+18
14244.0	1.798933522782617e+18
14245.0	1.7985857227063296e+18
14246.0	1.7982488177541115e+18
14247.0	1.7979263529517053e+18
14248.0	1.7975787206475776e+18
14249.0	1.7972615759003643e+18
14250.0	1.7969275465629693e+18
14251.0	1.7965966361100285e+18
14252.0	1.7962628148101117e+18
14253.0	1.7959282234359805e+18
14254.0	1.7955478537502715e+18
14255.0	1.795140912309862e+18
14256.0	1.7946070881402877e+18
14257.0	1.7944930785689597e+18
14258.0	1.7941791181373435e+18
14259.0	1.7938235401437181e+18
14260.0	1.7935004092858363e+18
14261.0	1.7931558925107195e+18
14262.0	1.7928697487032323e+18
14263.0	1.7921838810136576e+18
14264.0	1.7921218489352187e+18
14265.0	1.791865533340057e+18
14266.0	1.791537610909286e+18
14267.0	1.791206064599859e+18
14268.0	1.790873251610624e+18
14269.0	1.790529917629235e+18
14270.0	1.7902075518124027e+18
14271.0	1.7898740207583227e+18
14272.0	1.7895415282139133e+18
14273.0	1.7892050527584256e+18
14274.0	1.7883339629264896e+18
14275.0	1.7884887193223165e+18
14276.0	1.788195133141811e+18
14277.0	1.7878095272869885e+18
14278.0	1.787465696700006e+18
14279.0	1.7871322495320061e+18
14280.0	1.7867927793434621e+18
14281.0	1.786468883444531e+18
14282.0	1.7861370032685053e+18
14283.0	1.7858047875481595e+18
14284.0	1.7854726288703485e+18
14285.0	1.7851403410079744e+18
14286.0	1.7848076488146941e+18
14287.0	1.7844760404295675e+18
14288.0	1.7841415211974656e+18
14289.0	1.7826213158453225e+18
14290.0	1.7834772340408317e+18
14291.0	1.783147670798336e+18
14292.0	1.7828174247231485e+18
14293.0	1.782482885358387e+18
14294.0	1.7819950559264765e+18
14295.0	1.781805038855782e+18
14296.0	1.780529794279015e+18
14297.0	1.7811531550949376e+18
14298.0	1.780624654336e+18
14299.0	1.780482138596966e+18
14300.0	1.7801575363772413e+18
14301.0	1.7798306642001915e+18
14302.0	1.7794636508561405e+18
14303.0	1.7790517634924541e+18
14304.0	1.7787405947895805e+18
14305.0	1.7784279329144827e+18
14306.0	1.7780847297953787e+18
14307.0	1.7777594548092925e+18
14308.0	1.7774345958981632e+18
14309.0	1.7770997662875648e+18
14310.0	1.776707905886617e+18
14311.0	1.7763806075682813e+18
14312.0	1.7760710880657405e+18
14313.0	1.7756508875915261e+18
14314.0	1.7754485073903613e+18
14315.0	1.775120781253017e+18
14316.0	1.7747317427798013e+18
14317.0	1.7744525665501181e+18
14318.0	1.774131890198937e+18
14319.0	1.7738026406903805e+18
14320.0	1.7734720355827707e+18
14321.0	1.773139234337587e+18
14322.0	1.772766057044377e+18
14323.0	1.7724608157319163e+18
14324.0	1.7721530695811072e+18
14325.0	1.7718122521821181e+18
14326.0	1.7714937098928128e+18
14327.0	1.7711563620220923e+18
14328.0	1.770784409465651e+18
14329.0	1.7703210714136576e+18
14330.0	1.769936925176627e+18
14331.0	1.7695823521382397e+18
14332.0	1.7692529516347387e+18
14333.0	1.7689233850367997e+18
14334.0	1.768593808372531e+18
14335.0	1.768249791558451e+18
14336.0	1.7679091100549115e+18
14337.0	1.7676019343294461e+18
14338.0	1.767272515371008e+18
14339.0	1.7669335870865403e+18
14340.0	1.7666172996550653e+18
14341.0	1.7662868790968315e+18
14342.0	1.765956470282649e+18
14343.0	1.7656268483198976e+18
14344.0	1.7652956778201085e+18
14345.0	1.7649722130956285e+18
14346.0	1.764639874901606e+18
14347.0	1.764298227030425e+18
14348.0	1.763984922587955e+18
14349.0	1.7636571343749115e+18
14350.0	1.763309914790297e+18
14351.0	1.7629738184998907e+18
14352.0	1.7626604016500733e+18
14353.0	1.7623409047371776e+18
14354.0	1.7620113549164544e+18
14355.0	1.761679380788019e+18
14356.0	1.761352882742886e+18
14357.0	1.7610301260169213e+18
14358.0	1.7607019368284157e+18
14359.0	1.760356371477299e+18
14360.0	1.760043719668531e+18
14361.0	1.7597170622398461e+18
14362.0	1.759340047997337e+18
14363.0	1.7589822050795517e+18
14364.0	1.7585947822522363e+18
14365.0	1.7583138930687997e+18
14366.0	1.757987725534822e+18
14367.0	1.7576706764177405e+18
14368.0	1.7573422187937787e+18
14369.0	1.7570150211387387e+18
14370.0	1.7566873067454461e+18
14371.0	1.756359661138739e+18
14372.0	1.7560257676967933e+18
14373.0	1.7557040276701181e+18
14374.0	1.7553762981773307e+18
14375.0	1.7550468238540797e+18
14376.0	1.754721860924211e+18
14377.0	1.754393680124313e+18
14378.0	1.7540639155552253e+18
14379.0	1.7537397226995707e+18
14380.0	1.7534114462695421e+18
14381.0	1.7530713268027387e+18
14382.0	1.7527562557194237e+18
14383.0	1.7524266622779387e+18
14384.0	1.752082467625369e+18
14385.0	1.7517769226452987e+18
14386.0	1.7514291208912893e+18
14387.0	1.7511225961218043e+18
14388.0	1.7507936234373115e+18
14389.0	1.7504687091613696e+18
14390.0	1.7501397482209277e+18
14391.0	1.749815602341478e+18
14392.0	1.7494875305934843e+18
14393.0	1.7491624602894333e+18
14394.0	1.7487914539679736e+18
14395.0	1.7484968024342525e+18
14396.0	1.7481827530833917e+18
14397.0	1.7478563456352253e+18
14398.0	1.7475293862166525e+18
14399.0	1.747132598347366e+18
14400.0	1.7467762167250941e+18
14401.0	1.7464639390482432e+18
14402.0	1.746140548143513e+18
14403.0	1.7448846577631212e+18
14404.0	1.7408599613505513e+18
14405.0	1.7432244901642191e+18
14406.0	1.7448314471448576e+18
14407.0	1.7431871088492547e+18
14408.0	1.744169471888588e+18
14409.0	1.7438369608892413e+18
14410.0	1.7435303102906365e+18
14411.0	1.743208449468006e+18
14412.0	1.7428794683949053e+18
14413.0	1.7425581612204027e+18
14414.0	1.742229235512115e+18
14415.0	1.7419047188561917e+18
14416.0	1.7415796015759357e+18
14417.0	1.7412496306470907e+18
14418.0	1.7409166784069627e+18
14419.0	1.740600436273971e+18
14420.0	1.7402701180567547e+18
14421.0	1.739949455127347e+18
14422.0	1.7396174155677693e+18
14423.0	1.7392711153745917e+18
14424.0	1.7336064192544735e+18
14425.0	1.738621328765747e+18
14426.0	1.738320719642624e+18
14427.0	1.7379968774307835e+18
14428.0	1.7376467335774203e+18
14429.0	1.737343475331891e+18
14430.0	1.7370229633974264e+18
14431.0	1.7365948994420733e+18
14432.0	1.7363655548993533e+18
14433.0	1.735037056083558e+18
14434.0	1.7357012039892987e+18
14435.0	1.735374382143897e+18
14436.0	1.7350732898369533e+18
14437.0	1.7347486624514043e+18
14438.0	1.7343912607744e+18
14439.0	1.7340900829036541e+18
14440.0	1.7336996200447997e+18
14441.0	1.7333641562554365e+18
14442.0	1.733031579824947e+18
14443.0	1.732657731443097e+18
14444.0	1.7323925927100416e+18
14445.0	1.7320712503033853e+18
14446.0	1.7299003406286853e+18
14447.0	1.7314030590885885e+18
14448.0	1.7310993646354427e+18
14449.0	1.7307754905468923e+18
14450.0	1.7304440482562048e+18
14451.0	1.7301212999188475e+18
14452.0	1.7297994206412797e+18
14453.0	1.7294605259112448e+18
14454.0	1.7291514006732803e+18
14455.0	1.7288163781246976e+18
14456.0	1.7284986830847995e+18
14457.0	1.7281724299870205e+18
14458.0	1.7278512654188536e+18
14459.0	1.7275240778301437e+18
14460.0	1.7271984454893565e+18
14461.0	1.7268462313275387e+18
14462.0	1.7264990452973565e+18
14463.0	1.7262183356301312e+18
14464.0	1.7259039289245693e+18
14465.0	1.7255523405529085e+18
14466.0	1.7252546322104323e+18
14467.0	1.7249006446968832e+18
14468.0	1.7246043892613115e+18
14469.0	1.7242040613994493e+18
14470.0	1.7237964539035648e+18
14471.0	1.723497042673664e+18
14472.0	1.7231786429906941e+18
14473.0	1.7228599664836605e+18
14474.0	1.722538709640806e+18
14475.0	1.7222121243541504e+18
14476.0	1.7218277818236928e+18
14477.0	1.7215675168718848e+18
14478.0	1.7212407587799035e+18
14479.0	1.7209169450893312e+18
14480.0	1.7205750673702907e+18
14481.0	1.720273429803827e+18
14482.0	1.7199450678099963e+18
14483.0	1.71961287222231e+18
14484.0	1.7192886542008312e+18
14485.0	1.7189294925938688e+18
14486.0	1.7182839657201661e+18
14487.0	1.718329571226419e+18
14488.0	1.718002472556953e+18
14489.0	1.7176359910506493e+18
14490.0	1.7172836175052797e+18
14491.0	1.716961649308467e+18
14492.0	1.7166399025709053e+18
14493.0	1.7163077086609403e+18
14494.0	1.7159664433102848e+18
14495.0	1.715666636138086e+18
14496.0	1.7151774343299067e+18
14497.0	1.715018788975411e+18
14498.0	1.7146968862097403e+18
14499.0	1.7143733560541181e+18
14500.0	1.7140490424025085e+18
14501.0	1.7136893170810875e+18
14502.0	1.7131193480773635e+18
14503.0	1.713056190247731e+18
14504.0	1.7127470499102715e+18
14505.0	1.7124019593543677e+18
14506.0	1.712048084248166e+18
14507.0	1.7114785262862333e+18
14508.0	1.7114597089607677e+18
14509.0	1.711137235769753e+18
14510.0	1.710809702570393e+18
14511.0	1.7104898751463421e+18
14512.0	1.7101474454568957e+18
14513.0	1.7098424960679933e+18
14514.0	1.7094784774569981e+18
14515.0	1.7091909679841277e+18
14516.0	1.7058181804982295e+18
14517.0	1.7085357807894525e+18
14518.0	1.708225117080781e+18
14519.0	1.707903002922188e+18
14520.0	1.707578865431347e+18
14521.0	1.707256325131469e+18
14522.0	1.706933091932569e+18
14523.0	1.7065409580630016e+18
14524.0	1.7062194646614013e+18
14525.0	1.7059566646722557e+18
14526.0	1.705637437872537e+18
14527.0	1.7052911326461947e+18
14528.0	1.7048258702475267e+18
14529.0	1.7046567458439165e+18
14530.0	1.7043245821329405e+18
14531.0	1.7040209178787837e+18
14532.0	1.703612597351219e+18
14533.0	1.7033761107476477e+18
14534.0	1.7030550552313853e+18
14535.0	1.7027183482503165e+18
14536.0	1.7024035523133437e+18
14537.0	1.7020672362414072e+18
14538.0	1.7017618003132413e+18
14539.0	1.7013011382272e+18
14540.0	1.7008652896436221e+18
14541.0	1.700514095536537e+18
14542.0	1.7002157278494715e+18
14543.0	1.699840676541235e+18
14544.0	1.6995694241906685e+18
14545.0	1.6992144484990976e+18
14546.0	1.6919667968835538e+18
14547.0	1.6921853738090445e+18
14548.0	1.6981835925946363e+18
14549.0	1.6977331126009853e+18
14550.0	1.6975502359134205e+18
14551.0	1.697239270214861e+18
14552.0	1.6969148575776765e+18
14553.0	1.696582581459353e+18
14554.0	1.6962697920774141e+18
14555.0	1.6959460740169725e+18
14556.0	1.69562115974103e+18
14557.0	1.6952986781614077e+18
14558.0	1.694970292679475e+18
14559.0	1.6924025246711764e+18
14560.0	1.694320972477235e+18
14561.0	1.6939958702964733e+18
14562.0	1.6936516722884605e+18
14563.0	1.6933571885268987e+18
14564.0	1.693026722670182e+18
14565.0	1.692711649909145e+18
14566.0	1.6923881835069435e+18
14567.0	1.6920638631444475e+18
14568.0	1.69173065924608e+18
14569.0	1.6914148231217147e+18
14570.0	1.690466920484044e+18
14571.0	1.6907643536801784e+18
14572.0	1.6903984476323837e+18
14573.0	1.690062686886297e+18
14574.0	1.689780678662553e+18
14575.0	1.6894717195190267e+18
14576.0	1.6891455586959357e+18
14577.0	1.6888192921763837e+18
14578.0	1.688501400843059e+18
14579.0	1.6881803637817341e+18
14580.0	1.6878565920342013e+18
14581.0	1.6875283105710077e+18
14582.0	1.6872080570056704e+18
14583.0	1.6868844110872568e+18
14584.0	1.6865458418352123e+18
14585.0	1.6862359783997437e+18
14586.0	1.6859078143770621e+18
14587.0	1.6855865105580024e+18
14588.0	1.6852636280029181e+18
14589.0	1.684944256919142e+18
14590.0	1.6846247734280187e+18
14591.0	1.6843039729254397e+18
14592.0	1.683974899577651e+18
14593.0	1.6835186733875197e+18
14594.0	1.683344681913548e+18
14595.0	1.683015249533337e+18
14596.0	1.682647333575065e+18
14597.0	1.6823189648703485e+18
14598.0	1.6820583442415616e+18
14599.0	1.681746054820659e+18
14600.0	1.6814251016454144e+18
14601.0	1.6811054805811197e+18
14602.0	1.6807824185098235e+18
14603.0	1.6804646798491643e+18
14604.0	1.680091364982784e+18
14605.0	1.6798133967126528e+18
14606.0	1.679414238222745e+18
14607.0	1.6791739113144312e+18
14608.0	1.678860078389657e+18
14609.0	1.6785374676254715e+18
14610.0	1.678181861110579e+18
14611.0	1.6778283752357888e+18
14612.0	1.6775145792208893e+18
14613.0	1.677194941379379e+18
14614.0	1.676869580829491e+18
14615.0	1.6765530417397757e+18
14616.0	1.6762325482602493e+18
14617.0	1.6759111001571328e+18
14618.0	1.6755849091350525e+18
14619.0	1.6752269571653624e+18
14620.0	1.674802116113203e+18
14621.0	1.6746259050135547e+18
14622.0	1.6743009739603965e+18
14623.0	1.6739830205513725e+18
14624.0	1.673588549615616e+18
14625.0	1.673335230431232e+18
14626.0	1.6730140088205307e+18
14627.0	1.6726902353952763e+18
14628.0	1.6723742600200187e+18
14629.0	1.6720519965442043e+18
14630.0	1.6717282784837632e+18
14631.0	1.6714062129790976e+18
14632.0	1.6706387509772288e+18
14633.0	1.6707047257014267e+18
14634.0	1.670435820483379e+18
14635.0	1.6700890085851133e+18
14636.0	1.669716883223347e+18
14637.0	1.669470669189939e+18
14638.0	1.6691441359126525e+18
14639.0	1.668809366700032e+18
14640.0	1.6684911096233981e+18
14641.0	1.6664671129960435e+18
14642.0	1.6678421736194048e+18
14643.0	1.6675290872807421e+18
14644.0	1.6671922595037181e+18
14645.0	1.6668530644615165e+18
14646.0	1.6665480093761528e+18
14647.0	1.666219164198502e+18
14648.0	1.6659073160183805e+18
