# Flux units: erg / (cm m2 s)
# Wavelength units: Angstrom
wave	flux
14000.0	2.4298480319070203e+18
14001.0	2.42944660513751e+18
14002.0	2.428959545779814e+18
14003.0	2.428437772684493e+18
14004.0	2.4279145500377083e+18
14005.0	2.427390827429888e+18
14006.0	2.426863116877824e+18
14007.0	2.4263369666068475e+18
14008.0	2.4257620651016187e+18
14009.0	2.425291261188505e+18
14010.0	2.424761443418112e+18
14011.0	2.4239220121927675e+18
14012.0	2.4237226669899776e+18
14013.0	2.423202863539814e+18
14014.0	2.4226763877908475e+18
14015.0	2.4221562051756027e+18
14016.0	2.4216348380889083e+18
14017.0	2.4211124190707707e+18
14018.0	2.4205898960338944e+18
14019.0	2.4200676347215867e+18
14020.0	2.4195448650596347e+18
14021.0	2.4190220500991995e+18
14022.0	2.418497431588045e+18
14023.0	2.4179625353543675e+18
14024.0	2.4174437469257723e+18
14025.0	2.4169345902968827e+18
14026.0	2.4164130957033467e+18
14027.0	2.4158925926432763e+18
14028.0	2.4153702440894464e+18
14029.0	2.4148423758315515e+18
14030.0	2.4130538658856965e+18
14031.0	2.413713779222118e+18
14032.0	2.413282025956966e+18
14033.0	2.412735263198413e+18
14034.0	2.4122448903405563e+18
14035.0	2.4117272528289787e+18
14036.0	2.41120247325655e+18
14037.0	2.410688620684902e+18
14038.0	2.410169114191462e+18
14039.0	2.4096466230312955e+18
14040.0	2.4091262189567995e+18
14041.0	2.4086091669700603e+18
14042.0	2.408085018220953e+18
14043.0	2.4075511185539067e+18
14044.0	2.4070480000450555e+18
14045.0	2.4065328187179003e+18
14046.0	2.406011862672998e+18
14047.0	2.4054883934011387e+18
14048.0	2.404977834196992e+18
14049.0	2.4044606798692347e+18
14050.0	2.403942648093081e+18
14051.0	2.4034196250951675e+18
14052.0	2.40290324587479e+18
14053.0	2.402388881598054e+18
14054.0	2.401871462190285e+18
14055.0	2.401353957218713e+18
14056.0	2.4008365512327163e+18
14057.0	2.4003193264406523e+18
14058.0	2.3998021922455547e+18
14059.0	2.3992851872350203e+18
14060.0	2.3987682728214523e+18
14061.0	2.398247962699366e+18
14062.0	2.397734529558118e+18
14063.0	2.3972072065597435e+18
14064.0	2.3965174532669435e+18
14065.0	2.396180602001817e+18
14066.0	2.395669606590054e+18
14067.0	2.3951386244808704e+18
14068.0	2.394637764185293e+18
14069.0	2.3941199270248443e+18
14070.0	2.393605463762534e+18
14071.0	2.393089579470029e+18
14072.0	2.392575834272563e+18
14073.0	2.3920605891919867e+18
14074.0	2.3915452937797627e+18
14075.0	2.3910176805355515e+18
14076.0	2.390496469476966e+18
14077.0	2.389707083009228e+18
14078.0	2.3894618118553595e+18
14079.0	2.3889660887433216e+18
14080.0	2.388457299535462e+18
14081.0	2.387943571115213e+18
14082.0	2.3874275475718134e+18
14083.0	2.386914164762214e+18
14084.0	2.386396696700518e+18
14085.0	2.385598696810086e+18
14086.0	2.3853435723972603e+18
14087.0	2.3848593735548923e+18
14088.0	2.3843371290198016e+18
14089.0	2.3838209679032315e+18
14090.0	2.383319361021542e+18
14091.0	2.382809147428045e+18
14092.0	2.3822968048058363e+18
14093.0	2.3817839873884155e+18
14094.0	2.381270648199577e+18
14095.0	2.3807549786554363e+18
14096.0	2.3802000487481344e+18
14097.0	2.379699091144704e+18
14098.0	2.3791988499283963e+18
14099.0	2.378708305942937e+18
14100.0	2.3781928528248827e+18
14101.0	2.377688494479769e+18
14102.0	2.377177247409766e+18
14103.0	2.3766590059184123e+18
14104.0	2.3761552280649723e+18
14105.0	2.3756439826726907e+18
14106.0	2.3751332624072704e+18
14107.0	2.374621741868646e+18
14108.0	2.374103421524377e+18
14109.0	2.3735977394569216e+18
14110.0	2.3730865980833787e+18
14111.0	2.3725733645910006e+18
14112.0	2.3720633019924475e+18
14113.0	2.3715504677978107e+18
14114.0	2.371037444020633e+18
14115.0	2.370529609436365e+18
14116.0	2.369950017021542e+18
14117.0	2.3672862816600064e+18
14118.0	2.368980985158041e+18
14119.0	2.3684563817463803e+18
14120.0	2.3679595446271995e+18
14121.0	2.3674650026311675e+18
14122.0	2.36696015774679e+18
14123.0	2.366436087850598e+18
14124.0	2.365923723418009e+18
14125.0	2.365168045732658e+18
14126.0	2.364927858075238e+18
14127.0	2.36443153769431e+18
14128.0	2.363923937991065e+18
14129.0	2.3634092398477307e+18
14130.0	2.3628946406899707e+18
14131.0	2.3624015079800827e+18
14132.0	2.36188547940352e+18
14133.0	2.36106340756357e+18
14134.0	2.360872469423718e+18
14135.0	2.3603494363594747e+18
14136.0	2.359827357918822e+18
14137.0	2.3593455296970747e+18
14138.0	2.358829865186099e+18
14139.0	2.358340200326758e+18
14140.0	2.357826342721945e+18
14141.0	2.3572830897569787e+18
14142.0	2.3566913976139776e+18
14143.0	2.356304410994278e+18
14144.0	2.355811083668685e+18
14145.0	2.3553077638332406e+18
14146.0	2.3547991793074176e+18
14147.0	2.354295560837529e+18
14148.0	2.353786785051443e+18
14149.0	2.353280574501683e+18
14150.0	2.3527829605974016e+18
14151.0	2.3522662961643515e+18
14152.0	2.35177329599447e+18
14153.0	2.3512684209111035e+18
14154.0	2.3507461461770235e+18
14155.0	2.3502273225162747e+18
14156.0	2.349748945367859e+18
14157.0	2.3492499406323707e+18
14158.0	2.3487435539218427e+18
14159.0	2.348241695381913e+18
14160.0	2.3477305724633083e+18
14161.0	2.3471986122424315e+18
14162.0	2.346664180737638e+18
14163.0	2.346216505894502e+18
14164.0	2.345659497290137e+18
14165.0	2.345166487053926e+18
14166.0	2.344709781035417e+18
14167.0	2.344202141066854e+18
14168.0	2.3437067451105275e+18
14169.0	2.3432076447449083e+18
14170.0	2.3427021958807547e+18
14171.0	2.342201536911769e+18
14172.0	2.3417004970999803e+18
14173.0	2.341171387328102e+18
14174.0	2.340690569094758e+18
14175.0	2.3401944047419387e+18
14176.0	2.339692193880473e+18
14177.0	2.339190831946137e+18
14178.0	2.338688317417062e+18
14179.0	2.338182501131878e+18
14180.0	2.3376813891780603e+18
14181.0	2.337161401178521e+18
14182.0	2.3366595678044155e+18
14183.0	2.3361583535095803e+18
14184.0	2.335652751972761e+18
14185.0	2.3351455582781435e+18
14186.0	2.3342356543569915e+18
14187.0	2.334039377707007e+18
14188.0	2.3333930304274427e+18
14189.0	2.3328910913568763e+18
14190.0	2.332391261182361e+18
14191.0	2.3318889714679803e+18
14192.0	2.3313848782028795e+18
14193.0	2.330823338072473e+18
14194.0	2.3303894591340544e+18
14195.0	2.329893578316185e+18
14196.0	2.3293940551647227e+18
14197.0	2.3288943004876795e+18
14198.0	2.328391707105689e+18
14199.0	2.3278920296038395e+18
14200.0	2.327152010094182e+18
14201.0	2.326868814043545e+18
14202.0	2.3263959213670395e+18
14203.0	2.3258919371538427e+18
14204.0	2.325397083101593e+18
14205.0	2.3248190341906427e+18
14206.0	2.3240540585721856e+18
14207.0	2.323628387047833e+18
14208.0	2.3231305416179707e+18
14209.0	2.32255213535232e+18
14210.0	2.322073962885939e+18
14211.0	2.321630777625805e+18
14212.0	2.3211355242758144e+18
14213.0	2.3206355212959744e+18
14214.0	2.3201386204233723e+18
14215.0	2.319634874446643e+18
14216.0	2.319143137601126e+18
14217.0	2.3186451025887227e+18
14218.0	2.3181387762761723e+18
14219.0	2.3176492003360763e+18
14220.0	2.3171514958348283e+18
14221.0	2.3166498151333883e+18
14222.0	2.3161256613511163e+18
14223.0	2.3156573471768576e+18
14224.0	2.3151568022929403e+18
14225.0	2.3138328937234437e+18
14226.0	2.3138608378544123e+18
14227.0	2.3133796840767483e+18
14228.0	2.3113879198367744e+18
14229.0	2.3120726886186993e+18
14230.0	2.311890952781824e+18
14231.0	2.311371560373453e+18
14232.0	2.310899776670925e+18
14233.0	2.310400584030617e+18
14234.0	2.3099065721946107e+18
14235.0	2.3094086076465147e+18
14236.0	2.3089133693960187e+18
14237.0	2.308416112846438e+18
14238.0	2.307919681735885e+18
14239.0	2.307415969313587e+18
14240.0	2.306110540847513e+18
14241.0	2.3064147805601787e+18
14242.0	2.3059284627554304e+18
14243.0	2.3053486035828736e+18
14244.0	2.3049444991696893e+18
14245.0	2.3044412145663995e+18
14246.0	2.303944150954803e+18
14247.0	2.3034561604616192e+18
14248.0	2.3027685932400632e+18
14249.0	2.30216898225111e+18
14250.0	2.3016732138405883e+18
14251.0	2.301178963768115e+18
14252.0	2.3006830745616376e+18
14253.0	2.3001863129399288e+18
14254.0	2.2996877947437048e+18
14255.0	2.299165382436454e+18
14256.0	2.29795182936064e+18
14257.0	2.298077098121625e+18
14258.0	2.2977037681557496e+18
14259.0	2.2972006798458877e+18
14260.0	2.2966970714423293e+18
14261.0	2.2962074887913467e+18
14262.0	2.295735950036172e+18
14263.0	2.294166969961677e+18
14264.0	2.2944021496201208e+18
14265.0	2.2942553926008827e+18
14266.0	2.2937782452223992e+18
14267.0	2.2932875099766776e+18
14268.0	2.292794862128332e+18
14269.0	2.2922999896211448e+18
14270.0	2.2918071840669688e+18
14271.0	2.2913112193630203e+18
14272.0	2.2908118203629565e+18
14273.0	2.290142489975193e+18
14274.0	2.2877592663097347e+18
14275.0	2.288775725685145e+18
14276.0	2.2885112479743995e+18
14277.0	2.2880330067214333e+18
14278.0	2.287551670072115e+18
14279.0	2.287059260460236e+18
14280.0	2.286563893025177e+18
14281.0	2.2860754445139965e+18
14282.0	2.2855829996699643e+18
14283.0	2.2850903434330112e+18
14284.0	2.2845976553193467e+18
14285.0	2.28410482795479e+18
14286.0	2.2836119435476987e+18
14287.0	2.283119577556582e+18
14288.0	2.2826238376673277e+18
14289.0	2.2816092237856755e+18
14290.0	2.281639218092441e+18
14291.0	2.2811505212784637e+18
14292.0	2.2806595108863992e+18
14293.0	2.280165658433945e+18
14294.0	2.2795938842017787e+18
14295.0	2.2791697746362365e+18
14296.0	2.278267705674957e+18
14297.0	2.278187091152076e+18
14298.0	2.277428046279475e+18
14299.0	2.2771989332623352e+18
14300.0	2.2767207591182336e+18
14301.0	2.2759952636444664e+18
14302.0	2.2754264707235837e+18
14303.0	2.2749109672738808e+18
14304.0	2.274432105263923e+18
14305.0	2.273947235332915e+18
14306.0	2.273436350650777e+18
14307.0	2.2729478987841533e+18
14308.0	2.272464270367129e+18
14309.0	2.2719644066381821e+18
14310.0	2.2714169677578237e+18
14311.0	2.2709417162047483e+18
14312.0	2.270455332968857e+18
14313.0	2.2699720988164096e+18
14314.0	2.269514413008486e+18
14315.0	2.2690345879863293e+18
14316.0	2.268517591364403e+18
14317.0	2.268033572038246e+18
14318.0	2.267571826144051e+18
14319.0	2.2670863287451645e+18
14320.0	2.2665978869448696e+18
14321.0	2.266109406556979e+18
14322.0	2.265597411223142e+18
14323.0	2.265118537469132e+18
14324.0	2.2646433731575803e+18
14325.0	2.2641474252308477e+18
14326.0	2.2636663100407805e+18
14327.0	2.2631729407721472e+18
14328.0	2.2626854015860733e+18
14329.0	2.2622006390292475e+18
14330.0	2.2617121854849021e+18
14331.0	2.2612205073596413e+18
14332.0	2.260735360604569e+18
14333.0	2.2600047581462523e+18
14334.0	2.2594348109529083e+18
14335.0	2.2589377355972603e+18
14336.0	2.258376442091929e+18
14337.0	2.2579670662774776e+18
14338.0	2.2574780121087995e+18
14339.0	2.2569820708929528e+18
14340.0	2.256500464130457e+18
14341.0	2.256009767472332e+18
14342.0	2.2555247952003067e+18
14343.0	2.2550347713085437e+18
14344.0	2.2545440931053565e+18
14345.0	2.2540595117424637e+18
14346.0	2.2535682664693755e+18
14347.0	2.2530658173714427e+18
14348.0	2.2525914130677755e+18
14349.0	2.2521065532030976e+18
14350.0	2.2515554115911675e+18
14351.0	2.2510643642892283e+18
14352.0	2.2506398017388536e+18
14353.0	2.2501578963419133e+18
14354.0	2.249663431521075e+18
14355.0	2.2491614303748086e+18
14356.0	2.2486784361365496e+18
14357.0	2.248210449118003e+18
14358.0	2.2477242655309821e+18
14359.0	2.247225982215782e+18
14360.0	2.2467457327300603e+18
14361.0	2.2462610758696957e+18
14362.0	2.245777074998476e+18
14363.0	2.2452881986682877e+18
14364.0	2.2446048593051645e+18
14365.0	2.2442529488109565e+18
14366.0	2.2437975866474493e+18
14367.0	2.24334625940439e+18
14368.0	2.2428605405462528e+18
14369.0	2.2423349472788475e+18
14370.0	2.241523988666777e+18
14371.0	2.2410376876392443e+18
14372.0	2.2405476067049467e+18
14373.0	2.2400643809411067e+18
14374.0	2.2395781487001595e+18
14375.0	2.2390917537202173e+18
14376.0	2.2386054745030653e+18
14377.0	2.238118881551974e+18
14378.0	2.2376315604697085e+18
14379.0	2.2371469958840315e+18
14380.0	2.2366603140136955e+18
14381.0	2.2361670454083576e+18
14382.0	2.2356882555404285e+18
14383.0	2.235200766686003e+18
14384.0	2.2347045016698877e+18
14385.0	2.2342325569060864e+18
14386.0	2.2337364445626365e+18
14387.0	2.2332615772078077e+18
14388.0	2.2327754691182587e+18
14389.0	2.2322908391014395e+18
14390.0	2.2318049323384827e+18
14391.0	2.2313210019315704e+18
14392.0	2.2308352981729277e+18
14393.0	2.2303510557097981e+18
14394.0	2.2298398254170104e+18
14395.0	2.2293701992644605e+18
14396.0	2.228895838581555e+18
14397.0	2.228411799122739e+18
14398.0	2.2279265449934843e+18
14399.0	2.2274417706926077e+18
14400.0	2.226946159987916e+18
14401.0	2.2264664591171581e+18
14402.0	2.2259784283586555e+18
14403.0	2.224696197749144e+18
14404.0	2.2223132542631923e+18
14405.0	2.223640095490046e+18
14406.0	2.2240358263947261e+18
14407.0	2.2225145103908864e+18
14408.0	2.2230415397879805e+18
14409.0	2.2225887260835837e+18
14410.0	2.2220141886439421e+18
14411.0	2.221303913460531e+18
14412.0	2.2208193220313083e+18
14413.0	2.2203370391470075e+18
14414.0	2.2198510384316413e+18
14415.0	2.2193670912475133e+18
14416.0	2.2188778709843965e+18
14417.0	2.2183778428387323e+18
14418.0	2.217893610441932e+18
14419.0	2.2174268901031928e+18
14420.0	2.2169410135392253e+18
14421.0	2.216457356600934e+18
14422.0	2.2159622777339901e+18
14423.0	2.215424220672819e+18
14424.0	2.210652013723646e+18
14425.0	2.2144586197499901e+18
14426.0	2.214033131097292e+18
14427.0	2.2135577822363645e+18
14428.0	2.213061399779737e+18
14429.0	2.2125913726517243e+18
14430.0	2.212104633738854e+18
14431.0	2.2112922238976e+18
14432.0	2.2111303388626944e+18
14433.0	2.2098634208182264e+18
14434.0	2.2101590051651581e+18
14435.0	2.2096599131881467e+18
14436.0	2.2092106159882232e+18
14437.0	2.2087315392299003e+18
14438.0	2.2082016912605181e+18
14439.0	2.2077561873891323e+18
14440.0	2.2072854908502008e+18
14441.0	2.2068008558002168e+18
14442.0	2.2062935144660987e+18
14443.0	2.205784768879001e+18
14444.0	2.2053266116313083e+18
14445.0	2.2048419749036027e+18
14446.0	2.2032175629074435e+18
14447.0	2.2038544528703483e+18
14448.0	2.2034004614053883e+18
14449.0	2.2029200391143421e+18
14450.0	2.2024341088632827e+18
14451.0	2.201954949896601e+18
14452.0	2.2014706218696701e+18
14453.0	2.2009794990702587e+18
14454.0	2.2005081515753467e+18
14455.0	2.2000203355652093e+18
14456.0	2.199536967195033e+18
14457.0	2.1990550215327744e+18
14458.0	2.1985724064595965e+18
14459.0	2.1980862362943485e+18
14460.0	2.1972775593836544e+18
14461.0	2.1967294292819965e+18
14462.0	2.1962276177182715e+18
14463.0	2.1957782232104957e+18
14464.0	2.1953141889040376e+18
14465.0	2.1948283173732347e+18
14466.0	2.194359363987046e+18
14467.0	2.193862157769113e+18
14468.0	2.1933986100019192e+18
14469.0	2.1928921041731581e+18
14470.0	2.1924194665103352e+18
14471.0	2.191955410393497e+18
14472.0	2.1914767765536765e+18
14473.0	2.1910011676459003e+18
14474.0	2.1905210825768955e+18
14475.0	2.1900374927474683e+18
14476.0	2.1895090691637245e+18
14477.0	2.1890761079390203e+18
14478.0	2.188597193919692e+18
14479.0	2.1881150922293243e+18
14480.0	2.1876230936592376e+18
14481.0	2.1871548482715643e+18
14482.0	2.1866711930109947e+18
14483.0	2.1861866905010173e+18
14484.0	2.1857026862743547e+18
14485.0	2.1852046143520763e+18
14486.0	2.18456518599639e+18
14487.0	2.1842659173728253e+18
14488.0	2.1837536452149245e+18
14489.0	2.1832766505091067e+18
14490.0	2.1828209410572283e+18
14491.0	2.1823478957080573e+18
14492.0	2.1818686830542848e+18
14493.0	2.1813792698531837e+18
14494.0	2.1808929738588155e+18
14495.0	2.1804243459506179e+18
14496.0	2.179863082644275e+18
14497.0	2.179465127080755e+18
14498.0	2.1789866090037243e+18
14499.0	2.1785065423896573e+18
14500.0	2.1780255698059261e+18
14501.0	2.1775162739261437e+18
14502.0	2.1769159901708285e+18
14503.0	2.1765656131141627e+18
14504.0	2.1761005839187965e+18
14505.0	2.1755965409853437e+18
14506.0	2.1750938637172733e+18
14507.0	2.1745126355238904e+18
14508.0	2.174184750002995e+18
14509.0	2.1737068191285245e+18
14510.0	2.173227341394739e+18
14511.0	2.1727469342031867e+18
14512.0	2.17225783976919e+18
14513.0	2.1717864016773117e+18
14514.0	2.1712862695129085e+18
14515.0	2.1708215758618621e+18
14516.0	2.1687814294863877e+18
14517.0	2.1695226385006587e+18
14518.0	2.1690582485172221e+18
14519.0	2.168579002309017e+18
14520.0	2.16809854814126e+18
14521.0	2.167617392685875e+18
14522.0	2.1671310245494776e+18
14523.0	2.1665744907403264e+18
14524.0	2.1661123388375037e+18
14525.0	2.165690247571046e+18
14526.0	2.1652147309379584e+18
14527.0	2.1647184793436155e+18
14528.0	2.1641795985211387e+18
14529.0	2.1637661944971261e+18
14530.0	2.163281596357017e+18
14531.0	2.1628099602939901e+18
14532.0	2.1622615500128253e+18
14533.0	2.161849036858982e+18
14534.0	2.1613724833939456e+18
14535.0	2.1608843586830333e+18
14536.0	2.1604088789598203e+18
14537.0	2.1599241768009728e+18
14538.0	2.1594515693371387e+18
14539.0	2.1589714926567421e+18
14540.0	2.1584910586216443e+18
14541.0	2.157993419551539e+18
14542.0	2.1575269055725565e+18
14543.0	2.1570061005225981e+18
14544.0	2.1565638782746621e+18
14545.0	2.1560697657753595e+18
14546.0	2.1511046829178854e+18
14547.0	2.1509826924249055e+18
14548.0	2.154623157036646e+18
14549.0	2.1540893127344125e+18
14550.0	2.153681926697779e+18
14551.0	2.15320907260887e+18
14552.0	2.1527289153978368e+18
14553.0	2.1522463607226363e+18
14554.0	2.151770070659891e+18
14555.0	2.1512896148144125e+18
14556.0	2.150808258032435e+18
14557.0	2.1503283055034368e+18
14558.0	2.1498411253497853e+18
14559.0	2.1483977630023662e+18
14560.0	2.1488747291869181e+18
14561.0	2.1484022173532155e+18
14562.0	2.1479059707920381e+18
14563.0	2.1474393494388736e+18
14564.0	2.1469462351839224e+18
14565.0	2.1464869052088317e+18
14566.0	2.146007885493043e+18
14567.0	2.1455239466975227e+18
14568.0	2.1450287118024701e+18
14569.0	2.1445610485841917e+18
14570.0	2.143806424508006e+18
14571.0	2.1436008532803581e+18
14572.0	2.1430953205301243e+18
14573.0	2.1426037548122104e+18
14574.0	2.1421237133639677e+18
14575.0	2.1416680945090557e+18
14576.0	2.1411871034703872e+18
14577.0	2.1407223678763005e+18
14578.0	2.1402477253361661e+18
14579.0	2.1397695478366208e+18
14580.0	2.1392868035788795e+18
14581.0	2.1384902414958587e+18
14582.0	2.1380072942338043e+18
14583.0	2.1375330308587517e+18
14584.0	2.137034876728115e+18
14585.0	2.1365699532292093e+18
14586.0	2.1360887793188861e+18
14587.0	2.1356091573010427e+18
14588.0	2.1351290537771003e+18
14589.0	2.1346542619197437e+18
14590.0	2.1341798274170877e+18
14591.0	2.133703005516595e+18
14592.0	2.1332238046068733e+18
14593.0	2.1326819424731133e+18
14594.0	2.1322791802372093e+18
14595.0	2.1318010597801984e+18
14596.0	2.1311579102380027e+18
14597.0	2.130649245181542e+18
14598.0	2.1303584389857277e+18
14599.0	2.1299046891126781e+18
14600.0	2.1294279930413056e+18
14601.0	2.1289535417614333e+18
14602.0	2.1284763557953533e+18
14603.0	2.1280013240238077e+18
14604.0	2.1274972492136443e+18
14605.0	2.1270307419455483e+18
14606.0	2.1265341514514424e+18
14607.0	2.1260969573351421e+18
14608.0	2.1256254185799677e+18
14609.0	2.1251450533314557e+18
14610.0	2.1246655118442493e+18
14611.0	2.124194518348595e+18
14612.0	2.1237263484583933e+18
14613.0	2.1232537510608893e+18
14614.0	2.1227776723910653e+18
14615.0	2.1223033385517056e+18
14616.0	2.12182951306199e+18
14617.0	2.1213530199949304e+18
14618.0	2.1208566425714683e+18
14619.0	2.1202113841332214e+18
14620.0	2.1194551360225275e+18
14621.0	2.119445074726092e+18
14622.0	2.1189727407308792e+18
14623.0	2.1184998061113336e+18
14624.0	2.1179879080853501e+18
14625.0	2.1175451942649853e+18
14626.0	2.117071212747161e+18
14627.0	2.116592820499251e+18
14628.0	2.116120369063526e+18
14629.0	2.1156432334290944e+18
14630.0	2.1151640476188672e+18
14631.0	2.1146886282936315e+18
14632.0	2.1138805419409408e+18
14633.0	2.1136689661476861e+18
14634.0	2.1132526160445437e+18
14635.0	2.1127440365518843e+18
14636.0	2.1122005000519677e+18
14637.0	2.1118286582251517e+18
14638.0	2.1113393624645627e+18
14639.0	2.1108559051751414e+18
14640.0	2.1103791906488315e+18
14641.0	2.1085891371991027e+18
14642.0	2.1094210371321848e+18
14643.0	2.1089572343513088e+18
14644.0	2.1084705994571773e+18
14645.0	2.1079886957379581e+18
14646.0	2.107500993812889e+18
14647.0	2.1070136408539136e+18
14648.0	2.1065521046749176e+18
14649.0	2.106085048791859e+18
