# Flux units: erg / (cm m2 s)
# Wavelength units: Angstrom
wave	flux
14000.0	1.8042546248744952e+18
14001.0	1.8039014292455424e+18
14002.0	1.80375614694359e+18
14003.0	1.8034368362577917e+18
14004.0	1.8031159669686272e+18
14005.0	1.802794498732851e+18
14006.0	1.8024633181667325e+18
14007.0	1.802139553130086e+18
14008.0	1.8017083451244544e+18
14009.0	1.80150149882839e+18
14010.0	1.8011673084297216e+18
14011.0	1.8000705751089152e+18
14012.0	1.8005372954476544e+18
14013.0	1.8002228736425981e+18
14014.0	1.7998956373999608e+18
14015.0	1.7995789926137853e+18
14016.0	1.7992607472812027e+18
14017.0	1.7989400977735677e+18
14018.0	1.798612073001779e+18
14019.0	1.7982985286451195e+18
14020.0	1.7979769094143997e+18
14021.0	1.7976552918614013e+18
14022.0	1.7973309480108027e+18
14023.0	1.796998594717286e+18
14024.0	1.7966758027591675e+18
14025.0	1.7963733582086141e+18
14026.0	1.7960522641047547e+18
14027.0	1.7957338510000128e+18
14028.0	1.7954051719167997e+18
14029.0	1.795082430290329e+18
14030.0	1.7932642129281034e+18
14031.0	1.7943594732093435e+18
14032.0	1.794127945950822e+18
14033.0	1.7937569782169597e+18
14034.0	1.7934906902446077e+18
14035.0	1.7931750034374653e+18
14036.0	1.7928516611866621e+18
14037.0	1.7925371320074237e+18
14038.0	1.792217913596313e+18
14039.0	1.7918937308069888e+18
14040.0	1.791574931826278e+18
14041.0	1.7912585370206203e+18
14042.0	1.790928693598617e+18
14043.0	1.7905728975011835e+18
14044.0	1.7902836566196221e+18
14045.0	1.789975663843737e+18
14046.0	1.7896601146097661e+18
14047.0	1.7893337625264128e+18
14048.0	1.7890260281196544e+18
14049.0	1.788709559494246e+18
14050.0	1.788391173233049e+18
14051.0	1.7880625360928765e+18
14052.0	1.7877494128443387e+18
14053.0	1.7874360329043968e+18
14054.0	1.787117980509798e+18
14055.0	1.7867998240964605e+18
14056.0	1.7864816978821115e+18
14057.0	1.7861637142740987e+18
14058.0	1.7858457239551997e+18
14059.0	1.7855213700382715e+18
14060.0	1.7852099664543736e+18
14061.0	1.7848835774611453e+18
14062.0	1.784573989172019e+18
14063.0	1.7842362218708987e+18
14064.0	1.7836358877839363e+18
14065.0	1.7836103075627003e+18
14066.0	1.7833019775647741e+18
14067.0	1.7829815058956285e+18
14068.0	1.7826699110514688e+18
14069.0	1.7823495836663803e+18
14070.0	1.7820344907726843e+18
14071.0	1.7817149435281405e+18
14072.0	1.7814016508297216e+18
14073.0	1.781084709086822e+18
14074.0	1.7807677354672128e+18
14075.0	1.780429142727065e+18
14076.0	1.7801252637245437e+18
14077.0	1.7794828607684605e+18
14078.0	1.779473051130265e+18
14079.0	1.7791714974498808e+18
14080.0	1.7788679674134528e+18
14081.0	1.7785519249293312e+18
14082.0	1.7782343875952637e+18
14083.0	1.7779170247442427e+18
14084.0	1.777598266028851e+18
14085.0	1.7768707338010621e+18
14086.0	1.7769347623682048e+18
14087.0	1.7766491554316288e+18
14088.0	1.7763223721738237e+18
14089.0	1.7760182146695168e+18
14090.0	1.7757038884945917e+18
14091.0	1.7753924480008195e+18
14092.0	1.775077251088384e+18
14093.0	1.7747616984989693e+18
14094.0	1.7744459009622013e+18
14095.0	1.7741287109165053e+18
14096.0	1.7737579042439165e+18
14097.0	1.7734666953949181e+18
14098.0	1.7731574644604925e+18
14099.0	1.7728685104693248e+18
14100.0	1.7725396149600256e+18
14101.0	1.7722404671324152e+18
14102.0	1.7719233173520381e+18
14103.0	1.7715912895365115e+18
14104.0	1.771292770854502e+18
14105.0	1.77098160382935e+18
14106.0	1.770666994119475e+18
14107.0	1.7703466281467896e+18
14108.0	1.7700224554237952e+18
14109.0	1.769717378528051e+18
14110.0	1.769406226602393e+18
14111.0	1.769084553684582e+18
14112.0	1.7687700446380027e+18
14113.0	1.768465058339225e+18
14114.0	1.7681338626736123e+18
14115.0	1.7678290491801597e+18
14116.0	1.7674579321290747e+18
14117.0	1.764526031424717e+18
14118.0	1.76687043093463e+18
14119.0	1.7665315378823165e+18
14120.0	1.766232641712947e+18
14121.0	1.7659315007520763e+18
14122.0	1.7656043903385597e+18
14123.0	1.7653032124678144e+18
14124.0	1.7649825612824576e+18
14125.0	1.7641355283005435e+18
14126.0	1.7643788868517888e+18
14127.0	1.7640744323907581e+18
14128.0	1.7637609299771387e+18
14129.0	1.7634358194077688e+18
14130.0	1.763111384960204e+18
14131.0	1.7628234761895933e+18
14132.0	1.7624970150543357e+18
14133.0	1.761539277612645e+18
14134.0	1.761872296961638e+18
14135.0	1.7615523739074557e+18
14136.0	1.7612413981425661e+18
14137.0	1.7609392086056957e+18
14138.0	1.760611385160499e+18
14139.0	1.7603220671037435e+18
14140.0	1.7600063249317885e+18
14141.0	1.7596609088978941e+18
14142.0	1.7592232315977728e+18
14143.0	1.7590682705199104e+18
14144.0	1.7587632020127736e+18
14145.0	1.7584502113042432e+18
14146.0	1.7581345815396347e+18
14147.0	1.7578263488495608e+18
14148.0	1.757513487325593e+18
14149.0	1.7572038319276027e+18
14150.0	1.756895156319027e+18
14151.0	1.7565649354096637e+18
14152.0	1.7562583334649853e+18
14153.0	1.7559492266819584e+18
14154.0	1.7556074261381117e+18
14155.0	1.7552629127184381e+18
14156.0	1.755008211091456e+18
14157.0	1.75470434886615e+18
14158.0	1.7543887761440765e+18
14159.0	1.7540823738482688e+18
14160.0	1.753760269756006e+18
14161.0	1.75338914096087e+18
14162.0	1.753020969988915e+18
14163.0	1.7528266948607997e+18
14164.0	1.7524474911916027e+18
14165.0	1.7521810086035456e+18
14166.0	1.751905201238835e+18
14167.0	1.7515799530962941e+18
14168.0	1.7512821508014077e+18
14169.0	1.7509773456965624e+18
14170.0	1.750662925569228e+18
14171.0	1.7503534865973243e+18
14172.0	1.7500471010787323e+18
14173.0	1.7497070436876288e+18
14174.0	1.7494202036256763e+18
14175.0	1.7491176751890424e+18
14176.0	1.7488081238097915e+18
14177.0	1.748498496933068e+18
14178.0	1.748188319763661e+18
14179.0	1.7478732537135104e+18
14180.0	1.7475697857527805e+18
14181.0	1.7472603165818877e+18
14182.0	1.7469498256785403e+18
14183.0	1.7466411114823677e+18
14184.0	1.7463247368093693e+18
14185.0	1.7460154790313981e+18
14186.0	1.745238053040947e+18
14187.0	1.7453566058823675e+18
14188.0	1.7450889170124797e+18
14189.0	1.7447822429257728e+18
14190.0	1.7444739448045568e+18
14191.0	1.7441633213612024e+18
14192.0	1.743847892923187e+18
14193.0	1.7434748028715003e+18
14194.0	1.7432383984762877e+18
14195.0	1.742935170429747e+18
14196.0	1.74262680855511e+18
14197.0	1.742318475201741e+18
14198.0	1.7420035752460285e+18
14199.0	1.7416953912098813e+18
14200.0	1.7410958540406781e+18
14201.0	1.7410603282857981e+18
14202.0	1.740773768403353e+18
14203.0	1.740462747339981e+18
14204.0	1.7401583650209787e+18
14205.0	1.7398496759906304e+18
14206.0	1.7393932971278333e+18
14207.0	1.739235542643507e+18
14208.0	1.7389299976634365e+18
14209.0	1.7384591232860152e+18
14210.0	1.7381987559931896e+18
14211.0	1.7379992212078587e+18
14212.0	1.7377005515309053e+18
14213.0	1.7373937147052032e+18
14214.0	1.7370861849804795e+18
14215.0	1.7367641278644221e+18
14216.0	1.7364736907673597e+18
14217.0	1.7361667516006397e+18
14218.0	1.7358452850425856e+18
14219.0	1.735552692073267e+18
14220.0	1.7352425937567741e+18
14221.0	1.7349370252886013e+18
14222.0	1.7346127284142077e+18
14223.0	1.7343242760617981e+18
14224.0	1.734014065337958e+18
14225.0	1.7327649932181507e+18
14226.0	1.7333818159529984e+18
14227.0	1.7330892649267197e+18
14228.0	1.7302120998895626e+18
14229.0	1.732031213155121e+18
14230.0	1.7321767605370875e+18
14231.0	1.7318644090404856e+18
14232.0	1.7315453886005243e+18
14233.0	1.7312218517340157e+18
14234.0	1.730918680730009e+18
14235.0	1.7306096091791352e+18
14236.0	1.7303066881556477e+18
14237.0	1.729998782621286e+18
14238.0	1.7296927410356221e+18
14239.0	1.7293695615238141e+18
14240.0	1.7269928759394307e+18
14241.0	1.728749284360192e+18
14242.0	1.7284614980632576e+18
14243.0	1.7279779183001597e+18
14244.0	1.7278601942532093e+18
14245.0	1.7275448161468416e+18
14246.0	1.7272390815842304e+18
14247.0	1.7269404337176576e+18
14248.0	1.726619353035571e+18
14249.0	1.7263304409874427e+18
14250.0	1.7260070551158781e+18
14251.0	1.7256873283551227e+18
14252.0	1.7253818639056893e+18
14253.0	1.7250751143215104e+18
14254.0	1.7247662289977336e+18
14255.0	1.72441271795712e+18
14256.0	1.7231877697961987e+18
14257.0	1.7237320008728576e+18
14258.0	1.7235458375286781e+18
14259.0	1.7232212134985725e+18
14260.0	1.7229038892351488e+18
14261.0	1.7226091286495232e+18
14262.0	1.7223421762994176e+18
14263.0	1.7206295698341893e+18
14264.0	1.7213505136492534e+18
14265.0	1.7214283800641533e+18
14266.0	1.7211387180744696e+18
14267.0	1.7208379462123515e+18
14268.0	1.7205346728673277e+18
14269.0	1.7202195866845181e+18
14270.0	1.7199009101774843e+18
14271.0	1.7195814082314237e+18
14272.0	1.7192726202155003e+18
14273.0	1.718938114405171e+18
14274.0	1.7164283552989194e+18
14275.0	1.718087096834457e+18
14276.0	1.7180373809102848e+18
14277.0	1.717746829728153e+18
14278.0	1.7174567717961725e+18
14279.0	1.7171531360632827e+18
14280.0	1.7168433347035133e+18
14281.0	1.716549022069555e+18
14282.0	1.716246357737472e+18
14283.0	1.7159431900889088e+18
14284.0	1.71563990164439e+18
14285.0	1.7153360478076925e+18
14286.0	1.7150311588167677e+18
14287.0	1.7147290414219261e+18
14288.0	1.7144183508697085e+18
14289.0	1.7127803258404833e+18
14290.0	1.713812978584781e+18
14291.0	1.7135165838983163e+18
14292.0	1.7132129531985915e+18
14293.0	1.7128798717739005e+18
14294.0	1.7124021069938688e+18
14295.0	1.7122411816157181e+18
14296.0	1.7108876730040328e+18
14297.0	1.7116398526398461e+18
14298.0	1.710962667159552e+18
14299.0	1.7110315997069307e+18
14300.0	1.710745741112115e+18
14301.0	1.71044874747904e+18
14302.0	1.710146356615577e+18
14303.0	1.7098044033990653e+18
14304.0	1.70952288674775e+18
14305.0	1.7092395095031803e+18
14306.0	1.7089198045528061e+18
14307.0	1.708617886806835e+18
14308.0	1.708323211785011e+18
14309.0	1.708006597197824e+18
14310.0	1.7076314955579387e+18
14311.0	1.7072281058541563e+18
14312.0	1.7070330925285368e+18
14313.0	1.7066378078978048e+18
14314.0	1.706505855093964e+18
14315.0	1.7062170705526781e+18
14316.0	1.705857211013529e+18
14317.0	1.7055930185154552e+18
14318.0	1.7053013029945341e+18
14319.0	1.7049841481809915e+18
14320.0	1.704683235390259e+18
14321.0	1.7043793178001403e+18
14322.0	1.7040322810871803e+18
14323.0	1.703756686793113e+18
14324.0	1.7034811226980347e+18
14325.0	1.70316902957056e+18
14326.0	1.7028801326219261e+18
14327.0	1.7025711952887805e+18
14328.0	1.7022704569810936e+18
14329.0	1.7019782482100221e+18
14330.0	1.7016777246507005e+18
14331.0	1.701376838703513e+18
14332.0	1.70107661713408e+18
14333.0	1.7007761808162813e+18
14334.0	1.7004755985367037e+18
14335.0	1.7001582491074557e+18
14336.0	1.6997780891369472e+18
14337.0	1.6995704023023613e+18
14338.0	1.6992708149116925e+18
14339.0	1.6989603240083453e+18
14340.0	1.6986728799666176e+18
14341.0	1.6983690898833405e+18
14342.0	1.6980711315603453e+18
14343.0	1.697772331021107e+18
14344.0	1.697465475740467e+18
14345.0	1.697171757019955e+18
14346.0	1.6968392661532667e+18
14347.0	1.6964988463742979e+18
14348.0	1.6962304981598203e+18
14349.0	1.6959348416708605e+18
14350.0	1.6955570321883128e+18
14351.0	1.6952493917339643e+18
14352.0	1.6950245938167803e+18
14353.0	1.6947358562516987e+18
14354.0	1.6944281671434237e+18
14355.0	1.6941105543118843e+18
14356.0	1.6938158658682875e+18
14357.0	1.693540110512947e+18
14358.0	1.6932428618661885e+18
14359.0	1.6929253329207293e+18
14360.0	1.6926376170881021e+18
14361.0	1.692341985764966e+18
14362.0	1.6920461430489085e+18
14363.0	1.6917451195285504e+18
14364.0	1.691206560828621e+18
14365.0	1.6910848924581888e+18
14366.0	1.6908022248898557e+18
14367.0	1.690552432276275e+18
14368.0	1.6902536736800765e+18
14369.0	1.6899558462193661e+18
14370.0	1.6896575489966077e+18
14371.0	1.689359396057907e+18
14372.0	1.6890541329350653e+18
14373.0	1.6887597951352832e+18
14374.0	1.6884635615100928e+18
14375.0	1.688162324919091e+18
14376.0	1.6878675458785277e+18
14377.0	1.687568461804339e+18
14378.0	1.6872443645788157e+18
14379.0	1.6869345162428413e+18
14380.0	1.6866353449271293e+18
14381.0	1.6863231091933184e+18
14382.0	1.686037946852966e+18
14383.0	1.685739077527142e+18
14384.0	1.6854212600135675e+18
14385.0	1.685145989519769e+18
14386.0	1.6848257829306365e+18
14387.0	1.684549681964646e+18
14388.0	1.6842474169303037e+18
14389.0	1.6839537804181504e+18
14390.0	1.6836538591608832e+18
14391.0	1.6833590096560123e+18
14392.0	1.6830603114577915e+18
14393.0	1.6827639520034816e+18
14394.0	1.6824178212601853e+18
14395.0	1.6821550330150907e+18
14396.0	1.6818712480841725e+18
14397.0	1.6815739574943741e+18
14398.0	1.6812761182896123e+18
14399.0	1.680978470345113e+18
14400.0	1.680655451894579e+18
14401.0	1.6803733899837435e+18
14402.0	1.6800743981842432e+18
14403.0	1.6792286251712504e+18
14404.0	1.675331933883594e+18
14405.0	1.6769734670286792e+18
14406.0	1.678877835395072e+18
14407.0	1.6778278819856381e+18
14408.0	1.678279420621619e+18
14409.0	1.677980153675776e+18
14410.0	1.6776927096340477e+18
14411.0	1.6774134277079037e+18
14412.0	1.6771144627519485e+18
14413.0	1.6768232606138365e+18
14414.0	1.676523651412787e+18
14415.0	1.676196400070656e+18
14416.0	1.6758934673031163e+18
14417.0	1.6755868133490688e+18
14418.0	1.675275820806963e+18
14419.0	1.6750019663101947e+18
14420.0	1.6747009427898365e+18
14421.0	1.6744093715529725e+18
14422.0	1.6741031051526136e+18
14423.0	1.6737625981321213e+18
14424.0	1.670372986454014e+18
14425.0	1.673182488979046e+18
14426.0	1.672925114741555e+18
14427.0	1.6726322885689341e+18
14428.0	1.6723092264976384e+18
14429.0	1.6720386670460923e+18
14430.0	1.671740483908403e+18
14431.0	1.6710227378307072e+18
14432.0	1.671145080645222e+18
14433.0	1.6702566582714365e+18
14434.0	1.6705303735173115e+18
14435.0	1.6702061924057085e+18
14436.0	1.6699637213691904e+18
14437.0	1.669671254228992e+18
14438.0	1.669320680878899e+18
14439.0	1.6690677240823803e+18
14440.0	1.6687846656049147e+18
14441.0	1.6684775720878075e+18
14442.0	1.668172372718387e+18
14443.0	1.6678237790797821e+18
14444.0	1.6675946627071997e+18
14445.0	1.6673013684502523e+18
14446.0	1.665464753192961e+18
14447.0	1.6666833461444603e+18
14448.0	1.6664210276614141e+18
14449.0	1.6661278055464952e+18
14450.0	1.6658254851473403e+18
14451.0	1.6655331018932221e+18
14452.0	1.6652412588654584e+18
14453.0	1.6649391582478333e+18
14454.0	1.6646501287591933e+18
14455.0	1.6643446039117821e+18
14456.0	1.6640217884655616e+18
14457.0	1.6637212867166205e+18
14458.0	1.6634270999117824e+18
14459.0	1.663125103312896e+18
14460.0	1.6628176289529856e+18
14461.0	1.6624544743686141e+18
14462.0	1.6620581227069435e+18
14463.0	1.6619070489100285e+18
14464.0	1.6616467453706237e+18
14465.0	1.6613286594215933e+18
14466.0	1.661068510232576e+18
14467.0	1.6607498068819965e+18
14468.0	1.660480217153536e+18
14469.0	1.660136052699955e+18
14470.0	1.6598537357754365e+18
14471.0	1.65959213032407e+18
14472.0	1.6593051325562877e+18
14473.0	1.6590156635045888e+18
14474.0	1.6587259377614843e+18
14475.0	1.658429684003635e+18
14476.0	1.6581010015649787e+18
14477.0	1.6578419982598141e+18
14478.0	1.6575469843382267e+18
14479.0	1.657251745601945e+18
14480.0	1.65693805863895e+18
14481.0	1.6566691534209021e+18
14482.0	1.6563697489018875e+18
14483.0	1.6560675040002043e+18
14484.0	1.655769966785331e+18
14485.0	1.6554370044788739e+18
14486.0	1.6547988058931203e+18
14487.0	1.6549020847570944e+18
14488.0	1.6545980715368443e+18
14489.0	1.6542792020918272e+18
14490.0	1.654013080213913e+18
14491.0	1.6537301458878461e+18
14492.0	1.653438661892505e+18
14493.0	1.653131351949312e+18
14494.0	1.6528224464928765e+18
14495.0	1.6525534875877376e+18
14496.0	1.652085849535283e+18
14497.0	1.651968501297971e+18
14498.0	1.651678319214592e+18
14499.0	1.6513852027961344e+18
14500.0	1.651091182085734e+18
14501.0	1.6507709989847035e+18
14502.0	1.6501983640813568e+18
14503.0	1.6501823183519744e+18
14504.0	1.649888299319296e+18
14505.0	1.6495758740029437e+18
14506.0	1.649239564641894e+18
14507.0	1.6486527076925437e+18
14508.0	1.6486864634511357e+18
14509.0	1.648395474383667e+18
14510.0	1.6480992575356925e+18
14511.0	1.6478100871184381e+18
14512.0	1.6474975527501821e+18
14513.0	1.647222208436633e+18
14514.0	1.646887318428057e+18
14515.0	1.6466226695897085e+18
14516.0	1.642869161774287e+18
14517.0	1.6460103062388733e+18
14518.0	1.64575566668759e+18
14519.0	1.6454627146858493e+18
14520.0	1.6451730812174333e+18
14521.0	1.6448816475537405e+18
14522.0	1.6445867460395003e+18
14523.0	1.6442321914560507e+18
14524.0	1.6439628751962107e+18
14525.0	1.6437033618636797e+18
14526.0	1.6434149715869693e+18
14527.0	1.6430946374909947e+18
14528.0	1.642644139042406e+18
14529.0	1.6425251650928635e+18
14530.0	1.642223688587673e+18
14531.0	1.6419523926163453e+18
14532.0	1.6416152527831037e+18
14533.0	1.641369235043123e+18
14534.0	1.641079200599244e+18
14535.0	1.6407722563993597e+18
14536.0	1.6404888221122557e+18
14537.0	1.6401828929339387e+18
14538.0	1.6399092968062976e+18
14539.0	1.6396171786321915e+18
14540.0	1.639324662838067e+18
14541.0	1.6390022617890813e+18
14542.0	1.6387361751433216e+18
14543.0	1.638408391963443e+18
14544.0	1.638150269462118e+18
14545.0	1.6378389849964541e+18
14546.0	1.6332995585638372e+18
14547.0	1.6332391874297823e+18
14548.0	1.6369500978937853e+18
14549.0	1.6365257769353208e+18
14550.0	1.6363859791052797e+18
14551.0	1.6361091684630525e+18
14552.0	1.6358163540344832e+18
14553.0	1.635513340736307e+18
14554.0	1.6352340873314304e+18
14555.0	1.634941665489715e+18
14556.0	1.6346483225788413e+18
14557.0	1.634355016577843e+18
14558.0	1.6340480405012475e+18
14559.0	1.6311992776130506e+18
14560.0	1.633459170285977e+18
14561.0	1.633172716099993e+18
14562.0	1.6328054074769405e+18
14563.0	1.6325436912959485e+18
14564.0	1.6322265129943035e+18
14565.0	1.631969338405683e+18
14566.0	1.6316781882769405e+18
14567.0	1.6313835853971446e+18
14568.0	1.631077763593011e+18
14569.0	1.6307942655524861e+18
14570.0	1.6297925466390523e+18
14571.0	1.6302087960788992e+18
14572.0	1.629870126163558e+18
14573.0	1.6295622726385656e+18
14574.0	1.6292804758077437e+18
14575.0	1.6290322115985403e+18
14576.0	1.6287394793783293e+18
14577.0	1.628455362258534e+18
14578.0	1.6281700774445053e+18
14579.0	1.627884227238297e+18
14580.0	1.6275926291578877e+18
14581.0	1.6272930736439293e+18
14582.0	1.6270006551576568e+18
14583.0	1.6267161957826557e+18
14584.0	1.6263963599699963e+18
14585.0	1.6261312162037757e+18
14586.0	1.6258367492194296e+18
14587.0	1.625548362298163e+18
14588.0	1.6252573967187965e+18
14589.0	1.6249679259893752e+18
14590.0	1.6246782908432381e+18
14591.0	1.6243825336909821e+18
14592.0	1.6240842968662016e+18
14593.0	1.623649961587507e+18
14594.0	1.623513686972825e+18
14595.0	1.6232165490556923e+18
14596.0	1.6227008509902843e+18
14597.0	1.6223594396778488e+18
14598.0	1.6223280495067133e+18
14599.0	1.6220678516637693e+18
14600.0	1.6217742185070587e+18
14601.0	1.6214851839852541e+18
14602.0	1.6211851167662075e+18
14603.0	1.620903484352102e+18
14604.0	1.6205468997255163e+18
14605.0	1.6202806167863293e+18
14606.0	1.6199234936111101e+18
14607.0	1.619738060075827e+18
14608.0	1.6194479937552381e+18
14609.0	1.619149258647142e+18
14610.0	1.6188212137426944e+18
14611.0	1.618557808096051e+18
14612.0	1.6182973653057533e+18
14613.0	1.6180120184160253e+18
14614.0	1.6177130685595648e+18
14615.0	1.6174278508543997e+18
14616.0	1.6171453393141757e+18
14617.0	1.6168424149352448e+18
14618.0	1.6165445388206075e+18
14619.0	1.616068696709529e+18
14620.0	1.6153889459929088e+18
14621.0	1.6156914173870075e+18
14622.0	1.6154021194629115e+18
14623.0	1.6151167306301437e+18
14624.0	1.6147501669154813e+18
14625.0	1.6145322644340733e+18
14626.0	1.6142377370517504e+18
14627.0	1.613914567606272e+18
14628.0	1.6136339502137341e+18
14629.0	1.6133432413257728e+18
14630.0	1.613044328379187e+18
14631.0	1.6127577886294013e+18
14632.0	1.6122021289132032e+18
14633.0	1.6121395381534715e+18
14634.0	1.6118835513917435e+18
14635.0	1.6115285002027003e+18
14636.0	1.6110810451410944e+18
14637.0	1.6110211269918715e+18
14638.0	1.6107140351524861e+18
14639.0	1.610412308666777e+18
14640.0	1.6101355114463232e+18
14641.0	1.6088635904360438e+18
14642.0	1.6095510939041792e+18
14643.0	1.609272566952755e+18
14644.0	1.6089655774543867e+18
14645.0	1.6086578648580093e+18
14646.0	1.6083801818005501e+18
14647.0	1.6080691003391997e+18
