# Flux units: erg / (cm m2 s)
# Wavelength units: Angstrom
wave	flux
14000.0	2.0835156281524221e+18
14001.0	2.0830309444485117e+18
14002.0	2.0825498745569277e+18
14003.0	2.0820672192184317e+18
14004.0	2.0815846729318392e+18
14005.0	2.0811022860287997e+18
14006.0	2.08061976323031e+18
14007.0	2.080137656506777e+18
14008.0	2.079652754699059e+18
14009.0	2.079173891011379e+18
14010.0	2.078692138287104e+18
14011.0	2.0781934137311224e+18
14012.0	2.0777290271031293e+18
14013.0	2.0772476921315328e+18
14014.0	2.0767664712450045e+18
14015.0	2.076285315789619e+18
14016.0	2.0758044321251325e+18
14017.0	2.075323620602675e+18
14018.0	2.0748429013549053e+18
14019.0	2.0743623867891712e+18
14020.0	2.0738819460431867e+18
14021.0	2.073401642870374e+18
14022.0	2.0729214990811133e+18
14023.0	2.0724413116710907e+18
14024.0	2.0719612685451261e+18
14025.0	2.071481878052864e+18
14026.0	2.071002204025651e+18
14027.0	2.070522785012121e+18
14028.0	2.0700235621728253e+18
14029.0	2.069541280966246e+18
14030.0	2.0690516161069053e+18
14031.0	2.0685830653739003e+18
14032.0	2.0681042805391355e+18
14033.0	2.067625287666892e+18
14034.0	2.067146890385817e+18
14035.0	2.066668446128537e+18
14036.0	2.066190119311769e+18
14037.0	2.0657118327603197e+18
14038.0	2.0652338247106555e+18
14039.0	2.064755860281753e+18
14040.0	2.0642780451700733e+18
14041.0	2.0638003558875133e+18
14042.0	2.0633226431168507e+18
14043.0	2.062844665266176e+18
14044.0	2.0623677880008701e+18
14045.0	2.061889365553971e+18
14046.0	2.061391379195494e+18
14047.0	2.0609143861673976e+18
14048.0	2.060437589432729e+18
14049.0	2.0599609252380667e+18
14050.0	2.0594843700953083e+18
14051.0	2.059007675701657e+18
14052.0	2.0585316507189243e+18
14053.0	2.058055483129856e+18
14054.0	2.0575794682134528e+18
14055.0	2.057103570737561e+18
14056.0	2.0566278024462333e+18
14057.0	2.056152168372633e+18
14058.0	2.055676668516761e+18
14059.0	2.0552012978454528e+18
14060.0	2.054726051325542e+18
14061.0	2.0542507595071488e+18
14062.0	2.0537759626166272e+18
14063.0	2.0533006322106365e+18
14064.0	2.052824798488166e+18
14065.0	2.0523415794352125e+18
14066.0	2.0518551139909627e+18
14067.0	2.0513807432417277e+18
14068.0	2.0509064882552827e+18
14069.0	2.0504323221880827e+18
14070.0	2.0499583926796283e+18
14071.0	2.0494844396830715e+18
14072.0	2.049010792031846e+18
14073.0	2.0485371913568248e+18
14074.0	2.0480637248995325e+18
14075.0	2.04759037420503e+18
14076.0	2.0471171812163581e+18
14077.0	2.0466419145637883e+18
14078.0	2.046170968044339e+18
14079.0	2.0456981340880893e+18
14080.0	2.0452256457424893e+18
14081.0	2.0447530869325821e+18
14082.0	2.0442801825120253e+18
14083.0	2.043808316601139e+18
14084.0	2.0433361939988477e+18
14085.0	2.0428564377632763e+18
14086.0	2.0423920343580672e+18
14087.0	2.0419204670816253e+18
14088.0	2.0414292889174016e+18
14089.0	2.0409553057218555e+18
14090.0	2.0404838424641533e+18
14091.0	2.0400125754998781e+18
14092.0	2.039541382355353e+18
14093.0	2.0390703234285565e+18
14094.0	2.0385993903308797e+18
14095.0	2.038128593128652e+18
14096.0	2.0376573580410875e+18
14097.0	2.0371873393016827e+18
14098.0	2.036716666250854e+18
14099.0	2.03624666932183e+18
14100.0	2.035776172431769e+18
14101.0	2.0353064942698493e+18
14102.0	2.0348365543833597e+18
14103.0	2.0343664165257208e+18
14104.0	2.033897162827366e+18
14105.0	2.0334275769401344e+18
14106.0	2.0329582527774715e+18
14107.0	2.0324887692312568e+18
14108.0	2.0320198779207675e+18
14109.0	2.0315507315965947e+18
14110.0	2.0310814258888696e+18
14111.0	2.030612121858867e+18
14112.0	2.0301445744033787e+18
14113.0	2.0296547736485883e+18
14114.0	2.029186139029504e+18
14115.0	2.0287178181443581e+18
14116.0	2.0282481081057277e+18
14117.0	2.0277632046202877e+18
14118.0	2.027313746359091e+18
14119.0	2.0268456704212987e+18
14120.0	2.0263780340465661e+18
14121.0	2.0259105050460155e+18
14122.0	2.0254429810786301e+18
14123.0	2.0249755376418808e+18
14124.0	2.0245083961950203e+18
14125.0	2.0240280393351165e+18
14126.0	2.0235750914129917e+18
14127.0	2.023108334164377e+18
14128.0	2.0226416624795643e+18
14129.0	2.0221751971545083e+18
14130.0	2.021708820748697e+18
14131.0	2.0212425617833981e+18
14132.0	2.0207764387135483e+18
14133.0	2.0202941658955773e+18
14134.0	2.0198445583171581e+18
14135.0	2.0193783547166715e+18
14136.0	2.0189120437420027e+18
14137.0	2.0184476755689472e+18
14138.0	2.017982091047731e+18
14139.0	2.017517092051353e+18
14140.0	2.017038543775334e+18
14141.0	2.016565681297817e+18
14142.0	2.016098861973504e+18
14143.0	2.0156350608703488e+18
14144.0	2.0151713973403645e+18
14145.0	2.0147068630728701e+18
14146.0	2.014242402625126e+18
14147.0	2.0137781200158715e+18
14148.0	2.01331397665751e+18
14149.0	2.0128499759054843e+18
14150.0	2.01238607078359e+18
14151.0	2.0119222159933437e+18
14152.0	2.0114586363494397e+18
14153.0	2.0109950986485755e+18
14154.0	2.0105316918099963e+18
14155.0	2.0100657180573693e+18
14156.0	2.0096049871847421e+18
14157.0	2.0091422313021435e+18
14158.0	2.0086792019509243e+18
14159.0	2.0082165450539005e+18
14160.0	2.0077537589723133e+18
14161.0	2.0072895082397693e+18
14162.0	2.0068257339801597e+18
14163.0	2.0063666355306496e+18
14164.0	2.005903869581721e+18
14165.0	2.00543279555543e+18
14166.0	2.0049804314804221e+18
14167.0	2.0045187963158525e+18
14168.0	2.0040570051231744e+18
14169.0	2.00359557464064e+18
14170.0	2.0031340434948093e+18
14171.0	2.002672856281907e+18
14172.0	2.0021868924764155e+18
14173.0	2.0017191302725627e+18
14174.0	2.001262529950515e+18
14175.0	2.0008018494095355e+18
14176.0	2.0003411286032381e+18
14177.0	1.9998805336260605e+18
14178.0	1.999419955426099e+18
14179.0	1.9989587933790203e+18
14180.0	1.9984995187687424e+18
14181.0	1.9980394254303227e+18
14182.0	1.9975794327551992e+18
14183.0	1.997119606174515e+18
14184.0	1.9966597242290173e+18
14185.0	1.9962002784911355e+18
14186.0	1.9957373665804283e+18
14187.0	1.9952814356692987e+18
14188.0	1.9948221828694016e+18
14189.0	1.9943629703348221e+18
14190.0	1.9939040899891197e+18
14191.0	1.9934452180320253e+18
14192.0	1.9929862588334077e+18
14193.0	1.9925273130565632e+18
14194.0	1.9920693504245752e+18
14195.0	1.991611040504217e+18
14196.0	1.9911527792377848e+18
14197.0	1.9906946588999675e+18
14198.0	1.9902365117186045e+18
14199.0	1.9897785994182653e+18
14200.0	1.9893189456429053e+18
14201.0	1.988863315043942e+18
14202.0	1.988405865794764e+18
14203.0	1.987947416623513e+18
14204.0	1.9874911149359101e+18
14205.0	1.987033981098393e+18
14206.0	1.986573429741977e+18
14207.0	1.9861201378869245e+18
14208.0	1.9856483944497147e+18
14209.0	1.9851822042710016e+18
14210.0	1.984726845462937e+18
14211.0	1.9842730872012797e+18
14212.0	1.9838167301488637e+18
14213.0	1.9833604838260733e+18
14214.0	1.9829044052754432e+18
14215.0	1.9824480750665728e+18
14216.0	1.9819925870739453e+18
14217.0	1.9815368591671296e+18
14218.0	1.9810812436676603e+18
14219.0	1.980625738897817e+18
14220.0	1.9801703717011453e+18
14221.0	1.9797150967791608e+18
14222.0	1.9792599845961728e+18
14223.0	1.978804959654707e+18
14224.0	1.9783500756418555e+18
14225.0	1.9778785419198461e+18
14226.0	1.9774244112039933e+18
14227.0	1.9769699063562237e+18
14228.0	1.976502223005286e+18
14229.0	1.976058938759577e+18
14230.0	1.9756070729678843e+18
14231.0	1.9751530378821632e+18
14232.0	1.9746991235923965e+18
14233.0	1.9742453200322555e+18
14234.0	1.9737916473344e+18
14235.0	1.9733380165795837e+18
14236.0	1.97288461902807e+18
14237.0	1.9724312718082043e+18
14238.0	1.9719780890050555e+18
14239.0	1.9715248843915261e+18
14240.0	1.9710300370501632e+18
14241.0	1.970619263693619e+18
14242.0	1.9701665372307456e+18
14243.0	1.9697092809195512e+18
14244.0	1.9692614701809661e+18
14245.0	1.9688091061059581e+18
14246.0	1.9683568527605755e+18
14247.0	1.9679047235665915e+18
14248.0	1.967445301316812e+18
14249.0	1.9669807016181755e+18
14250.0	1.966528867703193e+18
14251.0	1.9660772552474621e+18
14252.0	1.9656256696352763e+18
14253.0	1.9651741913972733e+18
14254.0	1.9647227903344637e+18
14255.0	1.9642707433488384e+18
14256.0	1.9638147033858043e+18
14257.0	1.9633694192959483e+18
14258.0	1.9629186775777277e+18
14259.0	1.9624679274708987e+18
14260.0	1.9620171270324221e+18
14261.0	1.9615671419666432e+18
14262.0	1.961125228419481e+18
14263.0	1.9606662809649147e+18
14264.0	1.9602231980457981e+18
14265.0	1.959774726284902e+18
14266.0	1.9593247915507707e+18
14267.0	1.9588749692239872e+18
14268.0	1.9584252945367035e+18
14269.0	1.9579756232048637e+18
14270.0	1.957526238763417e+18
14271.0	1.9570767452700672e+18
14272.0	1.9566276577853437e+18
14273.0	1.9561785233244155e+18
14274.0	1.9557167153545208e+18
14275.0	1.9552795212382203e+18
14276.0	1.9548311518183421e+18
14277.0	1.954382961914675e+18
14278.0	1.9539347267125245e+18
14279.0	1.953486295216947e+18
14280.0	1.9530377999679483e+18
14281.0	1.9525898348789752e+18
14282.0	1.952141777515315e+18
14283.0	1.951693825848115e+18
14284.0	1.9512459932991483e+18
14285.0	1.9507982748352507e+18
14286.0	1.950350641935155e+18
14287.0	1.9499031851958272e+18
14288.0	1.9494558089871355e+18
14289.0	1.948981656341708e+18
14290.0	1.9485612025315328e+18
14291.0	1.94811435983831e+18
14292.0	1.947667478557491e+18
14293.0	1.947220619087052e+18
14294.0	1.9467698572361725e+18
14295.0	1.946327433661644e+18
14296.0	1.94585916646359e+18
14297.0	1.9454242070724605e+18
14298.0	1.9449639174406141e+18
14299.0	1.9445224132575227e+18
14300.0	1.9440765268656125e+18
14301.0	1.943630504578252e+18
14302.0	1.9431847003947005e+18
14303.0	1.9427390522392573e+18
14304.0	1.9422931171934205e+18
14305.0	1.9418478867906555e+18
14306.0	1.941400433406771e+18
14307.0	1.94095678006231e+18
14308.0	1.9405122392031227e+18
14309.0	1.9400670775869437e+18
14310.0	1.9396122002849787e+18
14311.0	1.9391748870504443e+18
14312.0	1.9387320222351355e+18
14313.0	1.938286377435136e+18
14314.0	1.937843759244902e+18
14315.0	1.9373995136647163e+18
14316.0	1.9369537413578747e+18
14317.0	1.9365102457192443e+18
14318.0	1.9360672013877245e+18
14319.0	1.935623333294899e+18
14320.0	1.9351795557990397e+18
14321.0	1.9347359058100221e+18
14322.0	1.934291086449049e+18
14323.0	1.9338483843727355e+18
14324.0	1.9334055967326203e+18
14325.0	1.9329623879843837e+18
14326.0	1.932519288288051e+18
14327.0	1.9320762909327355e+18
14328.0	1.9316332298239992e+18
14329.0	1.9311906569322493e+18
14330.0	1.930747998476697e+18
14331.0	1.9303054457176061e+18
14332.0	1.9298630204653563e+18
14333.0	1.9294206992318461e+18
14334.0	1.9289539537272832e+18
14335.0	1.9285012859846653e+18
14336.0	1.928059238219776e+18
14337.0	1.9276179907280893e+18
14338.0	1.9271762181095421e+18
14339.0	1.92673460822999e+18
14340.0	1.9262931426344955e+18
14341.0	1.925851668650393e+18
14342.0	1.9254104127700995e+18
14343.0	1.9249687676583936e+18
14344.0	1.9245278825545725e+18
14345.0	1.9240871518011387e+18
14346.0	1.9236461895221245e+18
14347.0	1.9232050141724672e+18
14348.0	1.9227648437780477e+18
14349.0	1.9223243227398141e+18
14350.0	1.9218834107924477e+18
14351.0	1.921443040749158e+18
14352.0	1.92100238884864e+18
14353.0	1.9205440202080253e+18
14354.0	1.9201038800125947e+18
14355.0	1.91966385054679e+18
14356.0	1.919224074416947e+18
14357.0	1.9187844828364797e+18
14358.0	1.9183448610570237e+18
14359.0	1.91790534665175e+18
14360.0	1.917465906066227e+18
14361.0	1.9170266567409661e+18
14362.0	1.9165874829131773e+18
14363.0	1.916148379549696e+18
14364.0	1.9157077477818365e+18
14365.0	1.915270291940966e+18
14366.0	1.9148315408990205e+18
14367.0	1.9143931606335483e+18
14368.0	1.913954597496422e+18
14369.0	1.913516178643353e+18
14370.0	1.9130778436763643e+18
14371.0	1.9126396227944443e+18
14372.0	1.912201500898099e+18
14373.0	1.911763481342771e+18
14374.0	1.9113255859388416e+18
14375.0	1.9108877828095997e+18
14376.0	1.9104500904099837e+18
14377.0	1.910012485251891e+18
14378.0	1.909574958946713e+18
14379.0	1.9091376356458496e+18
14380.0	1.9087003593211904e+18
14381.0	1.908263101451468e+18
14382.0	1.9078260600078333e+18
14383.0	1.907388503503667e+18
14384.0	1.9069521918689277e+18
14385.0	1.906515543012147e+18
14386.0	1.9060788924776445e+18
14387.0	1.9056423426064381e+18
14388.0	1.9052058262896637e+18
14389.0	1.9047695062663165e+18
14390.0	1.9043332684513277e+18
14391.0	1.9038972353183741e+18
14392.0	1.9034609907924987e+18
14393.0	1.903025273071206e+18
14394.0	1.9025894513311741e+18
14395.0	1.9021534433640445e+18
14396.0	1.9017180829974528e+18
14397.0	1.9012825699581947e+18
14398.0	1.900847008265011e+18
14399.0	1.900411819026022e+18
14400.0	1.8999759805087741e+18
14401.0	1.8995412945862653e+18
14402.0	1.899106439213875e+18
14403.0	1.8985113765281787e+18
14404.0	1.8978218765713403e+18
14405.0	1.8977596263890941e+18
14406.0	1.8973673985671168e+18
14407.0	1.8967037757882365e+18
14408.0	1.896497723054489e+18
14409.0	1.8960636243345405e+18
14410.0	1.8956298057940987e+18
14411.0	1.8951958513582075e+18
14412.0	1.8947617660600315e+18
14413.0	1.8943279575859197e+18
14414.0	1.8938940618702845e+18
14415.0	1.893460375869849e+18
14416.0	1.8930266210828288e+18
14417.0	1.8925743291498493e+18
14418.0	1.8921400123260925e+18
14419.0	1.8917077607776253e+18
14420.0	1.891274388511129e+18
14421.0	1.89084134843351e+18
14422.0	1.8904082697682944e+18
14423.0	1.8899750233309181e+18
14424.0	1.8885909751529462e+18
14425.0	1.889109360928358e+18
14426.0	1.888676948318617e+18
14427.0	1.8882443914248187e+18
14428.0	1.8878085210308605e+18
14429.0	1.887360247241113e+18
14430.0	1.8869279772377083e+18
14431.0	1.886493095021772e+18
14432.0	1.8860629607579643e+18
14433.0	1.885460356713676e+18
14434.0	1.885199402218291e+18
14435.0	1.884767383873126e+18
14436.0	1.8843363184738304e+18
14437.0	1.883904709492736e+18
14438.0	1.8834682233749504e+18
14439.0	1.8830405067079677e+18
14440.0	1.8826103892213752e+18
14441.0	1.8821789782114304e+18
14442.0	1.8817476728979453e+18
14443.0	1.8813154599370747e+18
14444.0	1.880885860866457e+18
14445.0	1.880455099134771e+18
14446.0	1.8798361591152635e+18
14447.0	1.879593018667827e+18
14448.0	1.879163001844531e+18
14449.0	1.8787324749938683e+18
14450.0	1.8783020253183997e+18
14451.0	1.87787167966167e+18
14452.0	1.8774412652183547e+18
14453.0	1.8770079399280637e+18
14454.0	1.8765811577520128e+18
14455.0	1.8761510134218747e+18
14456.0	1.875720545291468e+18
14457.0	1.8752903808286712e+18
14458.0	1.8748614947897341e+18
14459.0	1.8744316910370813e+18
14460.0	1.874002439254835e+18
14461.0	1.8735722060054525e+18
14462.0	1.8731412278476792e+18
14463.0	1.872714145359462e+18
14464.0	1.8722851787898875e+18
14465.0	1.871855482411417e+18
14466.0	1.8714270510350333e+18
14467.0	1.8709957792759805e+18
14468.0	1.870568975289548e+18
14469.0	1.8701397587394552e+18
14470.0	1.8697108978663421e+18
14471.0	1.869282654394777e+18
14472.0	1.868854493131571e+18
14473.0	1.868426224494182e+18
14474.0	1.8679978719707133e+18
14475.0	1.867569395295846e+18
14476.0	1.8671303707852792e+18
14477.0	1.8667132858400768e+18
14478.0	1.8662852285956093e+18
14479.0	1.8658573189906432e+18
14480.0	1.8654292466466813e+18
14481.0	1.8650016776191997e+18
14482.0	1.8645738988765181e+18
14483.0	1.864146046314086e+18
14484.0	1.8637185376845821e+18
14485.0	1.8632901113413627e+18
14486.0	1.8628547711074304e+18
14487.0	1.8624366392639483e+18
14488.0	1.8620093806149627e+18
14489.0	1.8615819676155904e+18
14490.0	1.861154920359526e+18
14491.0	1.8607280324870147e+18
14492.0	1.8603011345481725e+18
14493.0	1.8598742332538875e+18
14494.0	1.8594414968438781e+18
14495.0	1.8590027122475005e+18
14496.0	1.8585718129426427e+18
14497.0	1.8581493425111037e+18
14498.0	1.8577228371591165e+18
14499.0	1.8572964173709307e+18
14500.0	1.8568699925495805e+18
14501.0	1.856438621804953e+18
14502.0	1.856006561516748e+18
14503.0	1.8555905486356477e+18
14504.0	1.855164853623193e+18
14505.0	1.8547339476074493e+18
14506.0	1.8543019946934272e+18
14507.0	1.8538794957406205e+18
14508.0	1.8534611642482683e+18
14509.0	1.8530353652170747e+18
14510.0	1.8526096282615805e+18
14511.0	1.8521839483486203e+18
14512.0	1.8517578255171581e+18
14513.0	1.8513327898492928e+18
14514.0	1.8509057207828477e+18
14515.0	1.850481810866176e+18
14516.0	1.8499901478404093e+18
14517.0	1.849631058375475e+18
14518.0	1.8492057844711421e+18
14519.0	1.8487805676093437e+18
14520.0	1.8483554061123584e+18
14521.0	1.8479303150796797e+18
14522.0	1.8475052928335864e+18
14523.0	1.8470688067158013e+18
14524.0	1.846643220755251e+18
14525.0	1.8462303670239227e+18
14526.0	1.8458057507864576e+18
14527.0	1.8453800993947643e+18
14528.0	1.8449525370781696e+18
14529.0	1.8445315497525245e+18
14530.0	1.8441068462735355e+18
14531.0	1.8436827601960955e+18
14532.0	1.843241453984153e+18
14533.0	1.84283385823232e+18
14534.0	1.842409555728793e+18
14535.0	1.8419851961827328e+18
14536.0	1.8415609305890813e+18
14537.0	1.841136317707059e+18
14538.0	1.8407125218754552e+18
14539.0	1.8402884274094075e+18
14540.0	1.8398643463651325e+18
14541.0	1.8394401696907261e+18
14542.0	1.8390163101057021e+18
14543.0	1.838585152431718e+18
14544.0	1.8381684500070392e+18
14545.0	1.8377445518344195e+18
14546.0	1.836221690648985e+18
14547.0	1.8359180096176118e+18
14548.0	1.8364729445580792e+18
14549.0	1.83604604829696e+18
14550.0	1.8356259233202176e+18
14551.0	1.8352023221043197e+18
14552.0	1.8347785984147453e+18
14553.0	1.8343548663365627e+18
14554.0	1.8339316828733435e+18
14555.0	1.8335081537994747e+18
14556.0	1.8330843596455928e+18
14557.0	1.832657716720435e+18
14558.0	1.8322145331380221e+18
14559.0	1.8317419424514043e+18
14560.0	1.8313672568864765e+18
14561.0	1.8309442495840253e+18
14562.0	1.8305210728316925e+18
14563.0	1.830097872591257e+18
14564.0	1.8296743485505539e+18
14565.0	1.829251421778739e+18
14566.0	1.8288282248937472e+18
14567.0	1.8284050347196413e+18
14568.0	1.8279814536364027e+18
14569.0	1.8275590268256253e+18
14570.0	1.8271221045002237e+18
14571.0	1.8267128142495744e+18
14572.0	1.8262885335564285e+18
14573.0	1.8258659255517184e+18
14574.0	1.8254431497748475e+18
14575.0	1.8250208739590141e+18
14576.0	1.8245979639644152e+18
14577.0	1.8241750908796925e+18
14578.0	1.823752117131673e+18
14579.0	1.8233292692127744e+18
14580.0	1.8229063843839992e+18
14581.0	1.8224831455559677e+18
14582.0	1.8220605341958141e+18
14583.0	1.8216374933389307e+18
14584.0	1.8212140884164603e+18
14585.0	1.8207765134573563e+18
14586.0	1.8203510633922555e+18
14587.0	1.819927792687513e+18
14588.0	1.819506384253747e+18
14589.0	1.8190968037572603e+18
14590.0	1.8186894328201216e+18
14591.0	1.8182637428408317e+18
14592.0	1.8178413630062587e+18
14593.0	1.817430312825651e+18
14594.0	1.8170264164499453e+18
14595.0	1.8166187133239293e+18
14596.0	1.816209199936307e+18
14597.0	1.8158021997756413e+18
14598.0	1.8153959814332413e+18
14599.0	1.8149884393684987e+18
14600.0	1.8145806406123515e+18
14601.0	1.814172863666585e+18
14602.0	1.8137646891007992e+18
14603.0	1.8133570564390912e+18
14604.0	1.8129477963874304e+18
14605.0	1.8125407844827133e+18
14606.0	1.8121312861945853e+18
14607.0	1.8117248480706555e+18
14608.0	1.8113168077225984e+18
14609.0	1.810907708732211e+18
14610.0	1.8105000626487293e+18
14611.0	1.8100922135609341e+18
14612.0	1.8096840859713533e+18
14613.0	1.809275721823027e+18
14614.0	1.8088670909169661e+18
14615.0	1.808432463714713e+18
14616.0	1.8080024435359741e+18
14617.0	1.8075937203552256e+18
14618.0	1.807184797525606e+18
14619.0	1.806774930138726e+18
14620.0	1.8063628045385725e+18
14621.0	1.8059574116351997e+18
14622.0	1.805548024076697e+18
14623.0	1.8051385324994555e+18
14624.0	1.8047270930874365e+18
14625.0	1.8043192154783741e+18
14626.0	1.803909076300595e+18
14627.0	1.8034987475402747e+18
14628.0	1.8030893633372155e+18
14629.0	1.8026791604060155e+18
14630.0	1.8022687729254397e+18
14631.0	1.8018582831038461e+18
14632.0	1.8013735322910715e+18
14633.0	1.801028401469849e+18
14634.0	1.8006260402094077e+18
14635.0	1.8002121530015741e+18
14636.0	1.7997954774204408e+18
14637.0	1.7993930960273405e+18
14638.0	1.7989815760846843e+18
14639.0	1.7985697038204925e+18
14640.0	1.7981580630818813e+18
14641.0	1.7974555976925181e+18
14642.0	1.7973337951043581e+18
14643.0	1.796921525220147e+18
14644.0	1.796508923147059e+18
14645.0	1.796095452014182e+18
14646.0	1.7956830193909755e+18
14647.0	1.7952696774426621e+18
14648.0	1.7948564378353661e+18
