# Flux units: erg / (cm m2 s)
# Wavelength units: Angstrom
wave	flux
14000.0	1.4228366383120381e+18
14001.0	1.4225833241608192e+18
14002.0	1.4223904801292285e+18
14003.0	1.422160469531033e+18
14004.0	1.4219301871419392e+18
14005.0	1.4216997101371387e+18
14006.0	1.4214685050011645e+18
14007.0	1.421237830025216e+18
14008.0	1.4209969477910523e+18
14009.0	1.4207753627107323e+18
14010.0	1.420542468109107e+18
14011.0	1.4202477914095613e+18
14012.0	1.420080532632371e+18
14013.0	1.419857706038067e+18
14014.0	1.4196287188500477e+18
14015.0	1.4193990572179453e+18
14016.0	1.4191694912159741e+18
14017.0	1.418939889981849e+18
14018.0	1.4187050223796221e+18
14019.0	1.4184806455705597e+18
14020.0	1.4182510275592187e+18
14021.0	1.4180214716235773e+18
14022.0	1.4177920213843965e+18
14023.0	1.4175624000176125e+18
14024.0	1.417332818916147e+18
14025.0	1.4171038736711675e+18
14026.0	1.416874557649715e+18
14027.0	1.4166453288697853e+18
14028.0	1.4164159541280763e+18
14029.0	1.4161856834830336e+18
14030.0	1.4159396590321664e+18
14031.0	1.4157206727426048e+18
14032.0	1.4154992084582397e+18
14033.0	1.4152671258738685e+18
14034.0	1.4150424051318781e+18
14035.0	1.4148137182560253e+18
14036.0	1.4145850313801725e+18
14037.0	1.4143563763810304e+18
14038.0	1.4141277448699904e+18
14039.0	1.413899177112371e+18
14040.0	1.4136706227765245e+18
14041.0	1.4134420130758653e+18
14042.0	1.413212438685286e+18
14043.0	1.4129813694447613e+18
14044.0	1.412752602038272e+18
14045.0	1.4125258848075773e+18
14046.0	1.4123005399531517e+18
14047.0	1.4120723563937787e+18
14048.0	1.4118442852417536e+18
14049.0	1.4116162258337787e+18
14050.0	1.4113881714589693e+18
14051.0	1.411159692620595e+18
14052.0	1.410932109685555e+18
14053.0	1.410704476418867e+18
14054.0	1.4104766988681213e+18
14055.0	1.4102489498386432e+18
14056.0	1.410021249463091e+18
14057.0	1.409793599419187e+18
14058.0	1.409565981251993e+18
14059.0	1.4093336637865981e+18
14060.0	1.4091108774576125e+18
14061.0	1.4088827022868477e+18
14062.0	1.4086557182984192e+18
14063.0	1.4084271387967488e+18
14064.0	1.408194856563507e+18
14065.0	1.4079730835783675e+18
14066.0	1.4077468931522557e+18
14067.0	1.4075198655430653e+18
14068.0	1.4072927808913405e+18
14069.0	1.4070657264386045e+18
14070.0	1.4068387609051133e+18
14071.0	1.4066115462299645e+18
14072.0	1.4063849489563648e+18
14073.0	1.4061581360955387e+18
14074.0	1.4059313358176256e+18
14075.0	1.4057027286335483e+18
14076.0	1.4054775423238141e+18
14077.0	1.4052468715421696e+18
14078.0	1.405023413285683e+18
14079.0	1.4047976565506045e+18
14080.0	1.4045715558825981e+18
14081.0	1.40434517000192e+18
14082.0	1.4041186767470592e+18
14083.0	1.403891886535475e+18
14084.0	1.4036638153834493e+18
14085.0	1.4034216127823872e+18
14086.0	1.4032076797902845e+18
14087.0	1.4029837081509885e+18
14088.0	1.4027614721146877e+18
14089.0	1.402535675114291e+18
14090.0	1.4023097925500925e+18
14091.0	1.40208393682944e+18
14092.0	1.4018581020803067e+18
14093.0	1.401632300885606e+18
14094.0	1.401406522340147e+18
14095.0	1.4011807404392443e+18
14096.0	1.40095474630656e+18
14097.0	1.4007277497352192e+18
14098.0	1.4005038082949117e+18
14099.0	1.4002782612750333e+18
14100.0	1.4000517688590336e+18
14101.0	1.3998276017651712e+18
14102.0	1.3996021747023867e+18
14103.0	1.399375083339776e+18
14104.0	1.399151706452787e+18
14105.0	1.3989265989959677e+18
14106.0	1.3987014554681341e+18
14107.0	1.3984722896027645e+18
14108.0	1.3982512640425981e+18
14109.0	1.3980259653255165e+18
14110.0	1.3978011388870653e+18
14111.0	1.3975761723588603e+18
14112.0	1.3973512150581245e+18
14113.0	1.3971264565673981e+18
14114.0	1.3969000891416573e+18
14115.0	1.396675796218675e+18
14116.0	1.3964453703843837e+18
14117.0	1.3961915948597245e+18
14118.0	1.3959991912300541e+18
14119.0	1.3957775600123901e+18
14120.0	1.3955536336715773e+18
14121.0	1.395329399468851e+18
14122.0	1.395104744158003e+18
14123.0	1.3948796518006781e+18
14124.0	1.3946498769223677e+18
14125.0	1.394396284269363e+18
14126.0	1.3942033932615677e+18
14127.0	1.3939834145996795e+18
14128.0	1.3937599924142077e+18
14129.0	1.3935350208528381e+18
14130.0	1.3933104225845248e+18
14131.0	1.3930873074221053e+18
14132.0	1.392857867249254e+18
14133.0	1.3925982759026685e+18
14134.0	1.3924063311298557e+18
14135.0	1.3921914586136573e+18
14136.0	1.3919694952071165e+18
14137.0	1.3917463238410237e+18
14138.0	1.3915229192716285e+18
14139.0	1.3912995239297021e+18
14140.0	1.3910760505737213e+18
14141.0	1.3908522894884864e+18
14142.0	1.3906287045640192e+18
14143.0	1.390406054130483e+18
14144.0	1.3901830647971837e+18
14145.0	1.3899599253078013e+18
14146.0	1.3897367757520893e+18
14147.0	1.3895137729970173e+18
14148.0	1.389290792891187e+18
14149.0	1.3890678337568765e+18
14150.0	1.3888448553287677e+18
14151.0	1.3886218357964795e+18
14152.0	1.3883991811686395e+18
14153.0	1.388176394839654e+18
14154.0	1.3879509669380093e+18
14155.0	1.3877302156853245e+18
14156.0	1.3875082321461245e+18
14157.0	1.3872855615799293e+18
14158.0	1.3870627844784125e+18
14159.0	1.3868401885708285e+18
14160.0	1.3866155357765627e+18
14161.0	1.3863906212577275e+18
14162.0	1.386165172384563e+18
14163.0	1.3859459805741056e+18
14164.0	1.385727942197248e+18
14165.0	1.3855057095163901e+18
14166.0	1.3852843693834237e+18
14167.0	1.3850609270652925e+18
14168.0	1.3848404006273021e+18
14169.0	1.3846184909078525e+18
14170.0	1.3843962137673723e+18
14171.0	1.384174281398681e+18
14172.0	1.3839526719913981e+18
14173.0	1.3837299980697597e+18
14174.0	1.3835084717096957e+18
14175.0	1.3832874956423165e+18
14176.0	1.3830659374055421e+18
14177.0	1.3828443565195261e+18
14178.0	1.3826227664060413e+18
14179.0	1.3824010101981181e+18
14180.0	1.3821798244155387e+18
14181.0	1.3819584163348477e+18
14182.0	1.3817369763774461e+18
14183.0	1.3815156253392893e+18
14184.0	1.3812938984914941e+18
14185.0	1.3810723176054781e+18
14186.0	1.3808431106359293e+18
14187.0	1.3806265931137021e+18
14188.0	1.380409495938662e+18
14189.0	1.3801887430082557e+18
14190.0	1.3799678063673344e+18
14191.0	1.3797467615133693e+18
14192.0	1.3795253660155901e+18
14193.0	1.3793045929525245e+18
14194.0	1.3790843668267005e+18
14195.0	1.378863824450355e+18
14196.0	1.3786431696666621e+18
14197.0	1.378422512366387e+18
14198.0	1.3782014700290045e+18
14199.0	1.3779808580272123e+18
14200.0	1.3777574517800957e+18
14201.0	1.3775389117644797e+18
14202.0	1.3773197920960512e+18
14203.0	1.3770992438476797e+18
14204.0	1.3768788927315965e+18
14205.0	1.376657679266611e+18
14206.0	1.3764297968582653e+18
14207.0	1.3762163403390973e+18
14208.0	1.375997097358131e+18
14209.0	1.375767442436915e+18
14210.0	1.3755484418867197e+18
14211.0	1.375337526276915e+18
14212.0	1.3751185391484925e+18
14213.0	1.3748989883056128e+18
14214.0	1.3746790482313213e+18
14215.0	1.3744582206423037e+18
14216.0	1.3742399004082173e+18
14217.0	1.3740203319492603e+18
14218.0	1.3738007349690365e+18
14219.0	1.3735811807707133e+18
14220.0	1.373361650899353e+18
14221.0	1.3731421369663485e+18
14222.0	1.3729226616209405e+18
14223.0	1.3727031158112253e+18
14224.0	1.372483029775155e+18
14225.0	1.3722503918649341e+18
14226.0	1.3720418451980285e+18
14227.0	1.3718224654827517e+18
14228.0	1.3715585573584893e+18
14229.0	1.371366858371891e+18
14230.0	1.3711678562631677e+18
14231.0	1.370949755810611e+18
14232.0	1.3707310278901757e+18
14233.0	1.3705121800126461e+18
14234.0	1.3702932499267581e+18
14235.0	1.3700741562630141e+18
14236.0	1.369855331873587e+18
14237.0	1.3696359018266621e+18
14238.0	1.369415517156147e+18
14239.0	1.369186550100787e+18
14240.0	1.3687863698784253e+18
14241.0	1.368739667142246e+18
14242.0	1.3685372944908285e+18
14243.0	1.368313443647488e+18
14244.0	1.368105585685299e+18
14245.0	1.3678887309410301e+18
14246.0	1.3676708653694973e+18
14247.0	1.3674525845618685e+18
14248.0	1.3672325715066877e+18
14249.0	1.3670164314718205e+18
14250.0	1.3667984761421821e+18
14251.0	1.366580612248371e+18
14252.0	1.36636255961088e+18
14253.0	1.3661443190685693e+18
14254.0	1.365925776536371e+18
14255.0	1.365703100937011e+18
14256.0	1.3654783852281853e+18
14257.0	1.3652662037774333e+18
14258.0	1.3650541951320061e+18
14259.0	1.3648357289361403e+18
14260.0	1.364618240013107e+18
14261.0	1.3644004289675261e+18
14262.0	1.3641983096520701e+18
14263.0	1.3639652506337275e+18
14264.0	1.3637531044151293e+18
14265.0	1.363546935079731e+18
14266.0	1.3633315726688253e+18
14267.0	1.363114863047475e+18
14268.0	1.3628978103320573e+18
14269.0	1.3626804631764987e+18
14270.0	1.3624633500631037e+18
14271.0	1.3622459265712125e+18
14272.0	1.3620277439102973e+18
14273.0	1.3618058299965437e+18
14274.0	1.3615648152223741e+18
14275.0	1.3613655748771837e+18
14276.0	1.3611589768839165e+18
14277.0	1.3609439869272061e+18
14278.0	1.3607279551053821e+18
14279.0	1.3605113595691005e+18
14280.0	1.3602934755426301e+18
14281.0	1.360076937048883e+18
14282.0	1.3598604581142525e+18
14283.0	1.3596439246536701e+18
14284.0	1.3594273668661245e+18
14285.0	1.3592107453251584e+18
14286.0	1.358993909035827e+18
14287.0	1.3587762036867067e+18
14288.0	1.3585506935767037e+18
14289.0	1.3582207411027965e+18
14290.0	1.3581189747048445e+18
14291.0	1.3579110521503744e+18
14292.0	1.357695927137075e+18
14293.0	1.3574788702273536e+18
14294.0	1.3572537401212925e+18
14295.0	1.3570394229309437e+18
14296.0	1.3567391451578365e+18
14297.0	1.356596872688435e+18
14298.0	1.3563820437929981e+18
14299.0	1.3561806031159293e+18
14300.0	1.3559679258984445e+18
14301.0	1.3557527471980541e+18
14302.0	1.3555369947168765e+18
14303.0	1.3553175730585597e+18
14304.0	1.355105000698675e+18
14305.0	1.3548905358688253e+18
14306.0	1.3546751701024765e+18
14307.0	1.3544596172701693e+18
14308.0	1.354244329517875e+18
14309.0	1.3540288463110141e+18
14310.0	1.3538131626164221e+18
14311.0	1.3535974730498045e+18
14312.0	1.3533771034787837e+18
14313.0	1.3531406638514176e+18
14314.0	1.3529526701129725e+18
14315.0	1.3527371927781373e+18
14316.0	1.3525197080494077e+18
14317.0	1.352307794195251e+18
14318.0	1.352092483793715e+18
14319.0	1.3518772203683837e+18
14320.0	1.351662419155353e+18
14321.0	1.3514474451369981e+18
14322.0	1.3512303840329725e+18
14323.0	1.3510161515675645e+18
14324.0	1.350803578368819e+18
14325.0	1.3505892855054336e+18
14326.0	1.3503748315807741e+18
14327.0	1.3501602660876283e+18
14328.0	1.349945394410291e+18
14329.0	1.3497315755032573e+18
14330.0	1.3495172792844285e+18
14331.0	1.3493029662883837e+18
14332.0	1.3490887346618365e+18
14333.0	1.3488745223290877e+18
14334.0	1.3486602823139325e+18
14335.0	1.3484447957516285e+18
14336.0	1.348230649688883e+18
14337.0	1.3480179548553213e+18
14338.0	1.3478039807590397e+18
14339.0	1.3475900402171901e+18
14340.0	1.3473763051962365e+18
14341.0	1.347161370604339e+18
14342.0	1.346947029087027e+18
14343.0	1.3467332772888576e+18
14344.0	1.3465171833913344e+18
14345.0	1.346304470102835e+18
14346.0	1.3460919598186493e+18
14347.0	1.3458779110637565e+18
14348.0	1.34566488571904e+18
14349.0	1.3454514434605053e+18
14350.0	1.345236952625971e+18
14351.0	1.3450236043198461e+18
14352.0	1.3448104271413245e+18
14353.0	1.3445976752652285e+18
14354.0	1.3443846104940541e+18
14355.0	1.3441712814817277e+18
14356.0	1.343957102703411e+18
14357.0	1.343744237581107e+18
14358.0	1.3435323354710013e+18
14359.0	1.343317823664947e+18
14360.0	1.3431062185115645e+18
14361.0	1.3428932921524221e+18
14362.0	1.3426803515326464e+18
14363.0	1.3424671500271616e+18
14364.0	1.3422517054078973e+18
14365.0	1.342039797425766e+18
14366.0	1.3418277871026173e+18
14367.0	1.3416148422885373e+18
14368.0	1.3414023118716925e+18
14369.0	1.3411897898434557e+18
14370.0	1.3409772703318013e+18
14371.0	1.3407647852134397e+18
14372.0	1.3405523328106493e+18
14373.0	1.3403398946684923e+18
14374.0	1.3401271218208765e+18
14375.0	1.3399138364293117e+18
14376.0	1.3397031489896445e+18
14377.0	1.3394908358377467e+18
14378.0	1.3392784840982525e+18
14379.0	1.3390665182347261e+18
14380.0	1.3388543577554941e+18
14381.0	1.3386422039871485e+18
14382.0	1.3384301894696957e+18
14383.0	1.3382183326580733e+18
14384.0	1.338004546466611e+18
14385.0	1.3377946056130557e+18
14386.0	1.3375811247669245e+18
14387.0	1.33737091212247e+18
14388.0	1.3371591190642685e+18
14389.0	1.3369473402667005e+18
14390.0	1.336735610123059e+18
14391.0	1.336524145898291e+18
14392.0	1.3363125390671872e+18
14393.0	1.3361010136055808e+18
14394.0	1.3358842133872637e+18
14395.0	1.3356751248162813e+18
14396.0	1.3354647603380221e+18
14397.0	1.335253250814771e+18
14398.0	1.3350416934764541e+18
14399.0	1.3348299750768637e+18
14400.0	1.3346162878709757e+18
14401.0	1.3344046810398717e+18
14402.0	1.33419096866816e+18
14403.0	1.3339613917609981e+18
14404.0	1.3334728794963965e+18
14405.0	1.333290847541657e+18
14406.0	1.3333337007456253e+18
14407.0	1.3331277713244157e+18
14408.0	1.332926688002048e+18
14409.0	1.3327166120919037e+18
14410.0	1.3325083288272893e+18
14411.0	1.3322983158317056e+18
14412.0	1.3320876644630525e+18
14413.0	1.331877607846707e+18
14414.0	1.3316669942267901e+18
14415.0	1.3314565467013117e+18
14416.0	1.3312461646069757e+18
14417.0	1.3310356659109885e+18
14418.0	1.330825139532595e+18
14419.0	1.3306146366423037e+18
14420.0	1.3304039122927613e+18
14421.0	1.3301938732924923e+18
14422.0	1.3299830096920573e+18
14423.0	1.3297695389122557e+18
14424.0	1.329533200787046e+18
14425.0	1.3293488066002944e+18
14426.0	1.329142170858291e+18
14427.0	1.3289314163097597e+18
14428.0	1.3287186854051837e+18
14429.0	1.3285112460345344e+18
14430.0	1.3283005770498045e+18
14431.0	1.3280859721302013e+18
14432.0	1.3278804596228093e+18
14433.0	1.3276647046250493e+18
14434.0	1.327460003296051e+18
14435.0	1.3272512603357181e+18
14436.0	1.3270429653270525e+18
14437.0	1.3268335017852925e+18
14438.0	1.3266233545719803e+18
14439.0	1.3264141217169405e+18
14440.0	1.3262048175587325e+18
14441.0	1.3259932367323133e+18
14442.0	1.3257827128705021e+18
14443.0	1.325569634677555e+18
14444.0	1.3253640575778813e+18
14445.0	1.3251522309652477e+18
14446.0	1.3248544613859325e+18
14447.0	1.3247225463308285e+18
14448.0	1.3245283039182845e+18
14449.0	1.3243207932444672e+18
14450.0	1.3241121912127485e+18
14451.0	1.3239033610108925e+18
14452.0	1.3236944838328317e+18
14453.0	1.3234855496122365e+18
14454.0	1.3232765927423997e+18
14455.0	1.3230673607262208e+18
14456.0	1.3228590053195773e+18
14457.0	1.3226502170607616e+18
14458.0	1.322441329816371e+18
14459.0	1.3222324517994493e+18
14460.0	1.3220235385503744e+18
14461.0	1.321813822511513e+18
14462.0	1.321605916734259e+18
14463.0	1.3213970630443005e+18
14464.0	1.32118728409088e+18
14465.0	1.3209764473339901e+18
14466.0	1.3207712116506621e+18
14467.0	1.320562458624e+18
14468.0	1.3203543330652157e+18
14469.0	1.3201415241465853e+18
14470.0	1.3199350427549693e+18
14471.0	1.3197288172158973e+18
14472.0	1.319522064872243e+18
14473.0	1.3193141783887867e+18
14474.0	1.3191061820145661e+18
14475.0	1.3188981067874301e+18
14476.0	1.3186898579161085e+18
14477.0	1.3184822281240573e+18
14478.0	1.3182743928111101e+18
14479.0	1.318066448446259e+18
14480.0	1.3178573951074301e+18
14481.0	1.3176506654130173e+18
14482.0	1.317442302456627e+18
14483.0	1.3172340032536573e+18
14484.0	1.3170246546358272e+18
14485.0	1.3168115227557885e+18
14486.0	1.3165866342416381e+18
14487.0	1.3164015085682685e+18
14488.0	1.3161967376138237e+18
14489.0	1.3159894551101437e+18
14490.0	1.315782528283443e+18
14491.0	1.3155753263103995e+18
14492.0	1.315368185574195e+18
14493.0	1.3151608401559552e+18
14494.0	1.3149506442887165e+18
14495.0	1.3147435798888445e+18
14496.0	1.3145287048560637e+18
14497.0	1.314330581873459e+18
14498.0	1.3141248596508672e+18
14499.0	1.3139179546345472e+18
14500.0	1.3137105966333952e+18
14501.0	1.313499640758272e+18
14502.0	1.313271855657779e+18
14503.0	1.3130877944987645e+18
14504.0	1.312881760219955e+18
14505.0	1.3126738284380157e+18
14506.0	1.3124630873112573e+18
14507.0	1.3122403764797437e+18
14508.0	1.312051936467353e+18
14509.0	1.3118475178344448e+18
14510.0	1.3116411865989117e+18
14511.0	1.3114342127960061e+18
14512.0	1.3112266392076285e+18
14513.0	1.3110193063723003e+18
14514.0	1.3108088118706173e+18
14515.0	1.3105890244689917e+18
14516.0	1.3100758664740864e+18
14517.0	1.3101486619754493e+18
14518.0	1.309983445824307e+18
14519.0	1.3097790724898813e+18
14520.0	1.3095771419181053e+18
14521.0	1.3093716092780544e+18
14522.0	1.309165749482291e+18
14523.0	1.3089595121991677e+18
14524.0	1.3087535148302333e+18
14525.0	1.308547488101171e+18
14526.0	1.3083415385473021e+18
14527.0	1.3081288730738683e+18
14528.0	1.307916400538419e+18
14529.0	1.3077227763662845e+18
14530.0	1.3075175255834621e+18
14531.0	1.3073130020929533e+18
14532.0	1.307107285742387e+18
14533.0	1.306901961978675e+18
14534.0	1.3066964880588797e+18
14535.0	1.3064908706938877e+18
14536.0	1.3062851736371197e+18
14537.0	1.3060791401971707e+18
14538.0	1.3058743214276608e+18
14539.0	1.305669016957747e+18
14540.0	1.3054636034359293e+18
14541.0	1.3052578635972605e+18
14542.0	1.3050526463688701e+18
14543.0	1.3048456725659645e+18
14544.0	1.3046413042647037e+18
14545.0	1.3044335956197373e+18
14546.0	1.304157947638579e+18
14547.0	1.3039447654268928e+18
14548.0	1.303813872104243e+18
14549.0	1.303605100622643e+18
14550.0	1.3034090504650752e+18
14551.0	1.30320617701376e+18
14552.0	1.3030011611119613e+18
14553.0	1.3027954246287357e+18
14554.0	1.302590901977088e+18
14555.0	1.3023850203709437e+18
14556.0	1.3021793996505085e+18
14557.0	1.3019720181612541e+18
14558.0	1.301750111797248e+18
14559.0	1.3013224815329277e+18
14560.0	1.3013394600755197e+18
14561.0	1.3011527137230845e+18
14562.0	1.3009484418908157e+18
14563.0	1.3007479549984765e+18
14564.0	1.300539970368307e+18
14565.0	1.3003397628166141e+18
14566.0	1.3001354490413053e+18
14567.0	1.2999309280673792e+18
14568.0	1.2997258299572221e+18
14569.0	1.2995152901570557e+18
14570.0	1.2992528550723581e+18
14571.0	1.299108853710848e+18
14572.0	1.2989052512894973e+18
14573.0	1.2987003553447936e+18
14574.0	1.2985014857760765e+18
14575.0	1.2982979571744765e+18
14576.0	1.2980940888342525e+18
14577.0	1.297890357228339e+18
14578.0	1.2976863563481085e+18
14579.0	1.2974826843013117e+18
14580.0	1.297278907396915e+18
14581.0	1.297074934199091e+18
14582.0	1.2968713150005245e+18
14583.0	1.2966674634375165e+18
14584.0	1.2964631496622077e+18
14585.0	1.296260107599872e+18
14586.0	1.2960565009842173e+18
14587.0	1.2958530277474301e+18
14588.0	1.2956496300081152e+18
14589.0	1.2954462112972797e+18
14590.0	1.295242778325811e+18
14591.0	1.2950391515774973e+18
14592.0	1.2948340232683517e+18
14593.0	1.2946232762695677e+18
14594.0	1.294427908944691e+18
14595.0	1.2942255908192253e+18
14596.0	1.294018981081907e+18
14597.0	1.2938152528314365e+18
14598.0	1.2936163052486653e+18
14599.0	1.293414305051443e+18
14600.0	1.293211481092915e+18
14601.0	1.2930085514379264e+18
14602.0	1.2928055622238205e+18
14603.0	1.2926023020576765e+18
14604.0	1.2923959808884733e+18
14605.0	1.2921917795205117e+18
14606.0	1.291980616446771e+18
14607.0	1.2917910573940733e+18
14608.0	1.291585492038451e+18
14609.0	1.291381111993139e+18
14610.0	1.2911781965987837e+18
14611.0	1.2909721111494653e+18
14612.0	1.2907768973361152e+18
14613.0	1.2905744785473533e+18
14614.0	1.2903680877527037e+18
14615.0	1.290166944871219e+18
14616.0	1.289967122356633e+18
14617.0	1.2897565590683645e+18
14618.0	1.289555838133862e+18
14619.0	1.2893538312257533e+18
14620.0	1.2891498186014717e+18
14621.0	1.2889544361771005e+18
14622.0	1.2887530542202877e+18
14623.0	1.2885505146355707e+18
14624.0	1.2883450390380544e+18
14625.0	1.2881460880998397e+18
14626.0	1.2879417801965563e+18
14627.0	1.2877398219423744e+18
14628.0	1.2875412300365821e+18
14629.0	1.287339350635315e+18
14630.0	1.287134520121753e+18
14631.0	1.286932381512499e+18
14632.0	1.286724830573363e+18
14633.0	1.2865292174622717e+18
14634.0	1.2863299511123963e+18
14635.0	1.2861276564750336e+18
14636.0	1.2859239038975995e+18
14637.0	1.2857249487650816e+18
14638.0	1.285523011482419e+18
14639.0	1.2853204509261821e+18
14640.0	1.2851182678573053e+18
14641.0	1.2849084972924928e+18
14642.0	1.284715267384934e+18
14643.0	1.2845150598332413e+18
14644.0	1.2843136418054144e+18
14645.0	1.284107485052928e+18
14646.0	1.2839067481800701e+18
14647.0	1.283709430503833e+18
