# Flux units: erg / (cm m2 s)
# Wavelength units: Angstrom
wave	flux
14000.0	2.0913893165498365e+18
14001.0	2.0909531106115576e+18
14002.0	2.0905282813034493e+18
14003.0	2.0900975984246781e+18
14004.0	2.0896669574889467e+18
14005.0	2.0892364021170173e+18
14006.0	2.0888053803384824e+18
14007.0	2.0883752024539133e+18
14008.0	2.0879375587082237e+18
14009.0	2.0875150765326333e+18
14010.0	2.0870851435954168e+18
14011.0	2.086608117012889e+18
14012.0	2.0862253599293437e+18
14013.0	2.0857957390483453e+18
14014.0	2.0853661299113981e+18
14015.0	2.0849364335329277e+18
14016.0	2.0845072236937216e+18
14017.0	2.0840779366793216e+18
14018.0	2.083648733551001e+18
14019.0	2.0832196545740797e+18
14020.0	2.082790612507033e+18
14021.0	2.0823616794918912e+18
14022.0	2.0819329075380221e+18
14023.0	2.081504073508454e+18
14024.0	2.081074950910771e+18
14025.0	2.0806472879308797e+18
14026.0	2.0802187827347453e+18
14027.0	2.0797906986467325e+18
14028.0	2.0793625357058045e+18
14029.0	2.0789344532955133e+18
14030.0	2.0784795944484861e+18
14031.0	2.0780780787597304e+18
14032.0	2.077650956006195e+18
14033.0	2.0772227762880504e+18
14034.0	2.0767957474869245e+18
14035.0	2.076368388174643e+18
14036.0	2.075941089260339e+18
14037.0	2.075513874232115e+18
14038.0	2.0750867665780733e+18
14039.0	2.0746597545541627e+18
14040.0	2.0742328599707643e+18
14041.0	2.0738060509511677e+18
14042.0	2.0733788929654781e+18
14043.0	2.0729507619012603e+18
14044.0	2.072525410821734e+18
14045.0	2.072099890292326e+18
14046.0	2.0716736030441467e+18
14047.0	2.07124730740736e+18
14048.0	2.0708213104050173e+18
14049.0	2.0703953704452093e+18
14050.0	2.0699695009497083e+18
14051.0	2.06954302579671e+18
14052.0	2.0691180572377083e+18
14053.0	2.06868201907159e+18
14054.0	2.0682504168013821e+18
14055.0	2.0678250556555261e+18
14056.0	2.0673997985284093e+18
14057.0	2.0669746504531963e+18
14058.0	2.0665495879417853e+18
14059.0	2.066124651259494e+18
14060.0	2.065699806851891e+18
14061.0	2.0652745564356605e+18
14062.0	2.0648504250597373e+18
14063.0	2.0644246209953787e+18
14064.0	2.0639970150580221e+18
14065.0	2.0635764672954365e+18
14066.0	2.0631528979562496e+18
14067.0	2.0627287766466552e+18
14068.0	2.0623047576780797e+18
14069.0	2.0618807252877307e+18
14070.0	2.061456998242713e+18
14071.0	2.061033081615155e+18
14072.0	2.0606096716595192e+18
14073.0	2.0601861778178043e+18
14074.0	2.0597627796062205e+18
14075.0	2.0593394518589437e+18
14076.0	2.058916258329395e+18
14077.0	2.0584874360438781e+18
14078.0	2.0580696883986424e+18
14079.0	2.0576467364610043e+18
14080.0	2.057224482455552e+18
14081.0	2.0568017888870392e+18
14082.0	2.0563788520488955e+18
14083.0	2.0559565795885048e+18
14084.0	2.0555342735736827e+18
14085.0	2.055091652028006e+18
14086.0	2.0546892303695872e+18
14087.0	2.0542677682487293e+18
14088.0	2.053845720603033e+18
14089.0	2.0534239128715261e+18
14090.0	2.0530020598415355e+18
14091.0	2.0525804819578877e+18
14092.0	2.0521589242068987e+18
14093.0	2.0517374453088256e+18
14094.0	2.051316073784934e+18
14095.0	2.0508947911802875e+18
14096.0	2.0504724147011584e+18
14097.0	2.0500524138758136e+18
14098.0	2.0496310054420477e+18
14099.0	2.049210739536691e+18
14100.0	2.0487890475679736e+18
14101.0	2.048369323566694e+18
14102.0	2.0479487456051197e+18
14103.0	2.0475271979204605e+18
14104.0	2.047107962136166e+18
14105.0	2.046687659320934e+18
14106.0	2.0462675460882427e+18
14107.0	2.0458473858793472e+18
14108.0	2.0454275528261624e+18
14109.0	2.0450073070534653e+18
14110.0	2.0445875109101565e+18
14111.0	2.044167323857715e+18
14112.0	2.0437486215888893e+18
14113.0	2.0433293337952248e+18
14114.0	2.0429099570823165e+18
14115.0	2.042490597146624e+18
14116.0	2.042070086293913e+18
14117.0	2.041604741686886e+18
14118.0	2.0412334652522496e+18
14119.0	2.0408139509661693e+18
14120.0	2.040395320839372e+18
14121.0	2.0399770279346173e+18
14122.0	2.0395580656189435e+18
14123.0	2.0391396015865853e+18
14124.0	2.0387211425873917e+18
14125.0	2.0382665672753152e+18
14126.0	2.037885605353881e+18
14127.0	2.0374676630929405e+18
14128.0	2.0370496520454147e+18
14129.0	2.0366319178219515e+18
14130.0	2.0362141903093755e+18
14131.0	2.0357965466828797e+18
14132.0	2.0353788862791677e+18
14133.0	2.0349180128002043e+18
14134.0	2.0345441191198715e+18
14135.0	2.0341258379591675e+18
14136.0	2.0337087479807997e+18
14137.0	2.0332927116115963e+18
14138.0	2.0328753850744827e+18
14139.0	2.032459055104e+18
14140.0	2.0320416883015675e+18
14141.0	2.031625234179686e+18
14142.0	2.0312053658943483e+18
14143.0	2.0307922051399675e+18
14144.0	2.0303764539834365e+18
14145.0	2.0299602313871355e+18
14146.0	2.0295439718809592e+18
14147.0	2.0291279891988475e+18
14148.0	2.0287120736255997e+18
14149.0	2.0282963258245117e+18
14150.0	2.0278769021353981e+18
14151.0	2.0270962633080827e+18
14152.0	2.0266808963497981e+18
14153.0	2.0262654304059387e+18
14154.0	2.0258500751917048e+18
14155.0	2.0254330976206845e+18
14156.0	2.0250193932845053e+18
14157.0	2.024604603462451e+18
14158.0	2.0241892985798653e+18
14159.0	2.023774783904153e+18
14160.0	2.023359457211187e+18
14161.0	2.022940572070707e+18
14162.0	2.0225222271565821e+18
14163.0	2.0221161413541888e+18
14164.0	2.0217004153634816e+18
14165.0	2.0212804598366205e+18
14166.0	2.020873266737971e+18
14167.0	2.020459463416217e+18
14168.0	2.0200453396496381e+18
14169.0	2.019631643702067e+18
14170.0	2.0192176088547325e+18
14171.0	2.0188039917600765e+18
14172.0	2.0183906229682168e+18
14173.0	2.017972912232857e+18
14174.0	2.0175633602576384e+18
14175.0	2.0171505132371963e+18
14176.0	2.0167373491273725e+18
14177.0	2.0163242689036288e+18
14178.0	2.015911171902668e+18
14179.0	2.015497569907507e+18
14180.0	2.0150856271790077e+18
14181.0	2.014567197782835e+18
14182.0	2.0141294349189115e+18
14183.0	2.0137166482964475e+18
14184.0	2.0133034976083965e+18
14185.0	2.0128912294019064e+18
14186.0	2.0124682489430016e+18
14187.0	2.0120642217050107e+18
14188.0	2.0116538325467133e+18
14189.0	2.011241525752627e+18
14190.0	2.0108294186074107e+18
14191.0	2.010417360116121e+18
14192.0	2.0100048285073405e+18
14193.0	2.0095921626808315e+18
14194.0	2.0091817382903805e+18
14195.0	2.0087702217031677e+18
14196.0	2.0083586396848128e+18
14197.0	2.0079471633629184e+18
14198.0	2.007535411894681e+18
14199.0	2.007016660375961e+18
14200.0	2.006574765283737e+18
14201.0	2.0061683556810747e+18
14202.0	2.0057572753014781e+18
14203.0	2.0053450742038525e+18
14204.0	2.0049346095480832e+18
14205.0	2.004523542590259e+18
14206.0	2.0041031072350203e+18
14207.0	2.003701839849062e+18
14208.0	2.00329110004695e+18
14209.0	2.0028700019916797e+18
14210.0	2.002462246856294e+18
14211.0	2.0020592061186043e+18
14212.0	2.0016487515291645e+18
14213.0	2.001238431157452e+18
14214.0	2.0008281527287805e+18
14215.0	2.0004171193253883e+18
14216.0	2.0000079901360125e+18
14217.0	1.9995980086640637e+18
14218.0	1.9991881060450301e+18
14219.0	1.998645443638067e+18
14220.0	1.9982340109369336e+18
14221.0	1.997823962356121e+18
14222.0	1.9974140647702525e+18
14223.0	1.9970042292600832e+18
14224.0	1.9965944893800445e+18
14225.0	1.9961691433336827e+18
14226.0	1.9957751606149117e+18
14227.0	1.9953658082885627e+18
14228.0	1.9949196903710715e+18
14229.0	1.9945401041813501e+18
14230.0	1.9941380113563643e+18
14231.0	1.9937289392095224e+18
14232.0	1.9933199375269888e+18
14233.0	1.9929110482518008e+18
14234.0	1.9925022395072512e+18
14235.0	1.9920933116444664e+18
14236.0	1.991684877031833e+18
14237.0	1.991276247803494e+18
14238.0	1.9908678652002301e+18
14239.0	1.9904590547779581e+18
14240.0	1.9899316495712253e+18
14241.0	1.989575897094553e+18
14242.0	1.988840727878041e+18
14243.0	1.9884200979070973e+18
14244.0	1.9880244609548283e+18
14245.0	1.98761548611584e+18
14246.0	1.9872068619206648e+18
14247.0	1.9868006217678843e+18
14248.0	1.986391648606617e+18
14249.0	1.985984978957107e+18
14250.0	1.985577358039449e+18
14251.0	1.9851700542111744e+18
14252.0	1.984762627909222e+18
14253.0	1.984355235161702e+18
14254.0	1.9839478591913981e+18
14255.0	1.9835383424483325e+18
14256.0	1.9831168736165883e+18
14257.0	1.9827258856308733e+18
14258.0	1.982319969278361e+18
14259.0	1.9819132174204925e+18
14260.0	1.9815060159332347e+18
14261.0	1.981100787446579e+18
14262.0	1.980715396340121e+18
14263.0	1.9802839618420733e+18
14264.0	1.9798969550897147e+18
14265.0	1.979496308460748e+18
14266.0	1.9790888318271488e+18
14267.0	1.9785511170211837e+18
14268.0	1.978144720840294e+18
14269.0	1.9777381988302843e+18
14270.0	1.9773321415491581e+18
14271.0	1.9769258510647293e+18
14272.0	1.9765198172717048e+18
14273.0	1.976113587185254e+18
14274.0	1.9756697878790136e+18
14275.0	1.9752982547529725e+18
14276.0	1.9748956653223933e+18
14277.0	1.974490094580531e+18
14278.0	1.9740849080369147e+18
14279.0	1.9736792936742907e+18
14280.0	1.973273352155955e+18
14281.0	1.9728685883981824e+18
14282.0	1.9724633364234235e+18
14283.0	1.972058139813478e+18
14284.0	1.9716530354782203e+18
14285.0	1.971247993218662e+18
14286.0	1.970843011357081e+18
14287.0	1.9704381922344955e+18
14288.0	1.9700333227802621e+18
14289.0	1.969552038140313e+18
14290.0	1.969223911027507e+18
14291.0	1.9688195197239293e+18
14292.0	1.9684151670079483e+18
14293.0	1.968010609609932e+18
14294.0	1.9674051349839872e+18
14295.0	1.966588205360742e+18
14296.0	1.9661218557984765e+18
14297.0	1.9657790083563517e+18
14298.0	1.9653617355063293e+18
14299.0	1.9649703079575547e+18
14300.0	1.9645663914491901e+18
14301.0	1.964162191405875e+18
14302.0	1.963757935997747e+18
14303.0	1.9633511858175997e+18
14304.0	1.9629491768786941e+18
14305.0	1.9625461998944248e+18
14306.0	1.962140864033587e+18
14307.0	1.9617381403852797e+18
14308.0	1.9613351818559483e+18
14309.0	1.960931334134169e+18
14310.0	1.9605201866457083e+18
14311.0	1.960121271425433e+18
14312.0	1.9597193849602043e+18
14313.0	1.959312183472947e+18
14314.0	1.9589152731299837e+18
14315.0	1.958512497472307e+18
14316.0	1.9581054503354365e+18
14317.0	1.957705927779942e+18
14318.0	1.9573041302339581e+18
14319.0	1.9569015206707197e+18
14320.0	1.956498827221401e+18
14321.0	1.9560963569090552e+18
14322.0	1.9556906485940221e+18
14323.0	1.9552899751215096e+18
14324.0	1.9548892714500093e+18
14325.0	1.954487076284006e+18
14326.0	1.9540398108049405e+18
14327.0	1.9535458140684283e+18
14328.0	1.9531429109039101e+18
14329.0	1.9527411234242555e+18
14330.0	1.9523389047701496e+18
14331.0	1.9519367213481981e+18
14332.0	1.9515346285232125e+18
14333.0	1.9511325960962043e+18
14334.0	1.9507306358112256e+18
14335.0	1.9503278534426621e+18
14336.0	1.9499251985809405e+18
14337.0	1.949525058623897e+18
14338.0	1.949123227523481e+18
14339.0	1.948721616204595e+18
14340.0	1.948320191112806e+18
14341.0	1.9479185932156925e+18
14342.0	1.9475172771758075e+18
14343.0	1.9471156474019837e+18
14344.0	1.9467144689352701e+18
14345.0	1.946313439785779e+18
14346.0	1.9459120465707005e+18
14347.0	1.945510071186227e+18
14348.0	1.9451101359112187e+18
14349.0	1.9447092544012283e+18
14350.0	1.9443070609129472e+18
14351.0	1.9439061961801725e+18
14352.0	1.943506863207219e+18
14353.0	1.9431062165782525e+18
14354.0	1.942705402177126e+18
14355.0	1.9423046179749883e+18
14356.0	1.9419043085680637e+18
14357.0	1.9415043414163453e+18
14358.0	1.941104047108915e+18
14359.0	1.9407037980999675e+18
14360.0	1.9403035407024128e+18
14361.0	1.9399035618066432e+18
14362.0	1.9395036080766968e+18
14363.0	1.9390077893345277e+18
14364.0	1.9385641393455096e+18
14365.0	1.9381673330212861e+18
14366.0	1.9377673843245053e+18
14367.0	1.937368054706995e+18
14368.0	1.936968017090969e+18
14369.0	1.9365681304698877e+18
14370.0	1.936168265659187e+18
14371.0	1.935768484734566e+18
14372.0	1.9352630643916797e+18
14373.0	1.934816022049587e+18
14374.0	1.9344165833801725e+18
14375.0	1.934017174909747e+18
14376.0	1.9336178318704637e+18
14377.0	1.9332185072861181e+18
14378.0	1.9328191374032893e+18
14379.0	1.9324202104389627e+18
14380.0	1.9320211073138683e+18
14381.0	1.9316218850705405e+18
14382.0	1.9312230503809021e+18
14383.0	1.930823782839091e+18
14384.0	1.9304253826793464e+18
14385.0	1.9300267358945277e+18
14386.0	1.9296280689770493e+18
14387.0	1.9292294356140032e+18
14388.0	1.928830728431206e+18
14389.0	1.928432407124377e+18
14390.0	1.9280338559696893e+18
14391.0	1.9276356688805888e+18
14392.0	1.927237220066918e+18
14393.0	1.9268391252525053e+18
14394.0	1.9264408861540347e+18
14395.0	1.9260426034348032e+18
14396.0	1.9256446008950781e+18
14397.0	1.9252465530568704e+18
14398.0	1.924848458242457e+18
14399.0	1.9244505395888128e+18
14400.0	1.9240511596396536e+18
14401.0	1.923654215742259e+18
14402.0	1.9232566594764797e+18
14403.0	1.9227359752224763e+18
14404.0	1.9219201025638392e+18
14405.0	1.921806405048729e+18
14406.0	1.921534488320409e+18
14407.0	1.9209658363281403e+18
14408.0	1.9207376359915517e+18
14409.0	1.9203397878022141e+18
14410.0	1.919943256624332e+18
14411.0	1.9195458312208381e+18
14412.0	1.9191479696097277e+18
14413.0	1.9187506515804155e+18
14414.0	1.918352882243993e+18
14415.0	1.9179554669068283e+18
14416.0	1.917558145522073e+18
14417.0	1.9171604600717307e+18
14418.0	1.9167621941297147e+18
14419.0	1.9163659548753915e+18
14420.0	1.9159684204199933e+18
14421.0	1.9155053239599096e+18
14422.0	1.9145719587799037e+18
14423.0	1.9141731375120384e+18
14424.0	1.91315484606464e+18
14425.0	1.913378934305587e+18
14426.0	1.9129838526791677e+18
14427.0	1.9125871637954555e+18
14428.0	1.912190318883635e+18
14429.0	1.911793608189542e+18
14430.0	1.9113968370974715e+18
14431.0	1.910992920589107e+18
14432.0	1.9106027026776061e+18
14433.0	1.910078389511782e+18
14434.0	1.909808940711936e+18
14435.0	1.9094122165960704e+18
14436.0	1.9090173899833341e+18
14437.0	1.9086210165112832e+18
14438.0	1.9082208597770237e+18
14439.0	1.9078272662896635e+18
14440.0	1.9074320672227325e+18
14441.0	1.907035319618764e+18
14442.0	1.9066387733413888e+18
14443.0	1.9062394084917243e+18
14444.0	1.905847133693542e+18
14445.0	1.90545137762304e+18
14446.0	1.904874882282291e+18
14447.0	1.9046581122629627e+18
14448.0	1.904263851042406e+18
14449.0	1.9038681083936765e+18
14450.0	1.9034723254796283e+18
14451.0	1.9030765677314043e+18
14452.0	1.902680647244185e+18
14453.0	1.9022097560895483e+18
14454.0	1.901756063259033e+18
14455.0	1.901359683076096e+18
14456.0	1.9009636451483643e+18
14457.0	1.9005675015241725e+18
14458.0	1.9001721464291328e+18
14459.0	1.8997760531365883e+18
14460.0	1.8993801863364605e+18
14461.0	1.8989824002228216e+18
14462.0	1.8985852013117437e+18
14463.0	1.8981923393110013e+18
14464.0	1.8977973751250941e+18
14465.0	1.897400100716544e+18
14466.0	1.8970063562342397e+18
14467.0	1.8966086405849083e+18
14468.0	1.896215011865395e+18
14469.0	1.895817772688998e+18
14470.0	1.8954219327324155e+18
14471.0	1.8950280708095997e+18
14472.0	1.8946336200065021e+18
14473.0	1.8942384075177981e+18
14474.0	1.8938431430197245e+18
14475.0	1.8934476704841725e+18
14476.0	1.89304449049559e+18
14477.0	1.8926574552219643e+18
14478.0	1.8922622980980733e+18
14479.0	1.8918671627845627e+18
14480.0	1.891471438590771e+18
14481.0	1.891077054896537e+18
14482.0	1.8906817014792187e+18
14483.0	1.8902861433798653e+18
14484.0	1.8898910550425597e+18
14485.0	1.8894936699043835e+18
14486.0	1.8890766990442493e+18
14487.0	1.8887069342367741e+18
14488.0	1.8883119817949181e+18
14489.0	1.8879163398094843e+18
14490.0	1.8875217547886587e+18
14491.0	1.8871269432754168e+18
14492.0	1.8867321602834432e+18
14493.0	1.886337231329689e+18
14494.0	1.885942344318976e+18
14495.0	1.88554742375383e+18
14496.0	1.885141185278771e+18
14497.0	1.8847576933531645e+18
14498.0	1.8843629942472704e+18
14499.0	1.8839682431320061e+18
14500.0	1.8835734383296512e+18
14501.0	1.883175070046617e+18
14502.0	1.8827643201781755e+18
14503.0	1.8823879921238008e+18
14504.0	1.881994163755417e+18
14505.0	1.8815961494716416e+18
14506.0	1.8811975681179643e+18
14507.0	1.8807900847734781e+18
14508.0	1.8804163185999872e+18
14509.0	1.879963776686489e+18
14510.0	1.8794980478812155e+18
14511.0	1.8791031659036672e+18
14512.0	1.878706980336435e+18
14513.0	1.8783134992564221e+18
14514.0	1.8779157399863293e+18
14515.0	1.8775237336236027e+18
14516.0	1.8769363867795456e+18
14517.0	1.8767339042373627e+18
14518.0	1.8763396027514877e+18
14519.0	1.8759449070010365e+18
14520.0	1.8755501743407104e+18
14521.0	1.8751554601353213e+18
14522.0	1.8747607090200573e+18
14523.0	1.8743570961793024e+18
14524.0	1.8739622343344125e+18
14525.0	1.8735760244998136e+18
14526.0	1.8731817465020413e+18
14527.0	1.872784933466931e+18
14528.0	1.87238141961175e+18
14529.0	1.8719961375571965e+18
14530.0	1.871600906613555e+18
14531.0	1.8712071386431483e+18
14532.0	1.8708006602539005e+18
14533.0	1.8704172891242493e+18
14534.0	1.870022546397593e+18
14535.0	1.8692716116312061e+18
14536.0	1.8685062551699456e+18
14537.0	1.868110309516902e+18
14538.0	1.8677164459163643e+18
14539.0	1.8673215387729915e+18
14540.0	1.8669266064637947e+18
14541.0	1.8665311892930552e+18
14542.0	1.8661365187084283e+18
14543.0	1.8657362344673277e+18
14544.0	1.8653462329819133e+18
14545.0	1.864950810778009e+18
14546.0	1.8637147661664246e+18
14547.0	1.8633951031590902e+18
14548.0	1.8637649182982141e+18
14549.0	1.863361303779737e+18
14550.0	1.86297594454999e+18
14551.0	1.8625809535205368e+18
14552.0	1.8621857024442365e+18
14553.0	1.8617900470370304e+18
14554.0	1.8613954485944317e+18
14555.0	1.861000184096358e+18
14556.0	1.8606047652478976e+18
14557.0	1.8602096936878077e+18
14558.0	1.8598142144413693e+18
14559.0	1.8592773586288635e+18
14560.0	1.8590233247350781e+18
14561.0	1.8586278488440827e+18
14562.0	1.8582328896913405e+18
14563.0	1.8578375748616187e+18
14564.0	1.8574416090759165e+18
14565.0	1.8570468176953344e+18
14566.0	1.8566513652924413e+18
14567.0	1.8562557954490365e+18
14568.0	1.855859826307891e+18
14569.0	1.8554646758948861e+18
14570.0	1.855029706437427e+18
14571.0	1.854673101678182e+18
14572.0	1.854274342486016e+18
14573.0	1.8538789253152765e+18
14574.0	1.853395712973209e+18
14575.0	1.852960723383091e+18
14576.0	1.8525643935318013e+18
14577.0	1.8521680787800061e+18
14578.0	1.851771344597811e+18
14579.0	1.8513748671070203e+18
14580.0	1.850978166479257e+18
14581.0	1.8505810564874235e+18
14582.0	1.8501845672525821e+18
14583.0	1.8497877407956987e+18
14584.0	1.8493898523410435e+18
14585.0	1.848993899977113e+18
14586.0	1.8485966188576765e+18
14587.0	1.8481997169033216e+18
14588.0	1.8478035195920381e+18
14589.0	1.8474131808845821e+18
14590.0	1.8470238806867965e+18
14591.0	1.846634370773811e+18
14592.0	1.8462447769747453e+18
14593.0	1.84584535843799e+18
14594.0	1.8454655574999037e+18
14595.0	1.845075247313715e+18
14596.0	1.8446816538263547e+18
14597.0	1.8442914426257403e+18
14598.0	1.843905372042035e+18
14599.0	1.843515696034611e+18
14600.0	1.8431253422276603e+18
14601.0	1.8427350119088128e+18
14602.0	1.842344317524377e+18
14603.0	1.84195396707287e+18
14604.0	1.8415597377290237e+18
14605.0	1.8411718988267515e+18
14606.0	1.8407765068218365e+18
14607.0	1.840390250011033e+18
14608.0	1.8399999649906683e+18
14609.0	1.8396082740396032e+18
14610.0	1.8392169219883003e+18
14611.0	1.83882623263703e+18
14612.0	1.8384354577219581e+18
14613.0	1.838044167746355e+18
14614.0	1.8376523492884477e+18
14615.0	1.8372609687158781e+18
14616.0	1.8368691401916413e+18
14617.0	1.8364770717532152e+18
14618.0	1.836084827154022e+18
14619.0	1.8356895660113915e+18
14620.0	1.8352898991718392e+18
14621.0	1.8349075078316027e+18
14622.0	1.8345147884371965e+18
14623.0	1.8341218861711355e+18
14624.0	1.8337238769205245e+18
14625.0	1.8333357142179837e+18
14626.0	1.8329422364934141e+18
14627.0	1.8325485171769344e+18
14628.0	1.8321556769865723e+18
14629.0	1.8317620734328827e+18
14630.0	1.8313682819743741e+18
14631.0	1.8309745374920704e+18
14632.0	1.8305254013534205e+18
14633.0	1.8301791112265725e+18
14634.0	1.8297917924179965e+18
14635.0	1.8293951773540352e+18
14636.0	1.8289968661135355e+18
14637.0	1.828607846095257e+18
14638.0	1.8282125362987005e+18
14639.0	1.8278165067595776e+18
14640.0	1.827421337891635e+18
14641.0	1.8268095516770296e+18
14642.0	1.8266298576273405e+18
14643.0	1.8262346216505341e+18
14644.0	1.8258385199693821e+18
14645.0	1.8254403312025597e+18
14646.0	1.8250453619834875e+18
14647.0	1.8246485606924288e+18
14648.0	1.82425228452823e+18
