# Flux units: erg / (cm m2 s)
# Wavelength units: Angstrom
wave	flux
14000.0	1.6706192558522368e+18
14001.0	1.6701536528760832e+18
14002.0	1.6700066911748093e+18
14003.0	1.6697021998039037e+18
14004.0	1.66939305443328e+18
14005.0	1.6690838486646781e+18
14006.0	1.6687654724698112e+18
14007.0	1.6684562230804475e+18
14008.0	1.6680466308399104e+18
14009.0	1.6678457052233725e+18
14010.0	1.6675245205225467e+18
14011.0	1.6664745872457725e+18
14012.0	1.666920797437952e+18
14013.0	1.6666125379043325e+18
14014.0	1.6662977889435643e+18
14015.0	1.6659927825121277e+18
14016.0	1.6656869271535613e+18
14017.0	1.6653786223214587e+18
14018.0	1.6650701513949181e+18
14019.0	1.664762042856243e+18
14020.0	1.664453063580057e+18
14021.0	1.6641441598013437e+18
14022.0	1.6638367038963712e+18
14023.0	1.6635179334369277e+18
14024.0	1.6632067362127872e+18
14025.0	1.6629137238130685e+18
14026.0	1.6626039643963387e+18
14027.0	1.6622984194162685e+18
14028.0	1.661987586257715e+18
14029.0	1.6616830093230077e+18
14030.0	1.66113316962304e+18
14031.0	1.6610454348496893e+18
14032.0	1.660757812969472e+18
14033.0	1.6604096974815224e+18
14034.0	1.6601460233994235e+18
14035.0	1.659839245293977e+18
14036.0	1.6595321752649728e+18
14037.0	1.6592251622785021e+18
14038.0	1.6589182096900093e+18
14039.0	1.658606926902067e+18
14040.0	1.6582961256202237e+18
14041.0	1.6579937179795456e+18
14042.0	1.657676725904998e+18
14043.0	1.657336579594649e+18
14044.0	1.6570627888513021e+18
14045.0	1.656766483084083e+18
14046.0	1.6564608324075515e+18
14047.0	1.6561508095885307e+18
14048.0	1.6558501467783165e+18
14049.0	1.65554618892288e+18
14050.0	1.6552400517070843e+18
14051.0	1.6549241065308157e+18
14052.0	1.6546278074744832e+18
14053.0	1.6543219990921216e+18
14054.0	1.6540161806434304e+18
14055.0	1.6537103806496763e+18
14056.0	1.653404605821747e+18
14057.0	1.6529553975410688e+18
14058.0	1.6525654010888187e+18
14059.0	1.6522598091325435e+18
14060.0	1.6519542809296893e+18
14061.0	1.6516406174547965e+18
14062.0	1.651343399007027e+18
14063.0	1.6510208201195515e+18
14064.0	1.6506842389676032e+18
14065.0	1.6504173856030715e+18
14066.0	1.6501224740225021e+18
14067.0	1.6498174592024576e+18
14068.0	1.6495124477378557e+18
14069.0	1.6492063189106685e+18
14070.0	1.6489025187610621e+18
14071.0	1.6485943666016253e+18
14072.0	1.6482930830344192e+18
14073.0	1.6479884222136315e+18
14074.0	1.6476839291650043e+18
14075.0	1.6473610365435904e+18
14076.0	1.6470722738126843e+18
14077.0	1.6467152647225341e+18
14078.0	1.646462301215129e+18
14079.0	1.646150984872755e+18
14080.0	1.6458578080563195e+18
14081.0	1.6455536992059392e+18
14082.0	1.6452458406477821e+18
14083.0	1.6449439614894075e+18
14084.0	1.6446415639150587e+18
14085.0	1.6440580926078976e+18
14086.0	1.6440294958432256e+18
14087.0	1.643730354726502e+18
14088.0	1.6434146595307515e+18
14089.0	1.6431230446731261e+18
14090.0	1.642817145693798e+18
14091.0	1.642516217803571e+18
14092.0	1.6422128370843643e+18
14093.0	1.641909523474022e+18
14094.0	1.6416062669062141e+18
14095.0	1.6413030640254976e+18
14096.0	1.6409859964534781e+18
14097.0	1.6406831979036672e+18
14098.0	1.6403889473454077e+18
14099.0	1.6400909739229181e+18
14100.0	1.639773520474931e+18
14101.0	1.6394854137331712e+18
14102.0	1.6391824356671488e+18
14103.0	1.6388611268149243e+18
14104.0	1.6385744394256381e+18
14105.0	1.6382745450119165e+18
14106.0	1.6379723454087165e+18
14107.0	1.6376688724148221e+18
14108.0	1.6373555713277947e+18
14109.0	1.637059998724915e+18
14110.0	1.6367584400113661e+18
14111.0	1.636449232565043e+18
14112.0	1.6361508296458237e+18
14113.0	1.6358569263759357e+18
14114.0	1.6355411556827133e+18
14115.0	1.6352515306029053e+18
14116.0	1.6349335386062843e+18
14117.0	1.634225999786803e+18
14118.0	1.6343478543843325e+18
14119.0	1.6340350364811261e+18
14120.0	1.6337396081623037e+18
14121.0	1.6334316153864187e+18
14122.0	1.6331312294002685e+18
14123.0	1.6328349873864696e+18
14124.0	1.6325327559065597e+18
14125.0	1.631710950824345e+18
14126.0	1.6319369801891837e+18
14127.0	1.6316362049716224e+18
14128.0	1.6313336748572672e+18
14129.0	1.6310210733801467e+18
14130.0	1.6307114733469693e+18
14131.0	1.6304326678937597e+18
14132.0	1.6301259602526205e+18
14133.0	1.629213652156415e+18
14134.0	1.6295301342035965e+18
14135.0	1.6292156083798013e+18
14136.0	1.628920274013388e+18
14137.0	1.6286284628623357e+18
14138.0	1.628324244960051e+18
14139.0	1.6280280415338496e+18
14140.0	1.6277208825856e+18
14141.0	1.627426177364787e+18
14142.0	1.6270948760027133e+18
14143.0	1.6267008882507776e+18
14144.0	1.6261355497586685e+18
14145.0	1.625834024599552e+18
14146.0	1.6255343818440704e+18
14147.0	1.6252356819681277e+18
14148.0	1.6249365207187456e+18
14149.0	1.624637577573171e+18
14150.0	1.6243380556136448e+18
14151.0	1.6240357889015803e+18
14152.0	1.6237394076368893e+18
14153.0	1.6234399729188856e+18
14154.0	1.6231138926264315e+18
14155.0	1.6228041919299581e+18
14156.0	1.6225359729000448e+18
14157.0	1.6222437221859325e+18
14158.0	1.621940153561907e+18
14159.0	1.6216455238385661e+18
14160.0	1.6213376552140795e+18
14161.0	1.6209831610286075e+18
14162.0	1.620629859703193e+18
14163.0	1.620449185864089e+18
14164.0	1.6201285514559485e+18
14165.0	1.619770990395392e+18
14166.0	1.6195535794864125e+18
14167.0	1.6192419879976957e+18
14168.0	1.6189570857041915e+18
14169.0	1.6186607916810237e+18
14170.0	1.6183588806459387e+18
14171.0	1.618060974332313e+18
14172.0	1.6177664352059392e+18
14173.0	1.6174173734830077e+18
14174.0	1.617164928391577e+18
14175.0	1.616872795117977e+18
14176.0	1.6165750230220797e+18
14177.0	1.616277339845427e+18
14178.0	1.6159784554201085e+18
14179.0	1.6156717511344125e+18
14180.0	1.6153846443147261e+18
14181.0	1.6150871976968187e+18
14182.0	1.6147888669196285e+18
14183.0	1.614492494043545e+18
14184.0	1.6141894606127101e+18
14185.0	1.613897976617369e+18
14186.0	1.6135045844566016e+18
14187.0	1.6132766659772413e+18
14188.0	1.6130024088272893e+18
14189.0	1.612708473680691e+18
14190.0	1.6124121024823296e+18
14191.0	1.6121153286307837e+18
14192.0	1.6118100084654075e+18
14193.0	1.6115105301266432e+18
14194.0	1.611224512148275e+18
14195.0	1.6109296391553024e+18
14196.0	1.610632813294387e+18
14197.0	1.6103363900866557e+18
14198.0	1.6100343129571328e+18
14199.0	1.609740906292838e+18
14200.0	1.609401263298969e+18
14201.0	1.6091486638571515e+18
14202.0	1.6088554081878013e+18
14203.0	1.6085480143585277e+18
14204.0	1.6082600133132285e+18
14205.0	1.607964246094643e+18
14206.0	1.6075286726574077e+18
14207.0	1.607375500030771e+18
14208.0	1.6070800364797947e+18
14209.0	1.6066352473178107e+18
14210.0	1.6063685986353144e+18
14211.0	1.606165359440691e+18
14212.0	1.605874227766886e+18
14213.0	1.6055795426787325e+18
14214.0	1.605283297309491e+18
14215.0	1.6049730345762808e+18
14216.0	1.6046939959197693e+18
14217.0	1.6043986279989248e+18
14218.0	1.6040909959331837e+18
14219.0	1.603808309909913e+18
14220.0	1.6035134419501053e+18
14221.0	1.6032179112902653e+18
14222.0	1.6029126683000832e+18
14223.0	1.6026283045552125e+18
14224.0	1.602333835893145e+18
14225.0	1.6018898990137344e+18
14226.0	1.6017436553773053e+18
14227.0	1.601449846059827e+18
14228.0	1.600751652149657e+18
14229.0	1.6007480601477112e+18
14230.0	1.6005442035515392e+18
14231.0	1.6002462217404416e+18
14232.0	1.599955195763097e+18
14233.0	1.5996559992815613e+18
14234.0	1.5993668506746875e+18
14235.0	1.599069667459072e+18
14236.0	1.5987784200224763e+18
14237.0	1.5984828524527608e+18
14238.0	1.5981898333421565e+18
14239.0	1.597890254340096e+18
14240.0	1.5956377419644925e+18
14241.0	1.5973071420653568e+18
14242.0	1.5970145155416064e+18
14243.0	1.596544028717875e+18
14244.0	1.5964272777494523e+18
14245.0	1.596115436280217e+18
14246.0	1.5958174444027901e+18
14247.0	1.5955419474165757e+18
14248.0	1.5952195379789821e+18
14249.0	1.594936112080486e+18
14250.0	1.594642549388083e+18
14251.0	1.594352083769753e+18
14252.0	1.5940587542806525e+18
14253.0	1.5937646496841728e+18
14254.0	1.5934697565585405e+18
14255.0	1.5931390524653565e+18
14256.0	1.5927401791881213e+18
14257.0	1.5925795037904893e+18
14258.0	1.592300757057536e+18
14259.0	1.5919869123887101e+18
14260.0	1.5917045753315325e+18
14261.0	1.591401840535142e+18
14262.0	1.5911492243161085e+18
14263.0	1.5906409417801728e+18
14264.0	1.5905121447706621e+18
14265.0	1.5902680362778621e+18
14266.0	1.5899784078426107e+18
14267.0	1.589687915380736e+18
14268.0	1.5893956898324475e+18
14269.0	1.5890968725159933e+18
14270.0	1.588811325977395e+18
14271.0	1.5885019994128381e+18
14272.0	1.5882056902901757e+18
14273.0	1.587912194706636e+18
14274.0	1.5872877467271163e+18
14275.0	1.5872998246449147e+18
14276.0	1.5870204269559803e+18
14277.0	1.5867283507249147e+18
14278.0	1.5864539140587515e+18
14279.0	1.5861608597159933e+18
14280.0	1.5858628326064125e+18
14281.0	1.5855792641015805e+18
14282.0	1.585288107261952e+18
14283.0	1.5849966635319293e+18
14284.0	1.5847052701335547e+18
14285.0	1.5844138566025216e+18
14286.0	1.5841219213000701e+18
14287.0	1.5838313785065467e+18
14288.0	1.5835397888147453e+18
14289.0	1.5819893475639278e+18
14290.0	1.5829560826265597e+18
14291.0	1.5826659173203965e+18
14292.0	1.5823761529896957e+18
14293.0	1.582082595330457e+18
14294.0	1.5816358449119232e+18
14295.0	1.5814893915602941e+18
14296.0	1.5801869074956293e+18
14297.0	1.580898092004147e+18
14298.0	1.5804207986638848e+18
14299.0	1.5803056448864256e+18
14300.0	1.5800197493817341e+18
14301.0	1.5797341407674363e+18
14302.0	1.5794454350790653e+18
14303.0	1.5791193312985088e+18
14304.0	1.578846652884582e+18
14305.0	1.5785753351028733e+18
14306.0	1.5782684714336256e+18
14307.0	1.577989224739635e+18
14308.0	1.577706872582963e+18
14309.0	1.5774151268630525e+18
14310.0	1.5770398222188541e+18
14311.0	1.576771881690726e+18
14312.0	1.576499407958835e+18
14313.0	1.5761000884076544e+18
14314.0	1.5759662079016957e+18
14315.0	1.575678060894617e+18
14316.0	1.5753289639395325e+18
14317.0	1.5750915411673085e+18
14318.0	1.5748098634547197e+18
14319.0	1.574520995027353e+18
14320.0	1.5742308733419515e+18
14321.0	1.5739392417071101e+18
14322.0	1.5736087540400125e+18
14323.0	1.573341118857216e+18
14324.0	1.573058484843315e+18
14325.0	1.5727549732618235e+18
14326.0	1.5724759161503744e+18
14327.0	1.5721797462786048e+18
14328.0	1.571890005436006e+18
14329.0	1.571608966935347e+18
14330.0	1.571320091797094e+18
14331.0	1.5710309046026237e+18
14332.0	1.570742432117555e+18
14333.0	1.570453771727667e+18
14334.0	1.5701651381813243e+18
14335.0	1.5698591569936384e+18
14336.0	1.5695692567674883e+18
14337.0	1.569296496145203e+18
14338.0	1.5690074045808637e+18
14339.0	1.5687106458288125e+18
14340.0	1.5684339845038077e+18
14341.0	1.5681449415933947e+18
14342.0	1.5678552846368765e+18
14343.0	1.567564490185113e+18
14344.0	1.5672760512544763e+18
14345.0	1.5669935950790653e+18
14346.0	1.5667026278219776e+18
14347.0	1.5664021797601275e+18
14348.0	1.5661295214788605e+18
14349.0	1.565841998584217e+18
14350.0	1.5655425957429243e+18
14351.0	1.565247513034752e+18
14352.0	1.5649679375073275e+18
14353.0	1.5644324440047613e+18
14354.0	1.5639359457853437e+18
14355.0	1.5636470001827837e+18
14356.0	1.5633454616018941e+18
14357.0	1.5630563129950203e+18
14358.0	1.5627686558826493e+18
14359.0	1.562466270052352e+18
14360.0	1.5621931336204288e+18
14361.0	1.5619070200119293e+18
14362.0	1.5616203762434048e+18
14363.0	1.5613330295095293e+18
14364.0	1.561010950583091e+18
14365.0	1.560751591600947e+18
14366.0	1.5604655417458685e+18
14367.0	1.5601858487779323e+18
14368.0	1.5598984886222848e+18
14369.0	1.559612396824166e+18
14370.0	1.5593257731883005e+18
14371.0	1.559039225049907e+18
14372.0	1.5587466807345155e+18
14373.0	1.558465804972851e+18
14374.0	1.5581787132526587e+18
14375.0	1.5578901300379643e+18
14376.0	1.5576069675417597e+18
14377.0	1.5573199110537213e+18
14378.0	1.5570312137539581e+18
14379.0	1.5567481837977597e+18
14380.0	1.5564603555577853e+18
14381.0	1.5561635649290237e+18
14382.0	1.555888019288883e+18
14383.0	1.5555977499639805e+18
14384.0	1.555297780052787e+18
14385.0	1.555032003785523e+18
14386.0	1.5547302387122173e+18
14387.0	1.5544600903024637e+18
14388.0	1.5541721983090685e+18
14389.0	1.5538884704206843e+18
14390.0	1.5536007881424896e+18
14391.0	1.5533174293528573e+18
14392.0	1.5530294132080637e+18
14393.0	1.552726814307123e+18
14394.0	1.5523995394768893e+18
14395.0	1.5521434923171837e+18
14396.0	1.5518704045391867e+18
14397.0	1.5515851096588285e+18
14398.0	1.5512990061166587e+18
14399.0	1.5510144410451965e+18
14400.0	1.550706413037158e+18
14401.0	1.5504361421537275e+18
14402.0	1.5501570514878464e+18
14403.0	1.5482503057899497e+18
14404.0	1.5435863169171438e+18
14405.0	1.5470318437007322e+18
14406.0	1.5486890350215163e+18
14407.0	1.5462802596560904e+18
14408.0	1.5481020790865915e+18
14409.0	1.5478109709008893e+18
14410.0	1.5475475417661437e+18
14411.0	1.5472650134487035e+18
14412.0	1.5469769587163133e+18
14413.0	1.5466971130757115e+18
14414.0	1.546409460996505e+18
14415.0	1.5461262666235904e+18
14416.0	1.5458424447827965e+18
14417.0	1.5455538783453184e+18
14418.0	1.5452606730076157e+18
14419.0	1.5449875281870843e+18
14420.0	1.5446986094280704e+18
14421.0	1.5444199667138557e+18
14422.0	1.5441312241156093e+18
14423.0	1.5438407299760123e+18
14424.0	1.5346962412863442e+18
14425.0	1.5432742640549885e+18
14426.0	1.5429995589533693e+18
14427.0	1.542714572773785e+18
14428.0	1.5424086956048384e+18
14429.0	1.5421415939375096e+18
14430.0	1.5418645953904635e+18
14431.0	1.5415146964844541e+18
14432.0	1.5412901049270272e+18
14433.0	1.5393393609801713e+18
14434.0	1.540688700453683e+18
14435.0	1.540405076584038e+18
14436.0	1.5401421356662781e+18
14437.0	1.539858525218406e+18
14438.0	1.539531540634009e+18
14439.0	1.5392795334279163e+18
14440.0	1.5390067895828477e+18
14441.0	1.5387107723837435e+18
14442.0	1.5384206221770747e+18
14443.0	1.5380871548764152e+18
14444.0	1.5378674253561853e+18
14445.0	1.537590225482547e+18
14446.0	1.534762736104244e+18
14447.0	1.5370070125445115e+18
14448.0	1.5367414409592832e+18
14449.0	1.536458543543091e+18
14450.0	1.536169611362304e+18
14451.0	1.535890478753382e+18
14452.0	1.535607650123776e+18
14453.0	1.5352997714329595e+18
14454.0	1.535043180691456e+18
14455.0	1.5347500290408443e+18
14456.0	1.5344719450079232e+18
14457.0	1.5341865830187005e+18
14458.0	1.533910711900569e+18
14459.0	1.5336260662984701e+18
14460.0	1.5333447375519744e+18
14461.0	1.5330410128998397e+18
14462.0	1.5327274467327995e+18
14463.0	1.5324933307498493e+18
14464.0	1.5322160553787392e+18
14465.0	1.5319025781309435e+18
14466.0	1.531648750596915e+18
14467.0	1.5313303794352125e+18
14468.0	1.5310810028965888e+18
14469.0	1.5307760686071803e+18
14470.0	1.5304864368164864e+18
14471.0	1.5302258279317501e+18
14472.0	1.5299505020731395e+18
14473.0	1.529673911212441e+18
14474.0	1.5293932820758525e+18
14475.0	1.5291071684673533e+18
14476.0	1.5287237906268157e+18
14477.0	1.528548361345433e+18
14478.0	1.5282631688060923e+18
14479.0	1.5279829289009147e+18
14480.0	1.527681643655987e+18
14481.0	1.527421299851264e+18
14482.0	1.527134689637171e+18
14483.0	1.5268316025192448e+18
14484.0	1.5265421485670397e+18
14485.0	1.5262304060833792e+18
14486.0	1.5256234466738176e+18
14487.0	1.5257104264724475e+18
14488.0	1.5254256382640128e+18
14489.0	1.5251226820083712e+18
14490.0	1.5245886833557501e+18
14491.0	1.5243090759516157e+18
14492.0	1.5240297957031936e+18
14493.0	1.523743401915187e+18
14494.0	1.5234426568966141e+18
14495.0	1.523185463853056e+18
14496.0	1.5227389701259264e+18
14497.0	1.522621370230374e+18
14498.0	1.5223417091391485e+18
14499.0	1.522060898808627e+18
14500.0	1.5217793922236413e+18
14501.0	1.5214477704167421e+18
14502.0	1.5209077755871232e+18
14503.0	1.5209151961497597e+18
14504.0	1.5206477572603901e+18
14505.0	1.5203298827042813e+18
14506.0	1.5200028259778557e+18
14507.0	1.5195087419998205e+18
14508.0	1.519531825771315e+18
14509.0	1.519251153013965e+18
14510.0	1.5189661618012152e+18
14511.0	1.5186891162779648e+18
14512.0	1.5183897167921144e+18
14513.0	1.5181278663933947e+18
14514.0	1.5178043798585344e+18
14515.0	1.5175645864656893e+18
14516.0	1.5140510767251471e+18
14517.0	1.5170025698623488e+18
14518.0	1.516724264370176e+18
14519.0	1.5164437627404285e+18
14520.0	1.5161619726204923e+18
14521.0	1.5158813015408637e+18
14522.0	1.5156020514914304e+18
14523.0	1.515219849733734e+18
14524.0	1.5149363500154872e+18
14525.0	1.5147538524930043e+18
14526.0	1.5144773102862336e+18
14527.0	1.5141633649541115e+18
14528.0	1.5137536871497728e+18
14529.0	1.5136245898280957e+18
14530.0	1.51333709545472e+18
14531.0	1.5130750286299128e+18
14532.0	1.512650494600806e+18
14533.0	1.5125156091396093e+18
14534.0	1.5122377683763195e+18
14535.0	1.511944710678118e+18
14536.0	1.5116728342151168e+18
14537.0	1.5113820515074048e+18
14538.0	1.5111169027080195e+18
14539.0	1.5108278547644413e+18
14540.0	1.5105375317524477e+18
14541.0	1.5102315539202043e+18
14542.0	1.5099749195579387e+18
14543.0	1.5096206535426048e+18
14544.0	1.5094160352608256e+18
14545.0	1.50912869859328e+18
14546.0	1.4966247267499978e+18
14547.0	1.497371111535404e+18
14548.0	1.508278318556774e+18
14549.0	1.507866647619174e+18
14550.0	1.507726420292403e+18
14551.0	1.5074566409814016e+18
14552.0	1.5071743475449853e+18
14553.0	1.5068854707290107e+18
14554.0	1.506617122514534e+18
14555.0	1.5063367987232765e+18
14556.0	1.5060547250683901e+18
14557.0	1.5057772953468928e+18
14558.0	1.5054964900495352e+18
14559.0	1.5028397793083359e+18
14560.0	1.5049341764894712e+18
14561.0	1.5046485544534013e+18
14562.0	1.5043499216863224e+18
14563.0	1.504096933013094e+18
14564.0	1.5038123092213757e+18
14565.0	1.503538231587635e+18
14566.0	1.5032583641366525e+18
14567.0	1.502978198051225e+18
14568.0	1.502688589748633e+18
14569.0	1.5024183071211515e+18
14570.0	1.5014789021433853e+18
14571.0	1.5018549147860987e+18
14572.0	1.501531273900851e+18
14573.0	1.5012410381303803e+18
14574.0	1.5010058920263675e+18
14575.0	1.5007384028053501e+18
14576.0	1.5004574985224192e+18
14577.0	1.5001719402397693e+18
14578.0	1.4998973441900541e+18
14579.0	1.4996202667900925e+18
14580.0	1.4993406711300093e+18
14581.0	1.4990566647398397e+18
14582.0	1.4987806308827136e+18
14583.0	1.4985010637438976e+18
14584.0	1.4982083449454592e+18
14585.0	1.497941162747494e+18
14586.0	1.4976570120732672e+18
14587.0	1.4973790874238973e+18
14588.0	1.4971012131061757e+18
14589.0	1.4968277327413243e+18
14590.0	1.4965540997038077e+18
14591.0	1.4962796764594176e+18
14592.0	1.4957475249782784e+18
14593.0	1.4951439981871101e+18
14594.0	1.4950146408185856e+18
14595.0	1.4947338858528765e+18
14596.0	1.4944247035723776e+18
14597.0	1.4941500924231677e+18
14598.0	1.493913317251481e+18
14599.0	1.4936447559663616e+18
14600.0	1.4933700156325885e+18
14601.0	1.493096550367232e+18
14602.0	1.4928188371107837e+18
14603.0	1.492548061233152e+18
14604.0	1.4922104617041915e+18
14605.0	1.4919718779486205e+18
14606.0	1.4916186084999168e+18
14607.0	1.491413684872806e+18
14608.0	1.491153126319718e+18
14609.0	1.4908753056890877e+18
14610.0	1.4905930592288765e+18
14611.0	1.490328707347251e+18
14612.0	1.4900591041970168e+18
14613.0	1.489785039985049e+18
14614.0	1.4895056775282685e+18
14615.0	1.489234916750131e+18
14616.0	1.4889608844148736e+18
14617.0	1.4886856810299392e+18
14618.0	1.488410657161216e+18
14619.0	1.4881100983697403e+18
14620.0	1.4877752654036992e+18
14621.0	1.4875863975723e+18
14622.0	1.4873077951234048e+18
14623.0	1.4870362709819392e+18
14624.0	1.4866889792552957e+18
14625.0	1.486482349385318e+18
14626.0	1.4862077399138301e+18
14627.0	1.4859273657909248e+18
14628.0	1.485660010787635e+18
14629.0	1.4853846597631992e+18
14630.0	1.4851082333192187e+18
14631.0	1.484832957792256e+18
14632.0	1.483826618433536e+18
14633.0	1.4841779719241725e+18
14634.0	1.484003569408409e+18
14635.0	1.4836699930558464e+18
14636.0	1.483322407727923e+18
14637.0	1.4831790598389757e+18
14638.0	1.4829011368673277e+18
14639.0	1.4826135451860987e+18
14640.0	1.4823454050091003e+18
14641.0	1.479201572834507e+18
14642.0	1.4817911914889216e+18
14643.0	1.4815211705860093e+18
14644.0	1.4812324212768763e+18
14645.0	1.4809386169925632e+18
14646.0	1.4806832442769403e+18
14647.0	1.480403053025689e+18
