# Flux units: erg / (cm m2 s)
# Wavelength units: Angstrom
wave	flux
14000.0	1.4162984716730365e+18
14001.0	1.416032693728051e+18
14002.0	1.415837440488243e+18
14003.0	1.4156083576700925e+18
14004.0	1.4153777967792125e+18
14005.0	1.4151472644095997e+18
14006.0	1.4149154099953664e+18
14007.0	1.4146856577662973e+18
14008.0	1.4144419284385792e+18
14009.0	1.4142252272058363e+18
14010.0	1.4139952619061248e+18
14011.0	1.4136541894934528e+18
14012.0	1.4135347961135104e+18
14013.0	1.4133047049846781e+18
14014.0	1.4130745970786301e+18
14015.0	1.4128442173816832e+18
14016.0	1.4126145523941373e+18
14017.0	1.4123846156156925e+18
14018.0	1.412154705680793e+18
14019.0	1.4119248645324797e+18
14020.0	1.4116949462089725e+18
14021.0	1.411465113449267e+18
14022.0	1.4112354132295675e+18
14023.0	1.4110055888584701e+18
14024.0	1.4107749306597373e+18
14025.0	1.410546737034035e+18
14026.0	1.410316984804966e+18
14027.0	1.4100877946126336e+18
14028.0	1.4098583829610493e+18
14029.0	1.4096289847312381e+18
14030.0	1.4093506775613437e+18
14031.0	1.4091687202652157e+18
14032.0	1.4089410618327035e+18
14033.0	1.408706400590233e+18
14034.0	1.408482844187033e+18
14035.0	1.408253828477747e+18
14036.0	1.4080248077352957e+18
14037.0	1.4077958239027197e+18
14038.0	1.4075668904017917e+18
14039.0	1.407338010587955e+18
14040.0	1.4071091769114621e+18
14041.0	1.406880391050035e+18
14042.0	1.4066496506429437e+18
14043.0	1.4064161344454653e+18
14044.0	1.4061919950340093e+18
14045.0	1.4059657442099197e+18
14046.0	1.4057371840020475e+18
14047.0	1.4055085189365757e+18
14048.0	1.4052801650884608e+18
14049.0	1.4050518414393341e+18
14050.0	1.404823491785523e+18
14051.0	1.4045938989400061e+18
14052.0	1.404366899852083e+18
14053.0	1.4041387213258747e+18
14054.0	1.4039105662877693e+18
14055.0	1.4036824540315648e+18
14056.0	1.403454387073843e+18
14057.0	1.4032263746420733e+18
14058.0	1.4029984049922045e+18
14059.0	1.402770488190566e+18
14060.0	1.4025426141708285e+18
14061.0	1.4023135883952125e+18
14062.0	1.4020870095765501e+18
14063.0	1.4018570551820285e+18
14064.0	1.4016196995186685e+18
14065.0	1.4014025075523581e+18
14066.0	1.4011763859128317e+18
14067.0	1.4009488541483005e+18
14068.0	1.4007213626490877e+18
14069.0	1.400493735254425e+18
14070.0	1.4002665046409213e+18
14071.0	1.4000386666921981e+18
14072.0	1.3998118748028928e+18
14073.0	1.3995846274121723e+18
14074.0	1.3993574370639872e+18
14075.0	1.3991302366494717e+18
14076.0	1.398903168774963e+18
14077.0	1.3986653383163901e+18
14078.0	1.3984483409657856e+18
14079.0	1.3982212370202621e+18
14080.0	1.3979952143663101e+18
14081.0	1.397768345301811e+18
14082.0	1.3975412371619837e+18
14083.0	1.3973145241255933e+18
14084.0	1.3970879981551613e+18
14085.0	1.396823413070233e+18
14086.0	1.396633836401459e+18
14087.0	1.3964081207705595e+18
14088.0	1.3961814446440445e+18
14089.0	1.3959550747017213e+18
14090.0	1.3957284799447037e+18
14091.0	1.395502259319603e+18
14092.0	1.3952759036379133e+18
14093.0	1.3950495982878717e+18
14094.0	1.3948233491415037e+18
14095.0	1.3945971385827323e+18
14096.0	1.3943689969663997e+18
14097.0	1.3941447736688637e+18
14098.0	1.393917881955123e+18
14099.0	1.3936927761760256e+18
14100.0	1.3934646714695677e+18
14101.0	1.3932408835407872e+18
14102.0	1.3930149724553213e+18
14103.0	1.392786267124531e+18
14104.0	1.39256339103744e+18
14105.0	1.3923376242360317e+18
14106.0	1.3921119463538685e+18
14107.0	1.3918862248509437e+18
14108.0	1.3916607231295485e+18
14109.0	1.3914344504950781e+18
14110.0	1.391209266701926e+18
14111.0	1.390983181972275e+18
14112.0	1.390758485557248e+18
14113.0	1.3905334041051133e+18
14114.0	1.3903081288761344e+18
14115.0	1.3900825919225856e+18
14116.0	1.389856290766848e+18
14117.0	1.3895437144555517e+18
14118.0	1.3894072720687101e+18
14119.0	1.3891810816425981e+18
14120.0	1.3889562241662973e+18
14121.0	1.3887319715086333e+18
14122.0	1.3885050454015997e+18
14123.0	1.3882815997280253e+18
14124.0	1.3880564830437373e+18
14125.0	1.3877619959267325e+18
14126.0	1.3876079399796736e+18
14127.0	1.3873832603418621e+18
14128.0	1.387158387766067e+18
14129.0	1.386932298003251e+18
14130.0	1.386707441365811e+18
14131.0	1.386484895789875e+18
14132.0	1.3862603671470075e+18
14133.0	1.3859531243126781e+18
14134.0	1.3858115405479933e+18
14135.0	1.3855853257949181e+18
14136.0	1.3853617098326013e+18
14137.0	1.3851385686654973e+18
14138.0	1.384913642402611e+18
14139.0	1.3846902848094205e+18
14140.0	1.384465686541107e+18
14141.0	1.3842418147262461e+18
14142.0	1.3840121379946493e+18
14143.0	1.3837937439408128e+18
14144.0	1.3835702462578685e+18
14145.0	1.3833463501160445e+18
14146.0	1.383122280330035e+18
14147.0	1.382898598097715e+18
14148.0	1.382674906637926e+18
14149.0	1.3824513309409277e+18
14150.0	1.3822276797464573e+18
14151.0	1.3820036879745021e+18
14152.0	1.381780535063347e+18
14153.0	1.3815570063425533e+18
14154.0	1.3813301808988157e+18
14155.0	1.3811003724660733e+18
14156.0	1.3808848070508541e+18
14157.0	1.3806634518183933e+18
14158.0	1.380439574131507e+18
14159.0	1.3802169371197437e+18
14160.0	1.3799922826477565e+18
14161.0	1.379762158803353e+18
14162.0	1.379531619722854e+18
14163.0	1.3793241853853693e+18
14164.0	1.3790990175305725e+18
14165.0	1.3788716501827581e+18
14166.0	1.378655412001177e+18
14167.0	1.3784327221411837e+18
14168.0	1.3782096329834493e+18
14169.0	1.3779871192842237e+18
14170.0	1.3777638338330621e+18
14171.0	1.377541175849779e+18
14172.0	1.3773190547374077e+18
14173.0	1.3770915640770557e+18
14174.0	1.376873111302963e+18
14175.0	1.3766514104598525e+18
14176.0	1.376428951286579e+18
14177.0	1.3762065516724221e+18
14178.0	1.375984070688768e+18
14179.0	1.3757607885930493e+18
14180.0	1.3755395289907195e+18
14181.0	1.3753173122482173e+18
14182.0	1.3750949965201405e+18
14183.0	1.3748729836208125e+18
14184.0	1.3746501276663805e+18
14185.0	1.3744288277987325e+18
14186.0	1.3741895385612285e+18
14187.0	1.3739812695572477e+18
14188.0	1.3737627756789757e+18
14189.0	1.3735409104191483e+18
14190.0	1.3733190980075517e+18
14191.0	1.3730973157949437e+18
14192.0	1.3728745084944381e+18
14193.0	1.3726516550565885e+18
14194.0	1.372432166289408e+18
14195.0	1.3722108244787195e+18
14196.0	1.3719892268154877e+18
14197.0	1.3717677088440317e+18
14198.0	1.3715454535139325e+18
14199.0	1.3713244782854144e+18
14200.0	1.3710939090059261e+18
14201.0	1.370881401238323e+18
14202.0	1.3706608588619773e+18
14203.0	1.3704385263566845e+18
14204.0	1.370217988174643e+18
14205.0	1.3699968535625725e+18
14206.0	1.3697578386325501e+18
14207.0	1.3695550733942781e+18
14208.0	1.3693341006823421e+18
14209.0	1.3690939365130237e+18
14210.0	1.3688774399623165e+18
14211.0	1.368671204356915e+18
14212.0	1.3684503482466301e+18
14213.0	1.3682296557142013e+18
14214.0	1.3680087878598653e+18
14215.0	1.3677860292132861e+18
14216.0	1.367567624254259e+18
14217.0	1.367347012252467e+18
14218.0	1.3671264270942208e+18
14219.0	1.3669058939453437e+18
14220.0	1.366685440488243e+18
14221.0	1.3664649366994941e+18
14222.0	1.366244560417587e+18
14223.0	1.3660242285953021e+18
14224.0	1.3658039538155517e+18
14225.0	1.3655507654934525e+18
14226.0	1.3653632297730045e+18
14227.0	1.3651433115090944e+18
14228.0	1.364827515650048e+18
14229.0	1.3646786690285565e+18
14230.0	1.3644830768889853e+18
14231.0	1.3642630931939325e+18
14232.0	1.3640431455698944e+18
14233.0	1.3638232424054781e+18
14234.0	1.3636033828618237e+18
14235.0	1.3633831466696701e+18
14236.0	1.3631637887647741e+18
14237.0	1.3629391854632957e+18
14238.0	1.362717532435251e+18
14239.0	1.362497046262579e+18
14240.0	1.3619804363554813e+18
14241.0	1.3620585452011517e+18
14242.0	1.3618391017324541e+18
14243.0	1.361595975545651e+18
14244.0	1.3614002240225277e+18
14245.0	1.3611792395665405e+18
14246.0	1.3609590184738813e+18
14247.0	1.3607421628907517e+18
14248.0	1.3605196013764605e+18
14249.0	1.3603033212518397e+18
14250.0	1.3600840984035325e+18
14251.0	1.3598653075685373e+18
14252.0	1.359646194610995e+18
14253.0	1.3594270044782592e+18
14254.0	1.3592077589807104e+18
14255.0	1.3589790083514365e+18
14256.0	1.3587337397141501e+18
14257.0	1.3585426723897341e+18
14258.0	1.3583257564086272e+18
14259.0	1.3581069454409728e+18
14260.0	1.3578859467243517e+18
14261.0	1.3576700071772157e+18
14262.0	1.3574709085995003e+18
14263.0	1.3572085112635392e+18
14264.0	1.3570229208612864e+18
14265.0	1.3568150914203645e+18
14266.0	1.356596571537408e+18
14267.0	1.356378111213568e+18
14268.0	1.3561596819275773e+18
14269.0	1.3559408592158717e+18
14270.0	1.3557229324075005e+18
14271.0	1.3555045391925245e+18
14272.0	1.3552863615647741e+18
14273.0	1.3550679121461245e+18
14274.0	1.3547820258689021e+18
14275.0	1.3546209805336573e+18
14276.0	1.354406472921907e+18
14277.0	1.3541870378418173e+18
14278.0	1.353970880190873e+18
14279.0	1.3537526874636285e+18
14280.0	1.3535339226333181e+18
14281.0	1.353317073761075e+18
14282.0	1.353099261876633e+18
14283.0	1.3528814399258621e+18
14284.0	1.3526636590792701e+18
14285.0	1.352445912625971e+18
14286.0	1.3522280822865917e+18
14287.0	1.3520105723920381e+18
14288.0	1.3517928955641853e+18
14289.0	1.3513850397655037e+18
14290.0	1.3513576954200061e+18
14291.0	1.3511402308239357e+18
14292.0	1.3509229457440765e+18
14293.0	1.350705167414067e+18
14294.0	1.3504668999090173e+18
14295.0	1.350270801097523e+18
14296.0	1.3499011453419517e+18
14297.0	1.349835524617011e+18
14298.0	1.3495846817497085e+18
14299.0	1.3493948131573757e+18
14300.0	1.3491782629195773e+18
14301.0	1.3489611414175741e+18
14302.0	1.3487436181012477e+18
14303.0	1.3485220976132093e+18
14304.0	1.3483077124751357e+18
14305.0	1.3480929079066621e+18
14306.0	1.347874614516121e+18
14307.0	1.3476585315237885e+18
14308.0	1.347442644824883e+18
14309.0	1.3472257204551677e+18
14310.0	1.3470019258155005e+18
14311.0	1.3467797417885693e+18
14312.0	1.346568660084326e+18
14313.0	1.3463260657352701e+18
14314.0	1.3461424449781757e+18
14315.0	1.3459262386733053e+18
14316.0	1.3457017913999357e+18
14317.0	1.345492301853491e+18
14318.0	1.3452770325561344e+18
14319.0	1.3450607675310077e+18
14320.0	1.3448443976482813e+18
14321.0	1.3446282223812605e+18
14322.0	1.344406279107379e+18
14323.0	1.3441890955296765e+18
14324.0	1.343973108167475e+18
14325.0	1.3437569974927357e+18
14326.0	1.3435409237278717e+18
14327.0	1.343324895261491e+18
14328.0	1.3431077888589821e+18
14329.0	1.3428929498972157e+18
14330.0	1.3426770405490685e+18
14331.0	1.3424611177791483e+18
14332.0	1.3422453292269565e+18
14333.0	1.3420295482245117e+18
14334.0	1.341813804970803e+18
14335.0	1.3415955552010237e+18
14336.0	1.3413792197115901e+18
14337.0	1.341166720332595e+18
14338.0	1.340950889837363e+18
14339.0	1.3407353487491072e+18
14340.0	1.3405201373331453e+18
14341.0	1.3403044997758973e+18
14342.0	1.3400892740993021e+18
14343.0	1.3398736608690173e+18
14344.0	1.3396584033157117e+18
14345.0	1.3394432623640573e+18
14346.0	1.3392275904135165e+18
14347.0	1.3390101467889661e+18
14348.0	1.338797571912499e+18
14349.0	1.3385824737427453e+18
14350.0	1.338364917710848e+18
14351.0	1.3381448249638912e+18
14352.0	1.3379307376214013e+18
14353.0	1.3377157342429181e+18
14354.0	1.3375002535526397e+18
14355.0	1.3372849708335101e+18
14356.0	1.3370702845444093e+18
14357.0	1.336856116671283e+18
14358.0	1.3366413121028093e+18
14359.0	1.3364264538472445e+18
14360.0	1.336211557842944e+18
14361.0	1.3359970410037245e+18
14362.0	1.3357824822214653e+18
14363.0	1.335567836197683e+18
14364.0	1.3353462477619195e+18
14365.0	1.3351393184186365e+18
14366.0	1.3349254307250173e+18
14367.0	1.334443601664409e+18
14368.0	1.334181597754163e+18
14369.0	1.333967268819763e+18
14370.0	1.333752898781184e+18
14371.0	1.333538564813619e+18
14372.0	1.333324245106688e+18
14373.0	1.333109961470771e+18
14374.0	1.3328955125792765e+18
14375.0	1.332680833839923e+18
14376.0	1.332467461206835e+18
14377.0	1.332253245518643e+18
14378.0	1.332038832698163e+18
14379.0	1.331825233572659e+18
14380.0	1.3316111823011837e+18
14381.0	1.3313968877600763e+18
14382.0	1.3311831250567165e+18
14383.0	1.3309646664105981e+18
14384.0	1.3307489751662592e+18
14385.0	1.3305352242069501e+18
14386.0	1.3303214464040957e+18
14387.0	1.3301076442742781e+18
14388.0	1.329893676888883e+18
14389.0	1.329680229597184e+18
14390.0	1.3294663410647037e+18
14391.0	1.3292530699337725e+18
14392.0	1.329039322329907e+18
14393.0	1.328826054554419e+18
14394.0	1.3286071848665088e+18
14395.0	1.3283975325810685e+18
14396.0	1.3281857445560317e+18
14397.0	1.327972387861299e+18
14398.0	1.3277590018064384e+18
14399.0	1.3275457709408256e+18
14400.0	1.327329224897331e+18
14401.0	1.3271182002356221e+18
14402.0	1.3269059197992957e+18
14403.0	1.326552602535526e+18
14404.0	1.3257871361835003e+18
14405.0	1.325926459218329e+18
14406.0	1.326053649809408e+18
14407.0	1.3256506753417216e+18
14408.0	1.3256261269192701e+18
14409.0	1.3254113106067453e+18
14410.0	1.3252014494449661e+18
14411.0	1.324989087639142e+18
14412.0	1.3247758022475773e+18
14413.0	1.3245637684363261e+18
14414.0	1.3243506625609723e+18
14415.0	1.324138156471091e+18
14416.0	1.3239257183289341e+18
14417.0	1.3237128758558717e+18
14418.0	1.3234988589776893e+18
14419.0	1.3232876598329341e+18
14420.0	1.3230687725289467e+18
14421.0	1.3228562479841277e+18
14422.0	1.3226437544771581e+18
14423.0	1.322430323962675e+18
14424.0	1.3214337422327803e+18
14425.0	1.322005784061542e+18
14426.0	1.3217944616042496e+18
14427.0	1.3215822491156477e+18
14428.0	1.321367072092979e+18
14429.0	1.3211568711925757e+18
14430.0	1.3209456712089597e+18
14431.0	1.320719316366131e+18
14432.0	1.3205209232703485e+18
14433.0	1.3201646750269437e+18
14434.0	1.320094973244211e+18
14435.0	1.3198821693587453e+18
14436.0	1.319673500218163e+18
14437.0	1.319461603980083e+18
14438.0	1.3192454865944573e+18
14439.0	1.319036871979827e+18
14440.0	1.3188259504979965e+18
14441.0	1.318611783463731e+18
14442.0	1.3183989317632e+18
14443.0	1.3181802222977021e+18
14444.0	1.317978200290099e+18
14445.0	1.3177675447271421e+18
14446.0	1.31727620046848e+18
14447.0	1.3173422020362237e+18
14448.0	1.3171329691811837e+18
14449.0	1.3169215074729981e+18
14450.0	1.3167100197601277e+18
14451.0	1.3164986025115643e+18
14452.0	1.3162871265427453e+18
14453.0	1.3160737899806717e+18
14454.0	1.3158645118271485e+18
14455.0	1.3156522557177853e+18
14456.0	1.3154415892496384e+18
14457.0	1.3152301820674045e+18
14458.0	1.3150194736562173e+18
14459.0	1.3148080706682877e+18
14460.0	1.314597066978099e+18
14461.0	1.3143773441687552e+18
14462.0	1.3141571205595133e+18
14463.0	1.313956852609843e+18
14464.0	1.3137465107808253e+18
14465.0	1.3135306383425533e+18
14466.0	1.3133248196509693e+18
14467.0	1.3131111014072317e+18
14468.0	1.3129028005265403e+18
14469.0	1.3126876537028605e+18
14470.0	1.3124762641367037e+18
14471.0	1.3122685546528765e+18
14472.0	1.3120599081615357e+18
14473.0	1.3118493004136448e+18
14474.0	1.3116386758885373e+18
14475.0	1.311427740984934e+18
14476.0	1.3112082547343357e+18
14477.0	1.3110068023132157e+18
14478.0	1.3107963472379901e+18
14479.0	1.3105855692013565e+18
14480.0	1.3103735555227645e+18
14481.0	1.310165002983833e+18
14482.0	1.3099539271516157e+18
14483.0	1.309742579528499e+18
14484.0	1.3095318887333885e+18
14485.0	1.3093179112816637e+18
14486.0	1.3090624479690752e+18
14487.0	1.3089030904217597e+18
14488.0	1.3086929079762941e+18
14489.0	1.3084814437515261e+18
14490.0	1.3082721102331901e+18
14491.0	1.3080621995786237e+18
14492.0	1.307852408042291e+18
14493.0	1.3076423002554365e+18
14494.0	1.3074290878447613e+18
14495.0	1.3072223069798397e+18
14496.0	1.3069898049650685e+18
14497.0	1.3068021971025917e+18
14498.0	1.306592559916646e+18
14499.0	1.306382718887526e+18
14500.0	1.3061728468205568e+18
14501.0	1.3059595580735485e+18
14502.0	1.3057093300912125e+18
14503.0	1.3055412735574013e+18
14504.0	1.305332776383283e+18
14505.0	1.3051205370511355e+18
14506.0	1.304907301991219e+18
14507.0	1.3046629183520765e+18
14508.0	1.3044952997036032e+18
14509.0	1.3042857514369021e+18
14510.0	1.304073935729459e+18
14511.0	1.3038601596043261e+18
14512.0	1.3036481484423165e+18
14513.0	1.3034411511513085e+18
14514.0	1.3032261779718141e+18
14515.0	1.3030221292765181e+18
14516.0	1.3023096277565443e+18
14517.0	1.3026030621032445e+18
14518.0	1.3023942025412605e+18
14519.0	1.3021849461981181e+18
14520.0	1.3019756772720637e+18
14521.0	1.3017661927587837e+18
14522.0	1.3015571872350205e+18
14523.0	1.301339207578419e+18
14524.0	1.3011303320780797e+18
14525.0	1.3009287722827773e+18
14526.0	1.3007206140084221e+18
14527.0	1.3005056072744957e+18
14528.0	1.3002784286703616e+18
14529.0	1.300091448275763e+18
14530.0	1.2998819679567867e+18
14531.0	1.2996751728312317e+18
14532.0	1.2994540508020733e+18
14533.0	1.2992572834185216e+18
14534.0	1.2990486964862973e+18
14535.0	1.2988396926402557e+18
14536.0	1.2986308876042237e+18
14537.0	1.2984201456386045e+18
14538.0	1.2982133547073533e+18
14539.0	1.2980045840646144e+18
14540.0	1.2977958343933952e+18
14541.0	1.2975862961930237e+18
14542.0	1.2973783803494395e+18
14543.0	1.2971646914658301e+18
14544.0	1.2969609850257405e+18
14545.0	1.2967521925726203e+18
14546.0	1.2952619697831928e+18
14547.0	1.2951526276333558e+18
14548.0	1.2961248178077693e+18
14549.0	1.295898230600499e+18
14550.0	1.295709486920499e+18
14551.0	1.295501092926259e+18
14552.0	1.295292149478195e+18
14553.0	1.2950821691981821e+18
14554.0	1.2948757389770752e+18
14555.0	1.2946672887791616e+18
14556.0	1.2944587228184573e+18
14557.0	1.2942505418948605e+18
14558.0	1.294042062336819e+18
14559.0	1.2934643204489208e+18
14560.0	1.2936251074150395e+18
14561.0	1.293415928247091e+18
14562.0	1.2932052198359037e+18
14563.0	1.2930005495447552e+18
14564.0	1.2927913930260477e+18
14565.0	1.2925843110100992e+18
14566.0	1.2923759203713021e+18
14567.0	1.2921614043709437e+18
14568.0	1.291952606884659e+18
14569.0	1.2917450400071677e+18
14570.0	1.2914355733528573e+18
14571.0	1.2913282528575485e+18
14572.0	1.2911139440558077e+18
14573.0	1.2909063453016061e+18
14574.0	1.2907019124080637e+18
14575.0	1.2904962170290173e+18
14576.0	1.2902880537214973e+18
14577.0	1.2900803215884285e+18
14578.0	1.2898719024283645e+18
14579.0	1.2896642919301117e+18
14580.0	1.2894563383377917e+18
14581.0	1.289247800898355e+18
14582.0	1.2890403153903616e+18
14583.0	1.2888324280680445e+18
14584.0	1.2886225341906941e+18
14585.0	1.288416539338342e+18
14586.0	1.2882080513916925e+18
14587.0	1.2880004778033152e+18
14588.0	1.2877931751669757e+18
14589.0	1.2875886617427965e+18
14590.0	1.2873846440853501e+18
14591.0	1.2871804947267581e+18
14592.0	1.2869763738894333e+18
14593.0	1.2867525649891328e+18
14594.0	1.2865684946026493e+18
14595.0	1.2863636263403517e+18
14596.0	1.2861520086040573e+18
14597.0	1.285946980958208e+18
14598.0	1.2853529173557245e+18
14599.0	1.2851289666879488e+18
14600.0	1.284924738476441e+18
14601.0	1.2847208248377341e+18
14602.0	1.284516047172403e+18
14603.0	1.2843126729211901e+18
14604.0	1.2841012237959165e+18
14605.0	1.2839027241648125e+18
14606.0	1.2836870320816125e+18
14607.0	1.2834931336019965e+18
14608.0	1.2832914773377021e+18
14609.0	1.2830876291301373e+18
14610.0	1.2828808683978752e+18
14611.0	1.2826793731948541e+18
14612.0	1.2824759897161728e+18
14613.0	1.2822720047742973e+18
14614.0	1.2820672380141565e+18
14615.0	1.281863703540531e+18
14616.0	1.2816597815132157e+18
14617.0	1.281455681647411e+18
14618.0	1.2812515851370493e+18
14619.0	1.281041758368563e+18
14620.0	1.2808258498592765e+18
14621.0	1.2806392863784957e+18
14622.0	1.280435169735475e+18
14623.0	1.2802309885001725e+18
14624.0	1.2800171310055421e+18
14625.0	1.2798226621005821e+18
14626.0	1.279618240951091e+18
14627.0	1.2794134943236093e+18
14628.0	1.279210077290496e+18
14629.0	1.2790058532732925e+18
14630.0	1.2788014111522813e+18
14631.0	1.278597083116339e+18
14632.0	1.2783223696261117e+18
14633.0	1.2781723460829181e+18
14634.0	1.2779773780557821e+18
14635.0	1.277755911254835e+18
14636.0	1.277533579588403e+18
14637.0	1.2773645935968253e+18
14638.0	1.277159732045414e+18
14639.0	1.2769535216058365e+18
14640.0	1.276750352036659e+18
14641.0	1.2762921226469373e+18
14642.0	1.2763408638148605e+18
14643.0	1.2761369837305853e+18
14644.0	1.2759322396196861e+18
14645.0	1.2757238238150653e+18
14646.0	1.2755219142148093e+18
14647.0	1.2753168186212352e+18
