# Flux units: erg / (cm m2 s)
# Wavelength units: Angstrom
wave	flux
14000.0	1.7260185659637757e+18
14001.0	1.7255075218980861e+18
14002.0	1.7252232084848635e+18
14003.0	1.7248263988051965e+18
14004.0	1.7244212592377856e+18
14005.0	1.7240240368386048e+18
14006.0	1.7236098124087293e+18
14007.0	1.7232047466610688e+18
14008.0	1.7226519743037437e+18
14009.0	1.72241639702528e+18
14010.0	1.7219895645175803e+18
14011.0	1.7206268804464648e+18
14012.0	1.721205424285286e+18
14013.0	1.7208091699314688e+18
14014.0	1.720396594701926e+18
14015.0	1.7200033384366077e+18
14016.0	1.719603354507673e+18
14017.0	1.7192034829860861e+18
14018.0	1.718801390161101e+18
14019.0	1.718404765030809e+18
14020.0	1.7180013367394304e+18
14021.0	1.7176020792639485e+18
14022.0	1.717183912188313e+18
14023.0	1.716640793441075e+18
14024.0	1.7163323913011195e+18
14025.0	1.7159990666067965e+18
14026.0	1.715601372767846e+18
14027.0	1.7151998805671933e+18
14028.0	1.7147913033482235e+18
14029.0	1.7143936850067453e+18
14030.0	1.7080090970030129e+18
14031.0	1.7135571478511608e+18
14032.0	1.7131971004071933e+18
14033.0	1.7126550604349437e+18
14034.0	1.7124038551797757e+18
14035.0	1.7120029032054781e+18
14036.0	1.711594572611584e+18
14037.0	1.711185971904512e+18
14038.0	1.7108115312869368e+18
14039.0	1.7104086717431803e+18
14040.0	1.7099928752881661e+18
14041.0	1.7096123546075133e+18
14042.0	1.7092059584266237e+18
14043.0	1.7087560689909757e+18
14044.0	1.708407861228339e+18
14045.0	1.708022005392998e+18
14046.0	1.7076221305159677e+18
14047.0	1.707183871046451e+18
14048.0	1.7068068115054587e+18
14049.0	1.706425436864512e+18
14050.0	1.7060269830176765e+18
14051.0	1.7056084988526587e+18
14052.0	1.7052254112579581e+18
14053.0	1.7048353091092475e+18
14054.0	1.704441663612518e+18
14055.0	1.7040384215482363e+18
14056.0	1.7036490290757624e+18
14057.0	1.7032495367192576e+18
14058.0	1.7028564532592637e+18
14059.0	1.7024534360096763e+18
14060.0	1.7020644461903867e+18
14061.0	1.7016568605048827e+18
14062.0	1.7012730397458427e+18
14063.0	1.7008517420417021e+18
14064.0	1.6995500314066947e+18
14065.0	1.7000738395783165e+18
14066.0	1.6996872572895232e+18
14067.0	1.699124348138291e+18
14068.0	1.6989000283717627e+18
14069.0	1.698485562349977e+18
14070.0	1.6981071522430968e+18
14071.0	1.6977070542290941e+18
14072.0	1.697316326290227e+18
14073.0	1.6969203135283197e+18
14074.0	1.6965289950314493e+18
14075.0	1.6961006928396288e+18
14076.0	1.6955484640641021e+18
14077.0	1.6938461856530435e+18
14078.0	1.6948434904809467e+18
14079.0	1.694543740351283e+18
14080.0	1.694168056542003e+18
14081.0	1.6937731510763515e+18
14082.0	1.6933408961724416e+18
14083.0	1.6929818822049787e+18
14084.0	1.692594242951577e+18
14085.0	1.6908532326596603e+18
14086.0	1.6916944993124347e+18
14087.0	1.691415735802265e+18
14088.0	1.6909864588541952e+18
14089.0	1.6904727522443261e+18
14090.0	1.690208402040422e+18
14091.0	1.6898454085173248e+18
14092.0	1.6894498302853112e+18
14093.0	1.689060501566259e+18
14094.0	1.688666748695347e+18
14095.0	1.688274002457395e+18
14096.0	1.687582833167565e+18
14097.0	1.6873713966252032e+18
14098.0	1.6869532647817216e+18
14099.0	1.686706523943731e+18
14100.0	1.686277958349619e+18
14101.0	1.6859246721236984e+18
14102.0	1.685529030138265e+18
14103.0	1.6851196945891325e+18
14104.0	1.684746500518707e+18
14105.0	1.6843519859621885e+18
14106.0	1.6839689822535675e+18
14107.0	1.6835520566919165e+18
14108.0	1.6831499571560448e+18
14109.0	1.682789049040896e+18
14110.0	1.6823601814568957e+18
14111.0	1.681923817812787e+18
14112.0	1.6816034669395965e+18
14113.0	1.6811309081296896e+18
14114.0	1.6808120772722685e+18
14115.0	1.6804352945553405e+18
14116.0	1.6795982373060598e+18
14117.0	1.670344815830635e+18
14118.0	1.6792791229136893e+18
14119.0	1.6787379972997112e+18
14120.0	1.6783522790375421e+18
14121.0	1.6780785654693888e+18
14122.0	1.6774966460547067e+18
14123.0	1.6770552844779515e+18
14124.0	1.6765789256286203e+18
14125.0	1.6758040011210747e+18
14126.0	1.6760948056391677e+18
14127.0	1.6757809190273021e+18
14128.0	1.6753934794227707e+18
14129.0	1.6749884572958715e+18
14130.0	1.674581700404838e+18
14131.0	1.6742170207715323e+18
14132.0	1.6738316212764672e+18
14133.0	1.6725750145089503e+18
14134.0	1.6730684357869565e+18
14135.0	1.6726257152557046e+18
14136.0	1.6715497722609672e+18
14137.0	1.671897501872947e+18
14138.0	1.6713726585470976e+18
14139.0	1.6711315246546941e+18
14140.0	1.6706733372080128e+18
14141.0	1.670350045288857e+18
14142.0	1.6690623251742725e+18
14143.0	1.6694793346220032e+18
14144.0	1.6691985293246461e+18
14145.0	1.668809990812467e+18
14146.0	1.6684061145694203e+18
14147.0	1.6680263371194363e+18
14148.0	1.667598826812211e+18
14149.0	1.6671839799476224e+18
14150.0	1.6668786161614848e+18
14151.0	1.666376900227891e+18
14152.0	1.666106610889523e+18
14153.0	1.6657220116676605e+18
14154.0	1.665293128984166e+18
14155.0	1.660136809352401e+18
14156.0	1.6644022772695022e+18
14157.0	1.664171946226483e+18
14158.0	1.6637559987765248e+18
14159.0	1.6634060696715261e+18
14160.0	1.663022461983129e+18
14161.0	1.6625285608767488e+18
14162.0	1.662079632775577e+18
14163.0	1.661867617419264e+18
14164.0	1.6611400868691955e+18
14165.0	1.6603671219404803e+18
14166.0	1.6607073068384253e+18
14167.0	1.6603095307911165e+18
14168.0	1.6598716924297213e+18
14169.0	1.6595581212295168e+18
14170.0	1.6591332550115323e+18
14171.0	1.6587653742854141e+18
14172.0	1.6584143160737792e+18
14173.0	1.6576968317206525e+18
14174.0	1.6576231210221565e+18
14175.0	1.6572595553959933e+18
14176.0	1.656832882271846e+18
14177.0	1.656484723163136e+18
14178.0	1.6561059271802877e+18
14179.0	1.655659878049382e+18
14180.0	1.6553494525771768e+18
14181.0	1.654965390226227e+18
14182.0	1.6545826801188861e+18
14183.0	1.6542008994693115e+18
14184.0	1.6538099349716992e+18
14185.0	1.6534332864724992e+18
14186.0	1.6512363721129992e+18
14187.0	1.6526330266910715e+18
14188.0	1.6522831395291133e+18
14189.0	1.6518820650811387e+18
14190.0	1.651509015294771e+18
14191.0	1.651118824226816e+18
14192.0	1.6507443534102528e+18
14193.0	1.650067852440371e+18
14194.0	1.6499793459150848e+18
14195.0	1.64961769792471e+18
14196.0	1.6492352847740928e+18
14197.0	1.648852361596108e+18
14198.0	1.648465670255411e+18
14199.0	1.6480756402487293e+18
14200.0	1.6465779062996997e+18
14201.0	1.6473193485172733e+18
14202.0	1.6469471845679104e+18
14203.0	1.6464905389473787e+18
14204.0	1.646170919560806e+18
14205.0	1.6458065201070077e+18
14206.0	1.6452261022531584e+18
14207.0	1.6450509766393856e+18
14208.0	1.6446717561929723e+18
14209.0	1.6440564652179446e+18
14210.0	1.6437795623010294e+18
14211.0	1.6435211763974144e+18
14212.0	1.643151666603622e+18
14213.0	1.642732266402611e+18
14214.0	1.6423929673416704e+18
14215.0	1.6419870627332093e+18
14216.0	1.6416340382318592e+18
14217.0	1.641258676545126e+18
14218.0	1.6408606857494523e+18
14219.0	1.6404986351058941e+18
14220.0	1.640113587932365e+18
14221.0	1.6397061146542075e+18
14222.0	1.6390659346792443e+18
14223.0	1.6389689455935488e+18
14224.0	1.638610111142297e+18
14225.0	1.635055733781302e+18
14226.0	1.6378535358758912e+18
14227.0	1.6374747633811453e+18
14228.0	1.6294184868642854e+18
14229.0	1.6358739049185213e+18
14230.0	1.6363396068802557e+18
14231.0	1.6356788009959424e+18
14232.0	1.6355860615790592e+18
14233.0	1.635193575387955e+18
14234.0	1.6348322629419005e+18
14235.0	1.634450552756633e+18
14236.0	1.6340746877534205e+18
14237.0	1.633691561571123e+18
14238.0	1.6333158911836157e+18
14239.0	1.6329078692904957e+18
14240.0	1.6302126665826322e+18
14241.0	1.632171565934182e+18
14242.0	1.6318114161491965e+18
14243.0	1.6311896139366403e+18
14244.0	1.6310680932057085e+18
14245.0	1.6306562008088576e+18
14246.0	1.6302518967468024e+18
14247.0	1.629931398234112e+18
14248.0	1.6295388835217405e+18
14249.0	1.629181552309043e+18
14250.0	1.6288097708802043e+18
14251.0	1.6284355215228923e+18
14252.0	1.628061874467635e+18
14253.0	1.6276847528509437e+18
14254.0	1.6273095891353597e+18
14255.0	1.6268881555357696e+18
14256.0	1.6238706759303188e+18
14257.0	1.6261609387196408e+18
14258.0	1.625814985814835e+18
14259.0	1.625392496928358e+18
14260.0	1.6249805424558077e+18
14261.0	1.624655859705446e+18
14262.0	1.6243202667315197e+18
14263.0	1.6200100657233953e+18
14264.0	1.6230296340922365e+18
14265.0	1.6231248447930363e+18
14266.0	1.6228228599382013e+18
14267.0	1.6224513989541888e+18
14268.0	1.6220704621985787e+18
14269.0	1.6216901109678075e+18
14270.0	1.621331608705433e+18
14271.0	1.6209450599710715e+18
14272.0	1.6205822694522877e+18
14273.0	1.6202114174812157e+18
14274.0	1.61421920326124e+18
14275.0	1.6189455547236355e+18
14276.0	1.6190157774389243e+18
14277.0	1.6186733007732739e+18
14278.0	1.6183481482608635e+18
14279.0	1.6179734694068224e+18
14280.0	1.6175885614841853e+18
14281.0	1.6172295928152061e+18
14282.0	1.6168566671802363e+18
14283.0	1.6164860618342397e+18
14284.0	1.6161128308539387e+18
14285.0	1.6157419184848893e+18
14286.0	1.6153539604643835e+18
14287.0	1.6149967785689085e+18
14288.0	1.6146254266368e+18
14289.0	1.6127463214022602e+18
14290.0	1.6138660730634235e+18
14291.0	1.613509961554329e+18
14292.0	1.613139126360473e+18
14293.0	1.6127684253843456e+18
14294.0	1.6121631336300541e+18
14295.0	1.6119978277208061e+18
14296.0	1.6104329949741064e+18
14297.0	1.6112903140671488e+18
14298.0	1.6097211913863163e+18
14299.0	1.610474612536115e+18
14300.0	1.6101595850735613e+18
14301.0	1.6097885368090621e+18
14302.0	1.609426987804262e+18
14303.0	1.6089954794864635e+18
14304.0	1.6086670940045312e+18
14305.0	1.6083142943178747e+18
14306.0	1.6077290848911357e+18
14307.0	1.6075119608725496e+18
14308.0	1.6072016008314877e+18
14309.0	1.6068171492491261e+18
14310.0	1.6056337465081843e+18
14311.0	1.6041379603939328e+18
14312.0	1.605485945946112e+18
14313.0	1.6051928765038592e+18
14314.0	1.6049451021893632e+18
14315.0	1.6046160607182848e+18
14316.0	1.6041799235665915e+18
14317.0	1.6036568854691837e+18
14318.0	1.6035281371136e+18
14319.0	1.6031617126498301e+18
14320.0	1.6027919310651392e+18
14321.0	1.6024174082392061e+18
14322.0	1.6019798332801021e+18
14323.0	1.6016689414012923e+18
14324.0	1.6012965929025533e+18
14325.0	1.6009389982875648e+18
14326.0	1.6005878578675707e+18
14327.0	1.600207932778086e+18
14328.0	1.599839157826355e+18
14329.0	1.5994838616899581e+18
14330.0	1.5991149642645501e+18
14331.0	1.5987150675771387e+18
14332.0	1.598380244677427e+18
14333.0	1.5980149124104187e+18
14334.0	1.5976446862295037e+18
14335.0	1.5972268697976832e+18
14336.0	1.5965438508793853e+18
14337.0	1.5965393612963835e+18
14338.0	1.596172554312089e+18
14339.0	1.5957780481441792e+18
14340.0	1.5954473037856765e+18
14341.0	1.595048999256064e+18
14342.0	1.5947076751851515e+18
14343.0	1.5943162426032125e+18
14344.0	1.5939603038994432e+18
14345.0	1.5936188556771325e+18
14346.0	1.593247908075929e+18
14347.0	1.5927100506636288e+18
14348.0	1.5925196863045624e+18
14349.0	1.5921583755362304e+18
14350.0	1.5915373014548472e+18
14351.0	1.5911514842071032e+18
14352.0	1.5910474738565115e+18
14353.0	1.5906965230190587e+18
14354.0	1.590303766714777e+18
14355.0	1.5898854637436923e+18
14356.0	1.5895512431460347e+18
14357.0	1.5892413042130941e+18
14358.0	1.588876394731929e+18
14359.0	1.5884879132622848e+18
14360.0	1.588126889384345e+18
14361.0	1.587779928168857e+18
14362.0	1.587418917712691e+18
14363.0	1.5870568100265981e+18
14364.0	1.585778795531469e+18
14365.0	1.586232718209842e+18
14366.0	1.5858154235494397e+18
14367.0	1.5856007020281853e+18
14368.0	1.5852382302765053e+18
14369.0	1.5848779815059453e+18
14370.0	1.5845137062035453e+18
14371.0	1.5841536302383096e+18
14372.0	1.583767093248e+18
14373.0	1.583423049590374e+18
14374.0	1.5830609234493437e+18
14375.0	1.5826976598130685e+18
14376.0	1.5823371895832576e+18
14377.0	1.581976070075187e+18
14378.0	1.5816105599696893e+18
14379.0	1.5812521768255485e+18
14380.0	1.580887086150451e+18
14381.0	1.580506963089817e+18
14382.0	1.5801632902086653e+18
14383.0	1.5797517484556285e+18
14384.0	1.5794052653907965e+18
14385.0	1.579080431645491e+18
14386.0	1.5786892037455867e+18
14387.0	1.578354649281331e+18
14388.0	1.5779888858398715e+18
14389.0	1.5776344084316152e+18
14390.0	1.5772697858408443e+18
14391.0	1.5768985731596285e+18
14392.0	1.576521985058406e+18
14393.0	1.5761907055067133e+18
14394.0	1.5757674784227325e+18
14395.0	1.5752069700911101e+18
14396.0	1.5750963813941243e+18
14397.0	1.5747485427302397e+18
14398.0	1.574368010305536e+18
14399.0	1.5740182858825723e+18
14400.0	1.5734939844607997e+18
14401.0	1.573293575582515e+18
14402.0	1.5729387643076603e+18
14403.0	1.562194215750842e+18
14404.0	1.5448520504901578e+18
14405.0	1.5697526535487388e+18
14406.0	1.571502079292211e+18
14407.0	1.554171376225494e+18
14408.0	1.5705713447796733e+18
14409.0	1.5703935012569085e+18
14410.0	1.569998144484147e+18
14411.0	1.569688420299571e+18
14412.0	1.5693406168678397e+18
14413.0	1.5689871947464707e+18
14414.0	1.5686260836270077e+18
14415.0	1.5682697775022075e+18
14416.0	1.567861316046028e+18
14417.0	1.5673371136098301e+18
14418.0	1.566986466439987e+18
14419.0	1.5668199794147325e+18
14420.0	1.5664537126567933e+18
14421.0	1.566104496583475e+18
14422.0	1.5657387046207488e+18
14423.0	1.5653716191346685e+18
14424.0	1.509750509194412e+18
14425.0	1.564665004739788e+18
14426.0	1.564313813988147e+18
14427.0	1.563957507863347e+18
14428.0	1.5635489054785533e+18
14429.0	1.5632407365419003e+18
14430.0	1.5628862255792125e+18
14431.0	1.5610968448958472e+18
14432.0	1.5621167754772475e+18
14433.0	1.548934136725495e+18
14434.0	1.5614330569490424e+18
14435.0	1.5608839302807544e+18
14436.0	1.560744439473766e+18
14437.0	1.560387750828441e+18
14438.0	1.559557604114432e+18
14439.0	1.559587905444249e+18
14440.0	1.5593180321808381e+18
14441.0	1.5589502739283965e+18
14442.0	1.558585689925222e+18
14443.0	1.5581637731418107e+18
14444.0	1.5578842999554048e+18
14445.0	1.557536536788992e+18
14446.0	1.5435354483982403e+18
14447.0	1.556808957584998e+18
14448.0	1.5564707792420864e+18
14449.0	1.5561142634020864e+18
14450.0	1.5557505266483195e+18
14451.0	1.5553976732745728e+18
14452.0	1.5550423721050107e+18
14453.0	1.5544415934218237e+18
14454.0	1.5543306574364672e+18
14455.0	1.553968670546329e+18
14456.0	1.553564807725056e+18
14457.0	1.5531839196233725e+18
14458.0	1.552821419350425e+18
14459.0	1.5525218067939325e+18
14460.0	1.552196005003264e+18
14461.0	1.551733812835123e+18
14462.0	1.5497984334626819e+18
14463.0	1.5511055346171901e+18
14464.0	1.5507831587340285e+18
14465.0	1.5504012304449533e+18
14466.0	1.5500743096139768e+18
14467.0	1.549537373270835e+18
14468.0	1.5493553606098941e+18
14469.0	1.5488964970414077e+18
14470.0	1.5486152404369403e+18
14471.0	1.5482828703662077e+18
14472.0	1.547940994324889e+18
14473.0	1.5476041313157115e+18
14474.0	1.5472564671348733e+18
14475.0	1.5468894118477821e+18
14476.0	1.5456548721524744e+18
14477.0	1.546187870883021e+18
14478.0	1.5458348128272381e+18
14479.0	1.5454618385383421e+18
14480.0	1.5451078543802365e+18
14481.0	1.544786161329766e+18
14482.0	1.544427716109926e+18
14483.0	1.5440619325358075e+18
14484.0	1.543723576354406e+18
14485.0	1.5433045519630339e+18
14486.0	1.5425337865273347e+18
14487.0	1.5426643166232573e+18
14488.0	1.5419575629774843e+18
14489.0	1.5418147368599547e+18
14490.0	1.541580166214451e+18
14491.0	1.541266695677542e+18
14492.0	1.5408982126493693e+18
14493.0	1.5405109575942141e+18
14494.0	1.540167486039654e+18
14495.0	1.539863815074611e+18
14496.0	1.5392886283567104e+18
14497.0	1.5391581737582592e+18
14498.0	1.538805692838707e+18
14499.0	1.538461035134976e+18
14500.0	1.538109664867123e+18
14501.0	1.537369923859251e+18
14502.0	1.5365208792891397e+18
14503.0	1.536949352608563e+18
14504.0	1.5366975651839997e+18
14505.0	1.536007516612197e+18
14506.0	1.5351647349768187e+18
14507.0	1.535254531670016e+18
14508.0	1.535307151730278e+18
14509.0	1.5349564575842304e+18
14510.0	1.5346035303907325e+18
14511.0	1.534258756924211e+18
14512.0	1.533879960941363e+18
14513.0	1.5335583182225403e+18
14514.0	1.533076746692198e+18
14515.0	1.5328498264571901e+18
14516.0	1.5288733578297375e+18
14517.0	1.5321613616545787e+18
14518.0	1.531811925799731e+18
14519.0	1.5314608390668288e+18
14520.0	1.531112901417369e+18
14521.0	1.5307515570946048e+18
14522.0	1.530389251437363e+18
14523.0	1.5290390227714038e+18
14524.0	1.5288030696833016e+18
14525.0	1.529359281369907e+18
14526.0	1.5290109796548603e+18
14527.0	1.5286196578025467e+18
14528.0	1.5279213279969275e+18
14529.0	1.5279585985822712e+18
14530.0	1.5275923586678781e+18
14531.0	1.527276396714393e+18
14532.0	1.5255036523184125e+18
14533.0	1.5265820431089656e+18
14534.0	1.5262368770555901e+18
14535.0	1.5258680551276544e+18
14536.0	1.5255342153728e+18
14537.0	1.5251678848614397e+18
14538.0	1.5248431920447488e+18
14539.0	1.5244968784297981e+18
14540.0	1.5241508047290368e+18
14541.0	1.5237648868179965e+18
14542.0	1.523450243553689e+18
14543.0	1.5225455707684864e+18
14544.0	1.5227587118759936e+18
14545.0	1.522390282534912e+18
14546.0	1.4723795323453235e+18
14547.0	1.4767311126789885e+18
14548.0	1.521351103453593e+18
14549.0	1.520828936093696e+18
14550.0	1.5206673933139965e+18
14551.0	1.5203371656937472e+18
14552.0	1.519980490470195e+18
14553.0	1.519621412749312e+18
14554.0	1.5192967870414848e+18
14555.0	1.518949790593843e+18
14556.0	1.5185823460753405e+18
14557.0	1.5182599936802816e+18
14558.0	1.5179126532997115e+18
14559.0	1.514345934618614e+18
14560.0	1.5167411271499763e+18
14561.0	1.516866223105638e+18
14562.0	1.5164577733935104e+18
14563.0	1.516184660449689e+18
14564.0	1.515680771866624e+18
14565.0	1.5154984387608573e+18
14566.0	1.5151506487508992e+18
14567.0	1.514798783555174e+18
14568.0	1.5139897878773763e+18
14569.0	1.5141043561299963e+18
14570.0	1.5127383451369472e+18
14571.0	1.5134187384209403e+18
14572.0	1.512829537694515e+18
14573.0	1.5126149067702267e+18
14574.0	1.5119578120060925e+18
14575.0	1.5120055180197885e+18
14576.0	1.511660081853235e+18
14577.0	1.511342455599923e+18
14578.0	1.5110066881429504e+18
14579.0	1.5106686188519421e+18
14580.0	1.5103234007891963e+18
14581.0	1.5099410916573181e+18
14582.0	1.5096205897891837e+18
14583.0	1.5092951654858747e+18
14584.0	1.5088846504984576e+18
14585.0	1.5086026372415485e+18
14586.0	1.508253483243929e+18
14587.0	1.5078977072791547e+18
14588.0	1.507566270021632e+18
14589.0	1.5072422315163643e+18
14590.0	1.5069148996435963e+18
14591.0	1.506557697615462e+18
14592.0	1.5062418648465403e+18
14593.0	1.5057258815684603e+18
14594.0	1.5055942710198267e+18
14595.0	1.5052559131607037e+18
14596.0	1.5041620537769966e+18
14597.0	1.503750657985739e+18
14598.0	1.504218894984806e+18
14599.0	1.5039549323345915e+18
14600.0	1.5035992486445053e+18
14601.0	1.5032904824389624e+18
14602.0	1.5028461580058621e+18
14603.0	1.5026213332451323e+18
14604.0	1.5021669139611643e+18
14605.0	1.5017368870715387e+18
14606.0	1.501405637718835e+18
14607.0	1.5013123580755965e+18
14608.0	1.500979286717235e+18
14609.0	1.5005732613128192e+18
14610.0	1.4998672123101184e+18
14611.0	1.4999793545773053e+18
14612.0	1.4996747742871547e+18
14613.0	1.499352475579187e+18
14614.0	1.4990180268113915e+18
14615.0	1.4986018193145856e+18
14616.0	1.4983706175340541e+18
14617.0	1.4980412656844797e+18
14618.0	1.497538016313344e+18
14619.0	1.4970093846921193e+18
14620.0	1.4949692097953792e+18
14621.0	1.4967349329264637e+18
14622.0	1.4964024890359803e+18
14623.0	1.496079333012275e+18
14624.0	1.4956562602786813e+18
14625.0	1.4954200135892987e+18
14626.0	1.4950728023932925e+18
14627.0	1.4947209422307325e+18
14628.0	1.4944464636215293e+18
14629.0	1.4941195830558715e+18
14630.0	1.4937760158711805e+18
14631.0	1.4934577185292288e+18
14632.0	1.4872254072487972e+18
14633.0	1.4921587392249836e+18
14634.0	1.492447555642982e+18
14635.0	1.4882965184052972e+18
14636.0	1.4777393797398484e+18
14637.0	1.4915059713048576e+18
14638.0	1.4911282289311741e+18
14639.0	1.4908045796573181e+18
14640.0	1.4905201924243453e+18
14641.0	1.469408799096815e+18
14642.0	1.4898659028107264e+18
14643.0	1.4895393443676157e+18
14644.0	1.4891845632917504e+18
14645.0	1.4888462440202237e+18
14646.0	1.4883383205167101e+18
14647.0	1.488021999530803e+18
14648.0	1.4878921069690877e+18
