# Flux units: erg / (cm m2 s)
# Wavelength units: Angstrom
wave	flux
14000.0	2.1914937651625981e+18
14001.0	2.1910306183708672e+18
14002.0	2.1906043361558523e+18
14003.0	2.190136377658572e+18
14004.0	2.189667694385561e+18
14005.0	2.1891989238710267e+18
14006.0	2.1887256839061501e+18
14007.0	2.1882553883426816e+18
14008.0	2.187727191251353e+18
14009.0	2.1873234039275515e+18
14010.0	2.1868467934199805e+18
14011.0	2.1860114340249603e+18
14012.0	2.1859196542648317e+18
14013.0	2.1854523601453056e+18
14014.0	2.1849606971195387e+18
14015.0	2.184477763279257e+18
14016.0	2.1840117710716923e+18
14017.0	2.1835443712557053e+18
14018.0	2.183076872454144e+18
14019.0	2.1826098148933627e+18
14020.0	2.1821421801963515e+18
14021.0	2.1816746008641533e+18
14022.0	2.1812029899669501e+18
14023.0	2.180720314495795e+18
14024.0	2.1802574764048376e+18
14025.0	2.1798073621544955e+18
14026.0	2.1793409723269117e+18
14027.0	2.1788760303730683e+18
14028.0	2.1784096690667517e+18
14029.0	2.177942245762662e+18
14030.0	2.1760180601487368e+18
14031.0	2.176963243199692e+18
14032.0	2.1765429168963584e+18
14033.0	2.1760411254652928e+18
14034.0	2.1756108603391995e+18
14035.0	2.1751493661032443e+18
14036.0	2.1746797584056315e+18
14037.0	2.174219873104691e+18
14038.0	2.173755025103257e+18
14039.0	2.173290230788915e+18
14040.0	2.1728200526659581e+18
14041.0	2.172358449378099e+18
14042.0	2.1718887326285821e+18
14043.0	2.1714074345668605e+18
14044.0	2.1709609559392253e+18
14045.0	2.1705016058314752e+18
14046.0	2.1700358971588603e+18
14047.0	2.1695655948845053e+18
14048.0	2.1691092361543677e+18
14049.0	2.1686479516336125e+18
14050.0	2.1681845313732605e+18
14051.0	2.1677153112293373e+18
14052.0	2.167257704274329e+18
14053.0	2.1667945306390528e+18
14054.0	2.1663315079987195e+18
14055.0	2.1658685256237056e+18
14056.0	2.1654056321679355e+18
14057.0	2.164942901451161e+18
14058.0	2.1644802546204667e+18
14059.0	2.164017735296614e+18
14060.0	2.1635553149583355e+18
14061.0	2.1630889083535357e+18
14062.0	2.1626307745939453e+18
14063.0	2.162157850040729e+18
14064.0	2.161485040058368e+18
14065.0	2.161239624620441e+18
14066.0	2.1607832071700477e+18
14067.0	2.160300704504217e+18
14068.0	2.1598601297788925e+18
14069.0	2.1593952549339133e+18
14070.0	2.1589362957352957e+18
14071.0	2.1584746270162936e+18
14072.0	2.158015349050572e+18
14073.0	2.1575544235622392e+18
14074.0	2.1570935500832765e+18
14075.0	2.1566197078163453e+18
14076.0	2.156148066720153e+18
14077.0	2.155375318217523e+18
14078.0	2.1552255530434555e+18
14079.0	2.1547864899452925e+18
14080.0	2.1543312502554621e+18
14081.0	2.153871356565913e+18
14082.0	2.1534076880027645e+18
14083.0	2.1529506699280376e+18
14084.0	2.152491162114457e+18
14085.0	2.1516978195791867e+18
14086.0	2.1515438835892221e+18
14087.0	2.1511135077335037e+18
14088.0	2.150642561214054e+18
14089.0	2.1501765002199032e+18
14090.0	2.1497312698171387e+18
14091.0	2.1492776390623224e+18
14092.0	2.1488191798247421e+18
14093.0	2.148360546104115e+18
14094.0	2.147901838563737e+18
14095.0	2.1474424582569976e+18
14096.0	2.1469167022505984e+18
14097.0	2.1464983908909053e+18
14098.0	2.146036926853939e+18
14099.0	2.1456104718335992e+18
14100.0	2.145146132181811e+18
14101.0	2.144696048130457e+18
14102.0	2.1442383707111414e+18
14103.0	2.1437725194321917e+18
14104.0	2.1433238060793853e+18
14105.0	2.142866133693235e+18
14106.0	2.142409370632192e+18
14107.0	2.1419511345315835e+18
14108.0	2.1414872327651325e+18
14109.0	2.1410349643202555e+18
14110.0	2.1405761426948093e+18
14111.0	2.1401149252829181e+18
14112.0	2.1396630997565435e+18
14113.0	2.1392013085638653e+18
14114.0	2.1387457383628795e+18
14115.0	2.138294969801113e+18
14116.0	2.1377814477406203e+18
14117.0	2.134906369789133e+18
14118.0	2.1369257359048701e+18
14119.0	2.136428137100083e+18
14120.0	2.1359824335798267e+18
14121.0	2.1355467712233467e+18
14122.0	2.1350756770643965e+18
14123.0	2.1346082940256253e+18
14124.0	2.1341506535161848e+18
14125.0	2.1334362544930808e+18
14126.0	2.1332786140938235e+18
14127.0	2.1328352828719101e+18
14128.0	2.132380306584371e+18
14129.0	2.1319185523015675e+18
14130.0	2.1314578281398267e+18
14131.0	2.1310184613740544e+18
14132.0	2.130559819264819e+18
14133.0	2.129752328503295e+18
14134.0	2.1296549334089725e+18
14135.0	2.1291797003108347e+18
14136.0	2.1286732330696701e+18
14137.0	2.128286481330995e+18
14138.0	2.1278114042609661e+18
14139.0	2.1273870866579453e+18
14140.0	2.1269258306584568e+18
14141.0	2.1264539194490875e+18
14142.0	2.1258294664364027e+18
14143.0	2.1255668577075195e+18
14144.0	2.1251230013587456e+18
14145.0	2.1246709409513467e+18
14146.0	2.1242142533877755e+18
14147.0	2.1237629747986427e+18
14148.0	2.1233048729157627e+18
14149.0	2.1228520927657981e+18
14150.0	2.1224098956836856e+18
14151.0	2.1219419707408381e+18
14152.0	2.1214911367479293e+18
14153.0	2.1209174247473147e+18
14154.0	2.120447724775014e+18
14155.0	2.1199185646714875e+18
14156.0	2.1195457648656381e+18
14157.0	2.1191097116000248e+18
14158.0	2.11865497019351e+18
14159.0	2.1182069715501053e+18
14160.0	2.1177506295971835e+18
14161.0	2.117264991269683e+18
14162.0	2.1167819433443325e+18
14163.0	2.116398416186572e+18
14164.0	2.1158648856182784e+18
14165.0	2.1154187559567357e+18
14166.0	2.1150463302828027e+18
14167.0	2.1145884616032253e+18
14168.0	2.114140518324633e+18
14169.0	2.1136980997832701e+18
14170.0	2.113167272024473e+18
14171.0	2.1122981669371896e+18
14172.0	2.1118495290818555e+18
14173.0	2.1113563376517115e+18
14174.0	2.110944024146739e+18
14175.0	2.1104991611650045e+18
14176.0	2.1100481627553787e+18
14177.0	2.1095701043740664e+18
14178.0	2.1090609125130235e+18
14179.0	2.1086041242861565e+18
14180.0	2.1081632089833464e+18
14181.0	2.1077138698403837e+18
14182.0	2.1072641028784128e+18
14183.0	2.1068153710706683e+18
14184.0	2.106362652996403e+18
14185.0	2.105915384161894e+18
14186.0	2.104991400801075e+18
14187.0	2.1049986905014267e+18
14188.0	2.104570136651366e+18
14189.0	2.1041178296188925e+18
14190.0	2.1036183903535101e+18
14191.0	2.1030790800343035e+18
14192.0	2.1026300764356603e+18
14193.0	2.1021076943273984e+18
14194.0	2.1017350220283901e+18
14195.0	2.101291561621913e+18
14196.0	2.100843469026099e+18
14197.0	2.100395508970291e+18
14198.0	2.0999445726363643e+18
14199.0	2.0994976980664315e+18
14200.0	2.098774662132531e+18
14201.0	2.098588181698969e+18
14202.0	2.098157094489292e+18
14203.0	2.0977004018925565e+18
14204.0	2.0972606073077752e+18
14205.0	2.0968135481884672e+18
14206.0	2.0962850189082621e+18
14207.0	2.0959211026382843e+18
14208.0	2.0954746508541947e+18
14209.0	2.0949398619947e+18
14210.0	2.094518965266022e+18
14211.0	2.0941314400976893e+18
14212.0	2.0936879109046267e+18
14213.0	2.0931511993761787e+18
14214.0	2.0926526006493184e+18
14215.0	2.0921993742254075e+18
14216.0	2.0917604872880125e+18
14217.0	2.0913141630107645e+18
14218.0	2.0908596262862843e+18
14219.0	2.0904217711476733e+18
14220.0	2.0899734956802043e+18
14221.0	2.089524164925849e+18
14222.0	2.0890440848900093e+18
14223.0	2.0886373917523968e+18
14224.0	2.0881917805068283e+18
14225.0	2.0869423376105475e+18
14226.0	2.0872952765480955e+18
14227.0	2.0868555121623037e+18
14228.0	2.0846197702918147e+18
14229.0	2.0855979457380334e+18
14230.0	2.085520921539379e+18
14231.0	2.0850412290572283e+18
14232.0	2.0846317223804925e+18
14233.0	2.0841836868272125e+18
14234.0	2.0837426423398397e+18
14235.0	2.083296584820326e+18
14236.0	2.0828536646402043e+18
14237.0	2.0824086624075773e+18
14238.0	2.0818952192e+18
14239.0	2.0813722549223424e+18
14240.0	2.0799912887189501e+18
14241.0	2.080480545891942e+18
14242.0	2.0800413838082045e+18
14243.0	2.0794987297898493e+18
14244.0	2.0791574644391933e+18
14245.0	2.0787022817918973e+18
14246.0	2.0782552981700603e+18
14247.0	2.0778228654276605e+18
14248.0	2.0773734121996288e+18
14249.0	2.0769378035302397e+18
14250.0	2.0764942340718587e+18
14251.0	2.0760525805715453e+18
14252.0	2.0756092459941883e+18
14253.0	2.0751654584319997e+18
14254.0	2.074720989714841e+18
14255.0	2.074257519122841e+18
14256.0	2.072964403455591e+18
14257.0	2.0733414193758203e+18
14258.0	2.07295047836631e+18
14259.0	2.072495132980019e+18
14260.0	2.072039270855475e+18
14261.0	2.0716091718238203e+18
14262.0	2.0711980981551101e+18
14263.0	2.0694895366766592e+18
14264.0	2.0700475485585403e+18
14265.0	2.069868185020006e+18
14266.0	2.0693138842583035e+18
14267.0	2.0688511568969725e+18
14268.0	2.0684093020700667e+18
14269.0	2.067965719189913e+18
14270.0	2.067525339080294e+18
14271.0	2.0670820330242045e+18
14272.0	2.0666401798750203e+18
14273.0	2.0661914799439867e+18
14274.0	2.0638160174186504e+18
14275.0	2.0651254170517501e+18
14276.0	2.0648592750411773e+18
14277.0	2.0644225943076861e+18
14278.0	2.0639934868094973e+18
14279.0	2.063552024569446e+18
14280.0	2.0631073025163261e+18
14281.0	2.062671266027929e+18
14282.0	2.0622307164684283e+18
14283.0	2.0617899907481597e+18
14284.0	2.0613492465729533e+18
14285.0	2.0609081249103867e+18
14286.0	2.0604661274771456e+18
14287.0	2.0600276113162237e+18
14288.0	2.059586925861273e+18
14289.0	2.0585416851718134e+18
14290.0	2.0587051657199608e+18
14291.0	2.0582665488957437e+18
14292.0	2.0578273230585853e+18
14293.0	2.0573858658516987e+18
14294.0	2.056855974261555e+18
14295.0	2.056497829353881e+18
14296.0	2.0555772198912e+18
14297.0	2.055626076821913e+18
14298.0	2.0543217304862712e+18
14299.0	2.054145972371456e+18
14300.0	2.0537158750175227e+18
14301.0	2.05327797625815e+18
14302.0	2.052840230171443e+18
14303.0	2.0523772041756667e+18
14304.0	2.0519500747112445e+18
14305.0	2.051518952269414e+18
14306.0	2.051049178477363e+18
14307.0	2.0506201531875325e+18
14308.0	2.050190973547315e+18
14309.0	2.0497371515322368e+18
14310.0	2.0491757103874043e+18
14311.0	2.0486892382322683e+18
14312.0	2.0483518433853435e+18
14313.0	2.0479427544612856e+18
14314.0	2.0475503186018296e+18
14315.0	2.0471292004139003e+18
14316.0	2.0466599970471933e+18
14317.0	2.046219407222374e+18
14318.0	2.045822058994073e+18
14319.0	2.0453864654241787e+18
14320.0	2.04494930486231e+18
14321.0	2.0445126224510973e+18
14322.0	2.0440487525613563e+18
14323.0	2.0436252654305277e+18
14324.0	2.0432014746320893e+18
14325.0	2.0427572743503867e+18
14326.0	2.0423274940858363e+18
14327.0	2.0418858540072955e+18
14328.0	2.041449431642931e+18
14329.0	2.041016826095206e+18
14330.0	2.04058001449943e+18
14331.0	2.0401390572535805e+18
14332.0	2.0397066496770045e+18
14333.0	2.039270119938457e+18
14334.0	2.038780775523942e+18
14335.0	2.0382456511201277e+18
14336.0	2.037726934833561e+18
14337.0	2.037380238698086e+18
14338.0	2.0369427157483515e+18
14339.0	2.0364992821854203e+18
14340.0	2.0360699985264635e+18
14341.0	2.035628474210713e+18
14342.0	2.0351984154443773e+18
14343.0	2.0347586275704827e+18
14344.0	2.0343208781283325e+18
14345.0	2.033889163450777e+18
14346.0	2.0334482145935355e+18
14347.0	2.0329839856713725e+18
14348.0	2.032578149849497e+18
14349.0	2.0321458949455864e+18
14350.0	2.031641672495923e+18
14351.0	2.031198673462886e+18
14352.0	2.0308346514964477e+18
14353.0	2.03040429745111e+18
14354.0	2.0299605551874043e+18
14355.0	2.0295084176048125e+18
14356.0	2.0290793872818173e+18
14357.0	2.0286646612131837e+18
14358.0	2.028229654845849e+18
14359.0	2.0277837952974843e+18
14360.0	2.0273536006356984e+18
14361.0	2.02692235404247e+18
14362.0	2.0264904179056635e+18
14363.0	2.0260551934345208e+18
14364.0	2.025395652552294e+18
14365.0	2.025137119009177e+18
14366.0	2.0247147207196672e+18
14367.0	2.024318365702553e+18
14368.0	2.0238838307749883e+18
14369.0	2.0234500256563197e+18
14370.0	2.023016126585241e+18
14371.0	2.0225824506511355e+18
14372.0	2.0221445888016381e+18
14373.0	2.0217143807180792e+18
14374.0	2.0212807735705597e+18
14375.0	2.0207592789770235e+18
14376.0	2.0202737597677563e+18
14377.0	2.019839345636147e+18
14378.0	2.0194040607670262e+18
14379.0	2.0189719350476797e+18
14380.0	2.0185372961013752e+18
14381.0	2.0180962751021053e+18
14382.0	2.0176696791531512e+18
14383.0	2.0172317535502333e+18
14384.0	2.016789950732697e+18
14385.0	2.0163702703521792e+18
14386.0	2.0159263183732733e+18
14387.0	2.015503450321715e+18
14388.0	2.0150689338490877e+18
14389.0	2.014636960802406e+18
14390.0	2.0142028151062525e+18
14391.0	2.0137709997654016e+18
14392.0	2.0133368205148152e+18
14393.0	2.0129053423960061e+18
14394.0	2.012446121472819e+18
14395.0	2.0120239446425597e+18
14396.0	2.0116063379259392e+18
14397.0	2.011174369912422e+18
14398.0	2.010740776186675e+18
14399.0	2.0103082377478136e+18
14400.0	2.0098619101151227e+18
14401.0	2.0094386763202552e+18
14402.0	2.0090085252792315e+18
14403.0	2.0072539120205804e+18
14404.0	2.0040890982596595e+18
14405.0	2.006700416565246e+18
14406.0	2.0072786986795003e+18
14407.0	2.0050092899696643e+18
14408.0	2.0063811645997053e+18
14409.0	2.0059739228471293e+18
14410.0	2.005535254013542e+18
14411.0	2.0048543255363581e+18
14412.0	2.0044214767190016e+18
14413.0	2.0039921964154877e+18
14414.0	2.0035588241489917e+18
14415.0	2.0031280204742653e+18
14416.0	2.002688989252812e+18
14417.0	2.0022381821034493e+18
14418.0	2.0017991206830075e+18
14419.0	2.0014010090913787e+18
14420.0	2.0009676485689344e+18
14421.0	2.0005388044730365e+18
14422.0	2.0001023300993021e+18
14423.0	1.9996463253684221e+18
14424.0	1.9917162839801815e+18
14425.0	1.9986554999013373e+18
14426.0	1.998243490063974e+18
14427.0	1.997814714754662e+18
14428.0	1.9973688283627517e+18
14429.0	1.9969497804832765e+18
14430.0	1.9965213977608187e+18
14431.0	1.995717076215398e+18
14432.0	1.99565218194391e+18
14433.0	1.9938477302874102e+18
14434.0	1.994784028124774e+18
14435.0	1.9943132107898877e+18
14436.0	1.9939360086425597e+18
14437.0	1.9935068541681661e+18
14438.0	1.9930051214573563e+18
14439.0	1.992632264608972e+18
14440.0	1.9922151612088312e+18
14441.0	1.991780988669132e+18
14442.0	1.9913479603355645e+18
14443.0	1.9908915680509952e+18
14444.0	1.9904909348438016e+18
14445.0	1.990062578964889e+18
14446.0	1.987848927654708e+18
14447.0	1.9891888953753597e+18
14448.0	1.9887730687213565e+18
14449.0	1.9883432045707261e+18
14450.0	1.9879090219646973e+18
14451.0	1.9874814814584827e+18
14452.0	1.9870495352553464e+18
14453.0	1.9865968306028544e+18
14454.0	1.986190860563251e+18
14455.0	1.9857569094828027e+18
14456.0	1.9853203763888125e+18
14457.0	1.9848890995965947e+18
14458.0	1.9844607068078077e+18
14459.0	1.9840263748845565e+18
14460.0	1.9835860081967101e+18
14461.0	1.9830968281989115e+18
14462.0	1.9825498506919936e+18
14463.0	1.9822730232725501e+18
14464.0	1.981874904970035e+18
14465.0	1.981440843159961e+18
14466.0	1.9810295882973184e+18
14467.0	1.980572887311974e+18
14468.0	1.9801707944869883e+18
14469.0	1.9797042553421821e+18
14470.0	1.9792950774988797e+18
14471.0	1.9788807909933056e+18
14472.0	1.9784546262188027e+18
14473.0	1.9780310954672125e+18
14474.0	1.9776024560533501e+18
14475.0	1.9771699864010747e+18
14476.0	1.9766561019527165e+18
14477.0	1.976314214167347e+18
14478.0	1.9758871803330555e+18
14479.0	1.9754559840714752e+18
14480.0	1.974962379921817e+18
14481.0	1.9744680677736443e+18
14482.0	1.9740362541105152e+18
14483.0	1.973602460735897e+18
14484.0	1.9731728834756605e+18
14485.0	1.9727248110125056e+18
14486.0	1.972116650354278e+18
14487.0	1.971889171437977e+18
14488.0	1.9714186795810808e+18
14489.0	1.970998544538009e+18
14490.0	1.9705977418809341e+18
14491.0	1.9701769760145403e+18
14492.0	1.9697488818601981e+18
14493.0	1.9693116910993405e+18
14494.0	1.9688753240997888e+18
14495.0	1.9684617187491835e+18
14496.0	1.9679399255212032e+18
14497.0	1.9676037218566144e+18
14498.0	1.967175592470118e+18
14499.0	1.966746984932966e+18
14500.0	1.9663177214066688e+18
14501.0	1.9658435654057984e+18
14502.0	1.9652707946070016e+18
14503.0	1.9650080785039355e+18
14504.0	1.9645978386628603e+18
14505.0	1.964130096591667e+18
14506.0	1.9636580763303933e+18
14507.0	1.9631462387023872e+18
14508.0	1.9628868193222653e+18
14509.0	1.9624582822494203e+18
14510.0	1.962027533939507e+18
14511.0	1.9616003390439421e+18
14512.0	1.9611603531988984e+18
14513.0	1.960742456236441e+18
14514.0	1.9602885016813563e+18
14515.0	1.9598833738579965e+18
14516.0	1.9579424177389576e+18
14517.0	1.9590237093101563e+18
14518.0	1.958597631777177e+18
14519.0	1.9581690359840763e+18
14520.0	1.957740108002099e+18
14521.0	1.9573105726849021e+18
14522.0	1.956877158475366e+18
14523.0	1.9563224517050363e+18
14524.0	1.9559234022670333e+18
14525.0	1.9555909415993344e+18
14526.0	1.9551663538831352e+18
14527.0	1.9547201202028536e+18
14528.0	1.9542204745777147e+18
14529.0	1.9538714698973181e+18
14530.0	1.9534378711384064e+18
14531.0	1.953019526224281e+18
14532.0	1.952463940327833e+18
14533.0	1.952162257462886e+18
14534.0	1.951735247116697e+18
14535.0	1.9512982543269883e+18
14536.0	1.950874292400947e+18
14537.0	1.9504395678908416e+18
14538.0	1.9500193472839675e+18
14539.0	1.9495904880885755e+18
14540.0	1.9491614409883645e+18
14541.0	1.9487153364926461e+18
14542.0	1.9483012345364475e+18
14543.0	1.947806556644966e+18
14544.0	1.947443527889715e+18
14545.0	1.946906957289881e+18
14546.0	1.938112849012322e+18
14547.0	1.938442432387476e+18
14548.0	1.9455877983502336e+18
14549.0	1.945087154480742e+18
14550.0	1.944736846210662e+18
14551.0	1.9443122970820603e+18
14552.0	1.943881568904806e+18
14553.0	1.943448397964902e+18
14554.0	1.9430231743922173e+18
14555.0	1.9425927398162427e+18
14556.0	1.9421606023528445e+18
14557.0	1.9417325249757181e+18
14558.0	1.9413002834935803e+18
14559.0	1.939743948406782e+18
14560.0	1.9404234894082043e+18
14561.0	1.9400061897146363e+18
14562.0	1.9395568841261048e+18
14563.0	1.9391461409685504e+18
14564.0	1.9386868680359933e+18
14565.0	1.9382907881652221e+18
14566.0	1.9378606589345787e+18
14567.0	1.9374261625946107e+18
14568.0	1.9369591436214264e+18
14569.0	1.9365655887216637e+18
14570.0	1.9358012774809597e+18
14571.0	1.935703902519296e+18
14572.0	1.9352336103112696e+18
14573.0	1.9348040011743224e+18
14574.0	1.9343365141168125e+18
14575.0	1.9339673700663293e+18
14576.0	1.9335374371291133e+18
14577.0	1.9331184311926781e+18
14578.0	1.9326916540497915e+18
14579.0	1.9322621908746235e+18
14580.0	1.931831350290022e+18
14581.0	1.9313933189906427e+18
14582.0	1.93096187945943e+18
14583.0	1.9305365283799037e+18
14584.0	1.9300844897828861e+18
14585.0	1.929673125868339e+18
14586.0	1.9292394985881592e+18
14587.0	1.9288082654167037e+18
14588.0	1.9283780338450432e+18
14589.0	1.9279553016889341e+18
14590.0	1.927532985607782e+18
14591.0	1.9271063997251581e+18
14592.0	1.9266819982360573e+18
14593.0	1.9261830455099384e+18
14594.0	1.925841343951667e+18
14595.0	1.9254142262312955e+18
14596.0	1.9248004988927997e+18
14597.0	1.9243424959954936e+18
14598.0	1.924126074942259e+18
14599.0	1.9237233848483837e+18
14600.0	1.923294133066137e+18
14601.0	1.9228718035632128e+18
14602.0	1.9224389799116797e+18
14603.0	1.922005763673292e+18
14604.0	1.921473637357977e+18
14605.0	1.9210516282998781e+18
14606.0	1.9206178181480443e+18
14607.0	1.9202350409318397e+18
14608.0	1.919813959653785e+18
14609.0	1.9193771832901627e+18
14610.0	1.918917957333811e+18
14611.0	1.9185246675140603e+18
14612.0	1.9181154477277181e+18
14613.0	1.9176940057395197e+18
14614.0	1.9172677772115963e+18
14615.0	1.9168425670606845e+18
14616.0	1.916420172126617e+18
14617.0	1.9159943009533947e+18
14618.0	1.9155454970036221e+18
14619.0	1.9149815560536056e+18
14620.0	1.9141875642400765e+18
14621.0	1.9142885211373565e+18
14622.0	1.9138605008027643e+18
14623.0	1.9133858733621243e+18
14624.0	1.9128509486071803e+18
14625.0	1.9124619352997888e+18
14626.0	1.9120339418087421e+18
14627.0	1.9116020023164928e+18
14628.0	1.911179993258393e+18
14629.0	1.9107510065561592e+18
14630.0	1.910317573891686e+18
14631.0	1.9098925852000256e+18
14632.0	1.9088749648412672e+18
14633.0	1.908937864301772e+18
14634.0	1.9085966476050427e+18
14635.0	1.9080432561684475e+18
14636.0	1.9074284131450877e+18
14637.0	1.90731552596951e+18
14638.0	1.9068725118369787e+18
14639.0	1.9064363763630077e+18
14640.0	1.9060172764741627e+18
14641.0	1.9032719870656494e+18
14642.0	1.9051529143058427e+18
14643.0	1.9047255499603965e+18
14644.0	1.9042836297023483e+18
14645.0	1.9038454725738493e+18
14646.0	1.903400812596428e+18
14647.0	1.9029495054860288e+18
14648.0	1.9025501960011773e+18
