# Flux units: erg / (cm m2 s)
# Wavelength units: Angstrom
wave	flux
14000.0	1.3181783960977405e+18
14001.0	1.3179219110526976e+18
14002.0	1.3177988233297917e+18
14003.0	1.3176098347024381e+18
14004.0	1.3174198713188352e+18
14005.0	1.3172299339399165e+18
14006.0	1.3170382198538237e+18
14007.0	1.3168491305631741e+18
14008.0	1.316640687076147e+18
14009.0	1.3164702951538683e+18
14010.0	1.316280738617753e+18
14011.0	1.3159443017498621e+18
14012.0	1.3159013185224701e+18
14013.0	1.3157119423414267e+18
14014.0	1.3155223841275901e+18
14015.0	1.3153324769476603e+18
14016.0	1.3151434237280253e+18
14017.0	1.3149540039262208e+18
14018.0	1.3147623837925376e+18
14019.0	1.314575264147046e+18
14020.0	1.3143858426675197e+18
14021.0	1.3141964597755901e+18
14022.0	1.314007253883289e+18
14023.0	1.3138180656070653e+18
14024.0	1.3136275267649533e+18
14025.0	1.3134400170491901e+18
14026.0	1.3132506777780221e+18
14027.0	1.313061993657139e+18
14028.0	1.3128730201292797e+18
14029.0	1.3126840415682555e+18
14030.0	1.3124354770468861e+18
14031.0	1.3123050920738813e+18
14032.0	1.3121174875668477e+18
14033.0	1.3119220179009533e+18
14034.0	1.3117400002068477e+18
14035.0	1.3115514058440701e+18
14036.0	1.3113627695382525e+18
14037.0	1.3111741760143357e+18
14038.0	1.3109856210780155e+18
14039.0	1.3107971173122045e+18
14040.0	1.3106086454231037e+18
14041.0	1.310420211282739e+18
14042.0	1.3102296640520192e+18
14043.0	1.310034725385011e+18
14044.0	1.3098506742923261e+18
14045.0	1.3096647508623357e+18
14046.0	1.3094786881814525e+18
14047.0	1.3092903094059005e+18
14048.0	1.3091022837907453e+18
14049.0	1.3089142699196416e+18
14050.0	1.308726215783219e+18
14051.0	1.3085365862662144e+18
14052.0	1.3083501989462013e+18
14053.0	1.308162291610419e+18
14054.0	1.3079743985352701e+18
14055.0	1.3077865482420224e+18
14056.0	1.3075987289866237e+18
14057.0	1.3074109726457853e+18
14058.0	1.307223228887859e+18
14059.0	1.3070335297454077e+18
14060.0	1.3068479091441664e+18
14061.0	1.3066587149959165e+18
14062.0	1.3064727278125053e+18
14063.0	1.3062825169649661e+18
14064.0	1.3060817272438781e+18
14065.0	1.3059083800150013e+18
14066.0	1.3057228978257917e+18
14067.0	1.3055355323940864e+18
14068.0	1.3053482231660541e+18
14069.0	1.3051607352606717e+18
14070.0	1.3049736860794877e+18
14071.0	1.304785839141683e+18
14072.0	1.3045993503195133e+18
14073.0	1.3044122382237693e+18
14074.0	1.3042251772985344e+18
14075.0	1.3040380895297536e+18
14076.0	1.303851116684902e+18
14077.0	1.3036510987157501e+18
14078.0	1.3034764218925056e+18
14079.0	1.303289332446003e+18
14080.0	1.303103570916147e+18
14081.0	1.3029167868149757e+18
14082.0	1.302729904567091e+18
14083.0	1.302543039935283e+18
14084.0	1.3023565804732413e+18
14085.0	1.302123337744384e+18
14086.0	1.3019816843542525e+18
14087.0	1.3017954631286781e+18
14088.0	1.301610264474419e+18
14089.0	1.3014239518130173e+18
14090.0	1.3012373497446397e+18
14091.0	1.301051152007168e+18
14092.0	1.3008648158576637e+18
14093.0	1.3006785166180352e+18
14094.0	1.3004922568048635e+18
14095.0	1.3003060297072637e+18
14096.0	1.300117667708928e+18
14097.0	1.2999335973224448e+18
14098.0	1.2997466127335421e+18
14099.0	1.2995615457804285e+18
14100.0	1.2993727240863744e+18
14101.0	1.2991895605084157e+18
14102.0	1.2990035942965245e+18
14103.0	1.298813733253939e+18
14104.0	1.298631872426803e+18
14105.0	1.2984460404326397e+18
14106.0	1.2982602579312637e+18
14107.0	1.2980744930459645e+18
14108.0	1.2978888489566203e+18
14109.0	1.2977022997364733e+18
14110.0	1.2975173552570365e+18
14111.0	1.2973311717801981e+18
14112.0	1.297146061206323e+18
14113.0	1.2969609179168765e+18
14114.0	1.296775490253619e+18
14115.0	1.2965896943304701e+18
14116.0	1.296403723085414e+18
14117.0	1.2961124613881856e+18
14118.0	1.2960338978799616e+18
14119.0	1.2958475113988093e+18
14120.0	1.2956624637394941e+18
14121.0	1.2954781970595837e+18
14122.0	1.2952907645190141e+18
14123.0	1.295107523765862e+18
14124.0	1.2949220726145021e+18
14125.0	1.2946500678057981e+18
14126.0	1.2945529663127547e+18
14127.0	1.2943681627619325e+18
14128.0	1.2941830060507136e+18
14129.0	1.2939964442476544e+18
14130.0	1.2938111835176957e+18
14131.0	1.2936288126631933e+18
14132.0	1.2934438740557821e+18
14133.0	1.293156229526323e+18
14134.0	1.2930745026740221e+18
14135.0	1.2928878309801981e+18
14136.0	1.2927048217526272e+18
14137.0	1.2925208436408317e+18
14138.0	1.2923355099299837e+18
14139.0	1.2921519210496e+18
14140.0	1.291967337280307e+18
14141.0	1.2917827811934205e+18
14142.0	1.2915923237208064e+18
14143.0	1.2914143661129725e+18
14144.0	1.2912303259254781e+18
14145.0	1.291046087766835e+18
14146.0	1.2908615853670397e+18
14147.0	1.290677534274355e+18
14148.0	1.2904934940868603e+18
14149.0	1.2903095621124093e+18
14150.0	1.2901255269580797e+18
14151.0	1.2899410371411965e+18
14152.0	1.2897575908671483e+18
14153.0	1.2895736496652285e+18
14154.0	1.289385771689574e+18
14155.0	1.2891978534486013e+18
14156.0	1.2890210417246208e+18
14157.0	1.2888384183730173e+18
14158.0	1.2886539780489216e+18
14159.0	1.2884710166364157e+18
14160.0	1.288286039441408e+18
14161.0	1.288092798628659e+18
14162.0	1.2879005912924157e+18
14163.0	1.2877362525896701e+18
14164.0	1.2875504986095616e+18
14165.0	1.287365636338483e+18
14166.0	1.2871862870605821e+18
14167.0	1.287003013591859e+18
14168.0	1.286819437294387e+18
14169.0	1.286636404578713e+18
14170.0	1.2864524868648957e+18
14171.0	1.2862692360454141e+18
14172.0	1.2860867586555901e+18
14173.0	1.2858993655414781e+18
14174.0	1.2857196891078653e+18
14175.0	1.2855374893809661e+18
14176.0	1.2853544776368125e+18
14177.0	1.2851715053191165e+18
14178.0	1.2849885220962301e+18
14179.0	1.2848047486664701e+18
14180.0	1.2846228073086973e+18
14181.0	1.2844399851470845e+18
14182.0	1.2842570237345792e+18
14183.0	1.2840744532312061e+18
14184.0	1.2838907955642365e+18
14185.0	1.2837090362392573e+18
14186.0	1.2835062877782013e+18
14187.0	1.2833392873701373e+18
14188.0	1.2831610504216573e+18
14189.0	1.2829786166525947e+18
14190.0	1.2827961250021373e+18
14191.0	1.2826136425791485e+18
14192.0	1.2824299169644544e+18
14193.0	1.282246328922931e+18
14194.0	1.2820664721342461e+18
14195.0	1.2818844871557117e+18
14196.0	1.2817021884432381e+18
14197.0	1.2815199803277312e+18
14198.0	1.2813366951149565e+18
14199.0	1.2811553317322752e+18
14200.0	1.280961768796979e+18
14201.0	1.280790955766579e+18
14202.0	1.280609544568832e+18
14203.0	1.2804265982558205e+18
14204.0	1.2802450763284477e+18
14205.0	1.280063160136499e+18
14206.0	1.2798590351048701e+18
14207.0	1.2796998998556667e+18
14208.0	1.2795182051229693e+18
14209.0	1.279312010621747e+18
14210.0	1.2791368799748093e+18
14211.0	1.2789729195982845e+18
14212.0	1.2787912944910333e+18
14213.0	1.2786098681937917e+18
14214.0	1.2784280828641277e+18
14215.0	1.278243813667635e+18
14216.0	1.2780653493878781e+18
14217.0	1.2778839037968381e+18
14218.0	1.2777024724664317e+18
14219.0	1.277521097339699e+18
14220.0	1.2773397926772733e+18
14221.0	1.2771584016121856e+18
14222.0	1.2769771766415357e+18
14223.0	1.2767959701258237e+18
14224.0	1.2766147988422653e+18
14225.0	1.276392276754432e+18
14226.0	1.2762523279294461e+18
14227.0	1.2760714477305853e+18
14228.0	1.2757540890738688e+18
14229.0	1.2756827691286525e+18
14230.0	1.275528496755507e+18
14231.0	1.2753476073291773e+18
14232.0	1.2751667371966461e+18
14233.0	1.2749858981019645e+18
14234.0	1.2748050875285501e+18
14235.0	1.2746237795106813e+18
14236.0	1.2744435779502077e+18
14237.0	1.2742625861828605e+18
14238.0	1.2740820801159165e+18
14239.0	1.2739002570375165e+18
14240.0	1.2733179861401597e+18
14241.0	1.273540082086707e+18
14242.0	1.2733600340377597e+18
14243.0	1.273150297027379e+18
14244.0	1.2729993180217341e+18
14245.0	1.2728179504447485e+18
14246.0	1.2726368907296765e+18
14247.0	1.2724583006207997e+18
14248.0	1.2722734458994685e+18
14249.0	1.2720907730550781e+18
14250.0	1.2719066582089725e+18
14251.0	1.2717269440266237e+18
14252.0	1.271546789442355e+18
14253.0	1.2713665409056765e+18
14254.0	1.271186129630003e+18
14255.0	1.270998661018419e+18
14256.0	1.270789306528563e+18
14257.0	1.2706440644919296e+18
14258.0	1.2704667343519744e+18
14259.0	1.2702868825964544e+18
14260.0	1.2701011420381181e+18
14261.0	1.269924252300083e+18
14262.0	1.2697650004492285e+18
14263.0	1.2695301471076352e+18
14264.0	1.2693935579201533e+18
14265.0	1.2692259082338301e+18
14266.0	1.269046300586803e+18
14267.0	1.2688667457880061e+18
14268.0	1.2686871901503485e+18
14269.0	1.2685070984806397e+18
14270.0	1.2683281644388352e+18
14271.0	1.2681486658437117e+18
14272.0	1.267969262039859e+18
14273.0	1.267789527724851e+18
14274.0	1.2675270850904061e+18
14275.0	1.267423364985651e+18
14276.0	1.2672516367581184e+18
14277.0	1.2670710753263616e+18
14278.0	1.2668912344760317e+18
14279.0	1.2667106462007293e+18
14280.0	1.2665303607541757e+18
14281.0	1.2663526329942013e+18
14282.0	1.2661736343601147e+18
14283.0	1.2659946030104573e+18
14284.0	1.2658156052152317e+18
14285.0	1.2656366225195008e+18
14286.0	1.2654575425159165e+18
14287.0	1.2652787854737405e+18
14288.0	1.2650996526219261e+18
14289.0	1.2646635347640312e+18
14290.0	1.2647420320022528e+18
14291.0	1.264563399111475e+18
14292.0	1.2643848945663997e+18
14293.0	1.264205717254963e+18
14294.0	1.2640010108927997e+18
14295.0	1.2638487492689917e+18
14296.0	1.2634638958723072e+18
14297.0	1.2634910640570365e+18
14298.0	1.2632728394530813e+18
14299.0	1.2631308396134395e+18
14300.0	1.2629531361804283e+18
14301.0	1.2627747331375101e+18
14302.0	1.2625956824940541e+18
14303.0	1.2624119736565757e+18
14304.0	1.2622365519249405e+18
14305.0	1.262061069795328e+18
14306.0	1.2618820912939005e+18
14307.0	1.2617041395580925e+18
14308.0	1.261526781735731e+18
14309.0	1.2613484416073725e+18
14310.0	1.261166126117683e+18
14311.0	1.2609788328280061e+18
14312.0	1.2608062447681533e+18
14313.0	1.260575408730931e+18
14314.0	1.2604582794362875e+18
14315.0	1.2602806758277117e+18
14316.0	1.2600928783826941e+18
14317.0	1.2599239804715005e+18
14318.0	1.2597473079984125e+18
14319.0	1.2595696381198333e+18
14320.0	1.2593918281515003e+18
14321.0	1.2592115737427965e+18
14322.0	1.2590257778196477e+18
14323.0	1.2588519096582141e+18
14324.0	1.2586778871463933e+18
14325.0	1.258500336386048e+18
14326.0	1.2583228149858301e+18
14327.0	1.2581453187514365e+18
14328.0	1.2579664291692544e+18
14329.0	1.257790441206579e+18
14330.0	1.257613056540672e+18
14331.0	1.2574356358037501e+18
14332.0	1.2572583702560765e+18
14333.0	1.257081094642073e+18
14334.0	1.2569038475493373e+18
14335.0	1.2567235117711357e+18
14336.0	1.2565455810068477e+18
14337.0	1.2563721968680957e+18
14338.0	1.2561947954249725e+18
14339.0	1.2560176808722432e+18
14340.0	1.255841049503334e+18
14341.0	1.2556638292541437e+18
14342.0	1.2554870821224445e+18
14343.0	1.2553100564889597e+18
14344.0	1.2551331625566208e+18
14345.0	1.2549563684487165e+18
14346.0	1.2547773698146301e+18
14347.0	1.2545961171615741e+18
14348.0	1.2544224402604027e+18
14349.0	1.2542457543655421e+18
14350.0	1.254066061154713e+18
14351.0	1.2538892242649085e+18
14352.0	1.253714437550899e+18
14353.0	1.253538339697459e+18
14354.0	1.2533618853281792e+18
14355.0	1.253184936031027e+18
14356.0	1.2530087047987195e+18
14357.0	1.2528330356031485e+18
14358.0	1.252656601366528e+18
14359.0	1.2524800782106621e+18
14360.0	1.2523034980122621e+18
14361.0	1.2521273808650237e+18
14362.0	1.2519511873814525e+18
14363.0	1.2517748563247104e+18
14364.0	1.2515897885327357e+18
14365.0	1.2514206892949501e+18
14366.0	1.251244311262003e+18
14367.0	1.2510702023475197e+18
14368.0	1.2508940004753408e+18
14369.0	1.2507180267732987e+18
14370.0	1.2505420060950525e+18
14371.0	1.250366019810099e+18
14372.0	1.2501900276531197e+18
14373.0	1.2500140707282941e+18
14374.0	1.249835694528921e+18
14375.0	1.249657325879296e+18
14376.0	1.2494830609367037e+18
14377.0	1.2493071107227645e+18
14378.0	1.2491309046562813e+18
14379.0	1.2489557178056701e+18
14380.0	1.2487799513022461e+18
14381.0	1.2486037645295616e+18
14382.0	1.2484283386036224e+18
14383.0	1.2482526668914685e+18
14384.0	1.248074575065907e+18
14385.0	1.2479019433852925e+18
14386.0	1.2477264293789693e+18
14387.0	1.2475508709130237e+18
14388.0	1.2473751270588416e+18
14389.0	1.2471999922175997e+18
14390.0	1.247024203064934e+18
14391.0	1.2468493366591483e+18
14392.0	1.2466738419466237e+18
14393.0	1.2464987624701947e+18
14394.0	1.2463168295010301e+18
14395.0	1.2461463931191293e+18
14396.0	1.245973102932787e+18
14397.0	1.245797948797747e+18
14398.0	1.2456227963404285e+18
14399.0	1.2454477185417216e+18
14400.0	1.2452680756625408e+18
14401.0	1.245096308847411e+18
14402.0	1.2449222737526781e+18
14403.0	1.2446782147526653e+18
14404.0	1.2438388112097272e+18
14405.0	1.2439524525211638e+18
14406.0	1.2442208334512125e+18
14407.0	1.243943421345792e+18
14408.0	1.243869009359667e+18
14409.0	1.2436901508153341e+18
14410.0	1.2435195391115261e+18
14411.0	1.243345396642611e+18
14412.0	1.2431700436975613e+18
14413.0	1.242996384412467e+18
14414.0	1.2428212864811005e+18
14415.0	1.2426469200363517e+18
14416.0	1.2424726341222397e+18
14417.0	1.2422979682041853e+18
14418.0	1.2421222176391165e+18
14419.0	1.2419487194152957e+18
14420.0	1.2417734721667067e+18
14421.0	1.241600121582387e+18
14422.0	1.2414257106780157e+18
14423.0	1.2412497948573693e+18
14424.0	1.240659846705971e+18
14425.0	1.2409017221513216e+18
14426.0	1.2407287171776512e+18
14427.0	1.2405546057465853e+18
14428.0	1.2403766212952061e+18
14429.0	1.2402053536022528e+18
14430.0	1.2400321674346493e+18
14431.0	1.239840539751219e+18
14432.0	1.2396837029806077e+18
14433.0	1.2394223324102653e+18
14434.0	1.2393331396968445e+18
14435.0	1.239143731639091e+18
14436.0	1.2389646944174077e+18
14437.0	1.2387908128342013e+18
14438.0	1.238613729319321e+18
14439.0	1.2384425371238397e+18
14440.0	1.2382691068477437e+18
14441.0	1.2380917716746237e+18
14442.0	1.237915881858662e+18
14443.0	1.237731107667968e+18
14444.0	1.2375695791489021e+18
14445.0	1.2373969827004416e+18
14446.0	1.2369594077413379e+18
14447.0	1.237047724684083e+18
14448.0	1.2368763387117565e+18
14449.0	1.2367028471988221e+18
14450.0	1.23652928438272e+18
14451.0	1.2363557953863675e+18
14452.0	1.2361823374278653e+18
14453.0	1.2360078870970365e+18
14454.0	1.2358355070746621e+18
14455.0	1.235660855417241e+18
14456.0	1.2354886465224701e+18
14457.0	1.2353152321847293e+18
14458.0	1.2351420770549757e+18
14459.0	1.2349685503098877e+18
14460.0	1.23479535910912e+18
14461.0	1.2346182823051264e+18
14462.0	1.2344368174202877e+18
14463.0	1.234275152166912e+18
14464.0	1.2341030489686013e+18
14465.0	1.233922838180659e+18
14466.0	1.233757109485568e+18
14467.0	1.2335815325646845e+18
14468.0	1.2334109728702461e+18
14469.0	1.2332325127847933e+18
14470.0	1.2330582470033408e+18
14471.0	1.2328896200441853e+18
14472.0	1.23271953514496e+18
14473.0	1.2325467214315517e+18
14474.0	1.232373965599539e+18
14475.0	1.2322010822606845e+18
14476.0	1.2320235138842621e+18
14477.0	1.2318556200894461e+18
14478.0	1.2316830479679483e+18
14479.0	1.231510148690739e+18
14480.0	1.2313351421951997e+18
14481.0	1.231165183963955e+18
14482.0	1.230991829185331e+18
14483.0	1.2308178964316157e+18
14484.0	1.2306433773142013e+18
14485.0	1.2304640255197181e+18
14486.0	1.2302343286554624e+18
14487.0	1.2301266063458301e+18
14488.0	1.2299542766551037e+18
14489.0	1.2297803187355645e+18
14490.0	1.2296089646399485e+18
14491.0	1.229436895834931e+18
14492.0	1.2292649427927037e+18
14493.0	1.229092603035648e+18
14494.0	1.2289163625758717e+18
14495.0	1.2287480837439488e+18
14496.0	1.2285473821032445e+18
14497.0	1.2284035283812352e+18
14498.0	1.2282317221396477e+18
14499.0	1.228059631524249e+18
14500.0	1.2278874897383421e+18
14501.0	1.2277136375152637e+18
14502.0	1.2274863632809981e+18
14503.0	1.2273686400729085e+18
14504.0	1.227198228017971e+18
14505.0	1.2270258060525565e+18
14506.0	1.226851838066688e+18
14507.0	1.2266302345314304e+18
14508.0	1.2265118393958397e+18
14509.0	1.2263400809693181e+18
14510.0	1.2261682839551997e+18
14511.0	1.2259964668084221e+18
14512.0	1.2258216255684608e+18
14513.0	1.225652937372467e+18
14514.0	1.2254746542866432e+18
14515.0	1.225308984311808e+18
14516.0	1.224444291632333e+18
14517.0	1.224964815663923e+18
14518.0	1.2247946040967165e+18
14519.0	1.2246231745036288e+18
14520.0	1.2244516702519293e+18
14521.0	1.2242799789342717e+18
14522.0	1.224108649165619e+18
14523.0	1.2239321721470973e+18
14524.0	1.223761302074163e+18
14525.0	1.223593156621107e+18
14526.0	1.2234229626699773e+18
14527.0	1.2232455637434363e+18
14528.0	1.2230459727544317e+18
14529.0	1.222906566672384e+18
14530.0	1.2227344307585021e+18
14531.0	1.222566047068979e+18
14532.0	1.2223887228010493e+18
14533.0	1.2222237532749824e+18
14534.0	1.2220494547779581e+18
14535.0	1.2218779303935997e+18
14536.0	1.2217068187287552e+18
14537.0	1.2215333213437952e+18
14538.0	1.221364697740083e+18
14539.0	1.2211936171130877e+18
14540.0	1.2210225515855872e+18
14541.0	1.2208504836194301e+18
14542.0	1.2206804616347645e+18
14543.0	1.2205069449560061e+18
14544.0	1.2203383884611581e+18
14545.0	1.220167127479091e+18
14546.0	1.2192761155420155e+18
14547.0	1.2191464813494264e+18
14548.0	1.219652230525747e+18
14549.0	1.2194585115623424e+18
14550.0	1.2193129683746813e+18
14551.0	1.2191423449268224e+18
14552.0	1.2189710629732347e+18
14553.0	1.2187975689437181e+18
14554.0	1.218630078640947e+18
14555.0	1.2184593343971325e+18
14556.0	1.2182885255610365e+18
14557.0	1.2181178786250752e+18
14558.0	1.2179466889461757e+18
14559.0	1.2172675656974326e+18
14560.0	1.2176051979419648e+18
14561.0	1.2174335636668413e+18
14562.0	1.2172600788647933e+18
14563.0	1.2170942033690621e+18
14564.0	1.216920849429299e+18
14565.0	1.216753333121843e+18
14566.0	1.216582851441459e+18
14567.0	1.2164123211071488e+18
14568.0	1.2162415500197888e+18
14569.0	1.216071276376883e+18
14570.0	1.215762179660185e+18
14571.0	1.2157298919079933e+18
14572.0	1.2155518722244608e+18
14573.0	1.2153817554485245e+18
14574.0	1.215216854709043e+18
14575.0	1.215049111909171e+18
14576.0	1.2148786251956224e+18
14577.0	1.2147087625945085e+18
14578.0	1.214537964663603e+18
14579.0	1.2143683000336381e+18
14580.0	1.2141981253763067e+18
14581.0	1.214027266208563e+18
14582.0	1.213857669526323e+18
14583.0	1.213687577916211e+18
14584.0	1.213514948752179e+18
14585.0	1.2133472571228157e+18
14586.0	1.2131764273151997e+18
14587.0	1.2130067652018173e+18
14588.0	1.2128370913443837e+18
14589.0	1.2126684283142141e+18
14590.0	1.2124980120649725e+18
14591.0	1.2123277778485245e+18
14592.0	1.212159093846835e+18
14593.0	1.2119655384612861e+18
14594.0	1.2118224246145021e+18
14595.0	1.2116528522592253e+18
14596.0	1.2114751899303933e+18
14597.0	1.2113048676335613e+18
14598.0	1.2111475124469755e+18
14599.0	1.2109805632094208e+18
14600.0	1.2108120729845757e+18
14601.0	1.210643901526835e+18
14602.0	1.2104748861751293e+18
14603.0	1.2103072901758973e+18
14604.0	1.210129352700723e+18
14605.0	1.2099668334870525e+18
14606.0	1.209782399873843e+18
14607.0	1.2096309167128573e+18
14608.0	1.2094633903390717e+18
14609.0	1.2092952348196861e+18
14610.0	1.2091236567482363e+18
14611.0	1.2089574540967933e+18
14612.0	1.2087930130530301e+18
14613.0	1.2086249506471933e+18
14614.0	1.2084542668013568e+18
14615.0	1.2082875197292541e+18
14616.0	1.2081204085915645e+18
14617.0	1.2079489789984765e+18
14618.0	1.2077817663586301e+18
14619.0	1.2076093594927101e+18
14620.0	1.2074251766988797e+18
14621.0	1.2072796343500797e+18
14622.0	1.2071115325177853e+18
14623.0	1.206943402164224e+18
14624.0	1.2067630244429824e+18
14625.0	1.2066071263576061e+18
14626.0	1.206437610206003e+18
14627.0	1.2062689463369728e+18
14628.0	1.2061028871307264e+18
14629.0	1.2059347962036221e+18
14630.0	1.2057653102510077e+18
14631.0	1.205597335925555e+18
14632.0	1.2053944297586685e+18
14633.0	1.2052580343480317e+18
14634.0	1.2050939011661824e+18
14635.0	1.2049137600036861e+18
14636.0	1.204728137724723e+18
14637.0	1.2045901132464125e+18
14638.0	1.2044215240359933e+18
14639.0	1.204251169862451e+18
14640.0	1.2040850150260733e+18
14641.0	1.2037830133940221e+18
14642.0	1.2037485034995712e+18
14643.0	1.2035814712147965e+18
14644.0	1.2034133064679421e+18
14645.0	1.2032391883259904e+18
14646.0	1.2030746273251325e+18
