# Flux units: erg / (cm m2 s)
# Wavelength units: Angstrom
wave	flux
14000.0	1.5126967611293676e+18
14001.0	1.5123550092394493e+18
14002.0	1.5121166335213563e+18
14003.0	1.5118531137896448e+18
14004.0	1.511574316725043e+18
14005.0	1.5112980832190464e+18
14006.0	1.5110091627823101e+18
14007.0	1.5107292500328448e+18
14008.0	1.510354814448435e+18
14009.0	1.5101724243001344e+18
14010.0	1.5098857603989501e+18
14011.0	1.5088851538149373e+18
14012.0	1.5093385496887293e+18
14013.0	1.5090594355347453e+18
14014.0	1.5087742882938877e+18
14015.0	1.5084980463992824e+18
14016.0	1.508220792838553e+18
14017.0	1.5079416082202621e+18
14018.0	1.507657950796185e+18
14019.0	1.5073829739036672e+18
14020.0	1.5071031450402813e+18
14021.0	1.506823244034867e+18
14022.0	1.5065317365514235e+18
14023.0	1.5062201886834685e+18
14024.0	1.5059482535002107e+18
14025.0	1.5057057472315392e+18
14026.0	1.5054279685439483e+18
14027.0	1.505151053882982e+18
14028.0	1.5048724078133248e+18
14029.0	1.5045932634603515e+18
14030.0	1.5008972998180884e+18
14031.0	1.5037768975515635e+18
14032.0	1.5037520454615035e+18
14033.0	1.5034053291933693e+18
14034.0	1.503196410911129e+18
14035.0	1.5029230999961597e+18
14036.0	1.5026374209175547e+18
14037.0	1.502364943830221e+18
14038.0	1.5020887908548605e+18
14039.0	1.5018069168488448e+18
14040.0	1.5015240026554365e+18
14041.0	1.5012498142920701e+18
14042.0	1.5009612713426941e+18
14043.0	1.5006540469633021e+18
14044.0	1.5004050076467197e+18
14045.0	1.5001366225223677e+18
14046.0	1.4998629123096573e+18
14047.0	1.4995698244124672e+18
14048.0	1.499302727778304e+18
14049.0	1.4990338510815232e+18
14050.0	1.4987565287342077e+18
14051.0	1.4984704688127997e+18
14052.0	1.4982014780309504e+18
14053.0	1.4979247730851837e+18
14054.0	1.4976477074292736e+18
14055.0	1.4973706468065272e+18
14056.0	1.497093574439731e+18
14057.0	1.4968167386316797e+18
14058.0	1.4965397451177981e+18
14059.0	1.4962592971751421e+18
14060.0	1.4959862664396797e+18
14061.0	1.495701711434547e+18
14062.0	1.4954328498372605e+18
14063.0	1.4951371161731067e+18
14064.0	1.4941173097431045e+18
14065.0	1.494593515919769e+18
14066.0	1.494326298489651e+18
14067.0	1.4940105949052925e+18
14068.0	1.4937742878179328e+18
14069.0	1.4934907058913277e+18
14070.0	1.493219539104563e+18
14071.0	1.492942525458022e+18
14072.0	1.4926698252337147e+18
14073.0	1.492393836675072e+18
14074.0	1.4921179823341565e+18
14075.0	1.4917827517480952e+18
14076.0	1.4911554952626173e+18
14077.0	1.4902653985226757e+18
14078.0	1.4905872207577085e+18
14079.0	1.4903646726651904e+18
14080.0	1.4900991212126205e+18
14081.0	1.4898235705393155e+18
14082.0	1.4895434044538875e+18
14083.0	1.4892698670465021e+18
14084.0	1.488996983950541e+18
14085.0	1.4880890899398653e+18
14086.0	1.4883810369863677e+18
14087.0	1.4881685334130688e+18
14088.0	1.4878726537871357e+18
14089.0	1.4875905834876925e+18
14090.0	1.4873313285242875e+18
14091.0	1.4870710954491904e+18
14092.0	1.4867962309640187e+18
14093.0	1.4865213765451776e+18
14094.0	1.486246570780262e+18
14095.0	1.485971815346995e+18
14096.0	1.485548086624256e+18
14097.0	1.4853852939419645e+18
14098.0	1.4850791131054077e+18
14099.0	1.4848734428921853e+18
14100.0	1.4845851348238336e+18
14101.0	1.4843248480616445e+18
14102.0	1.484050317443072e+18
14103.0	1.4837577815162875e+18
14104.0	1.483502083322675e+18
14105.0	1.483227348022067e+18
14106.0	1.4829536378093565e+18
14107.0	1.4826749430857725e+18
14108.0	1.482391179965235e+18
14109.0	1.4821260311658493e+18
14110.0	1.4818492909879293e+18
14111.0	1.4815709703962616e+18
14112.0	1.4813011709526013e+18
14113.0	1.4810164045545472e+18
14114.0	1.4807485848223741e+18
14115.0	1.4804840467136507e+18
14116.0	1.480097774803353e+18
14117.0	1.4738697970778107e+18
14118.0	1.4796679039418363e+18
14119.0	1.479301258018816e+18
14120.0	1.4790495846793216e+18
14121.0	1.4788337407623165e+18
14122.0	1.4784212561297405e+18
14123.0	1.4782209865023485e+18
14124.0	1.4779264641531904e+18
14125.0	1.4772663729782781e+18
14126.0	1.477466979827712e+18
14127.0	1.4772116071120899e+18
14128.0	1.4769374388813821e+18
14129.0	1.476653908964147e+18
14130.0	1.4763742713610235e+18
14131.0	1.4761210780057597e+18
14132.0	1.4758435828531197e+18
14133.0	1.475001955490201e+18
14134.0	1.4753003214995453e+18
14135.0	1.4749871042985981e+18
14136.0	1.474595225442713e+18
14137.0	1.4744712736931835e+18
14138.0	1.474150505067315e+18
14139.0	1.473941645505331e+18
14140.0	1.473660799942656e+18
14141.0	1.4733569746272253e+18
14142.0	1.4726972525510656e+18
14143.0	1.4728469606825981e+18
14144.0	1.472582065219174e+18
14145.0	1.4723088683892736e+18
14146.0	1.4720277543911421e+18
14147.0	1.4717605923258365e+18
14148.0	1.4714768577265664e+18
14149.0	1.4712085179006968e+18
14150.0	1.470952910304051e+18
14151.0	1.470653772542771e+18
14152.0	1.4704101992431616e+18
14153.0	1.4701388244189181e+18
14154.0	1.469843339057561e+18
14155.0	1.4685510823837699e+18
14156.0	1.4690322797821944e+18
14157.0	1.4690532949229568e+18
14158.0	1.4687771989901307e+18
14159.0	1.4685116408266747e+18
14160.0	1.4682275304177664e+18
14161.0	1.467915586607513e+18
14162.0	1.4675890365530107e+18
14163.0	1.4674247389544445e+18
14164.0	1.4669763208806397e+18
14165.0	1.4667889613209597e+18
14166.0	1.4666129129603072e+18
14167.0	1.4663328408272893e+18
14168.0	1.4660577179729912e+18
14169.0	1.4658059859132413e+18
14170.0	1.465521805040025e+18
14171.0	1.4652603723939837e+18
14172.0	1.4649951279644672e+18
14173.0	1.4646702774419453e+18
14174.0	1.4644427129618432e+18
14175.0	1.4641835922161664e+18
14176.0	1.4639118885584893e+18
14177.0	1.4636434262589437e+18
14178.0	1.4633733785124864e+18
14179.0	1.463094168728371e+18
14180.0	1.4628358197346301e+18
14181.0	1.4625661159211003e+18
14182.0	1.4622956235784192e+18
14183.0	1.4620269347864576e+18
14184.0	1.4617520468131837e+18
14185.0	1.4614876479553536e+18
14186.0	1.4601813051310077e+18
14187.0	1.4609209907740672e+18
14188.0	1.460678643888947e+18
14189.0	1.4604007444054013e+18
14190.0	1.4601308778528765e+18
14191.0	1.4598515959267325e+18
14192.0	1.4595863699521536e+18
14193.0	1.459150348563251e+18
14194.0	1.4590473867886587e+18
14195.0	1.4587887257387008e+18
14196.0	1.4585196611371003e+18
14197.0	1.4582508465160187e+18
14198.0	1.4579771379810301e+18
14199.0	1.4577100128255997e+18
14200.0	1.4568045817102339e+18
14201.0	1.4570888934457341e+18
14202.0	1.4569050403241981e+18
14203.0	1.4566266509459453e+18
14204.0	1.4563680469385213e+18
14205.0	1.456099878240256e+18
14206.0	1.4557021625909245e+18
14207.0	1.455565726914969e+18
14208.0	1.4552958251302907e+18
14209.0	1.454889095082803e+18
14210.0	1.454648791662592e+18
14211.0	1.454481601671987e+18
14212.0	1.4542173420650493e+18
14213.0	1.4539410246729723e+18
14214.0	1.453681211028275e+18
14215.0	1.4533961074081787e+18
14216.0	1.453146613429043e+18
14217.0	1.4528790956867581e+18
14218.0	1.4526011710373885e+18
14219.0	1.4523443101827072e+18
14220.0	1.452069611791974e+18
14221.0	1.4517969568661504e+18
14222.0	1.4514721617084413e+18
14223.0	1.4512683923537915e+18
14224.0	1.451007275119411e+18
14225.0	1.4485499045478413e+18
14226.0	1.4504232702967808e+18
14227.0	1.4502042605191163e+18
14228.0	1.4443579124482056e+18
14229.0	1.447789324559971e+18
14230.0	1.4493966103740413e+18
14231.0	1.449061269058355e+18
14232.0	1.4488631133601787e+18
14233.0	1.4485916429058048e+18
14234.0	1.4483301381177341e+18
14235.0	1.4480607077728253e+18
14236.0	1.447796770288435e+18
14237.0	1.4475288096276475e+18
14238.0	1.4472633168953341e+18
14239.0	1.4469801275555837e+18
14240.0	1.4448255538561021e+18
14241.0	1.4464502258991101e+18
14242.0	1.4461894744080381e+18
14243.0	1.4457690172424192e+18
14244.0	1.4456653189480448e+18
14245.0	1.4453789184491515e+18
14246.0	1.445108830437376e+18
14247.0	1.4448630945546237e+18
14248.0	1.4445811953827837e+18
14249.0	1.4443334294568957e+18
14250.0	1.44406753574912e+18
14251.0	1.4437996539412475e+18
14252.0	1.4435308711968763e+18
14253.0	1.4432640631308288e+18
14254.0	1.4429970570936315e+18
14255.0	1.4426948675567613e+18
14256.0	1.440518500253697e+18
14257.0	1.4419741401677816e+18
14258.0	1.4419372722356221e+18
14259.0	1.441653166859878e+18
14260.0	1.4412994410708992e+18
14261.0	1.4409327968255997e+18
14262.0	1.4406989727662077e+18
14263.0	1.4377033505177613e+18
14264.0	1.4393703581876214e+18
14265.0	1.4398966443540477e+18
14266.0	1.4396391493206013e+18
14267.0	1.4393764315398141e+18
14268.0	1.4391090765365245e+18
14269.0	1.4388409732694013e+18
14270.0	1.4385820957933563e+18
14271.0	1.4383160779341821e+18
14272.0	1.4380525330366464e+18
14273.0	1.4377855806865403e+18
14274.0	1.4329465735741448e+18
14275.0	1.4368455113310208e+18
14276.0	1.436973659062272e+18
14277.0	1.4367044937973757e+18
14278.0	1.4364583401619453e+18
14279.0	1.4361924749754365e+18
14280.0	1.4359236637097981e+18
14281.0	1.4356663414816763e+18
14282.0	1.4354025650585597e+18
14283.0	1.4351385352994813e+18
14284.0	1.4348745340616701e+18
14285.0	1.4346100529954813e+18
14286.0	1.4343369819947008e+18
14287.0	1.4340827266416637e+18
14288.0	1.4338188948537341e+18
14289.0	1.4323358040588278e+18
14290.0	1.433289629053747e+18
14291.0	1.4330270840782845e+18
14292.0	1.432764569301811e+18
14293.0	1.4324985782861821e+18
14294.0	1.432091239225753e+18
14295.0	1.4319597360513021e+18
14296.0	1.4307477717778437e+18
14297.0	1.431427973801574e+18
14298.0	1.4304926960189437e+18
14299.0	1.430896954782515e+18
14300.0	1.4306516098088957e+18
14301.0	1.4303925410725888e+18
14302.0	1.4301306084655101e+18
14303.0	1.4298343698071547e+18
14304.0	1.429582387766886e+18
14305.0	1.4293347023716347e+18
14306.0	1.4290245621121021e+18
14307.0	1.4287774538530813e+18
14308.0	1.4285449082175485e+18
14309.0	1.4282741038186493e+18
14310.0	1.427855064327782e+18
14311.0	1.4267562640539645e+18
14312.0	1.4273580560809981e+18
14313.0	1.4270644128579581e+18
14314.0	1.4269437813194747e+18
14315.0	1.4267061924528125e+18
14316.0	1.4263931749007357e+18
14317.0	1.4261068683542525e+18
14318.0	1.4259251006406653e+18
14319.0	1.4256638257004541e+18
14320.0	1.4254010391330813e+18
14321.0	1.4251374724251645e+18
14322.0	1.4248402204229632e+18
14323.0	1.4245929460695037e+18
14324.0	1.4243526963363837e+18
14325.0	1.4240841467953147e+18
14326.0	1.4238311363117053e+18
14327.0	1.4235631739731965e+18
14328.0	1.4233006155759613e+18
14329.0	1.4230464357203965e+18
14330.0	1.4227846255869947e+18
14331.0	1.4225167857221632e+18
14332.0	1.4222620169863163e+18
14333.0	1.4220006967476221e+18
14334.0	1.4217394268405757e+18
14335.0	1.4214582859988987e+18
14336.0	1.4209870072905725e+18
14337.0	1.420947889533747e+18
14338.0	1.420685082833715e+18
14339.0	1.4204123943534587e+18
14340.0	1.4201630547247101e+18
14341.0	1.4198900793540603e+18
14342.0	1.4196420466704381e+18
14343.0	1.4193777316986877e+18
14344.0	1.4191144669806587e+18
14345.0	1.4188608340623357e+18
14346.0	1.4185954201829373e+18
14347.0	1.418228739027763e+18
14348.0	1.4180768817348608e+18
14349.0	1.4178196165492736e+18
14350.0	1.4173852191948797e+18
14351.0	1.4171109872107517e+18
14352.0	1.4170289080369147e+18
14353.0	1.4167749982945275e+18
14354.0	1.4164960183582717e+18
14355.0	1.4161987781001213e+18
14356.0	1.4159488814678016e+18
14357.0	1.415736592642867e+18
14358.0	1.4154764216434685e+18
14359.0	1.415204813615923e+18
14360.0	1.4149437282582525e+18
14361.0	1.4146904526946301e+18
14362.0	1.414038243455795e+18
14363.0	1.4137183740887037e+18
14364.0	1.413104252485632e+18
14365.0	1.4130753805746173e+18
14366.0	1.412834092331827e+18
14367.0	1.412680376123392e+18
14368.0	1.4124201933799421e+18
14369.0	1.412161153164902e+18
14370.0	1.411901992153907e+18
14371.0	1.4116431566209021e+18
14372.0	1.4113750902636541e+18
14373.0	1.4111104061931517e+18
14374.0	1.4108559662907387e+18
14375.0	1.4105947651702781e+18
14376.0	1.4103388522283003e+18
14377.0	1.410078942953472e+18
14378.0	1.4098174952079357e+18
14379.0	1.4095612651765757e+18
14380.0	1.4092991614418941e+18
14381.0	1.4090330982842365e+18
14382.0	1.4087822621278203e+18
14383.0	1.4085185645576187e+18
14384.0	1.408248045371392e+18
14385.0	1.4080070675070976e+18
14386.0	1.407735051793203e+18
14387.0	1.4074897705730045e+18
14388.0	1.4072291566551037e+18
14389.0	1.406972032398131e+18
14390.0	1.406711983872409e+18
14391.0	1.4064548419993597e+18
14392.0	1.406194441990963e+18
14393.0	1.4059388394274813e+18
14394.0	1.4056428742377467e+18
14395.0	1.405399592022835e+18
14396.0	1.4051632866131965e+18
14397.0	1.40490596941824e+18
14398.0	1.4046467765305341e+18
14399.0	1.4043891690897405e+18
14400.0	1.4041062943227901e+18
14401.0	1.4038649330991101e+18
14402.0	1.4036140315115517e+18
14403.0	1.401142084894718e+18
14404.0	1.3965972545208312e+18
14405.0	1.4005877790998508e+18
14406.0	1.4025834583031805e+18
14407.0	1.3994861728366597e+18
14408.0	1.4019713021509624e+18
14409.0	1.4017869213859837e+18
14410.0	1.401512907505664e+18
14411.0	1.4012905590620157e+18
14412.0	1.4010339305717757e+18
14413.0	1.4007797356167165e+18
14414.0	1.4005136279994365e+18
14415.0	1.400257513730867e+18
14416.0	1.3999809404862464e+18
14417.0	1.3996980783022077e+18
14418.0	1.3994096276275197e+18
14419.0	1.3992275931561981e+18
14420.0	1.3989662049697792e+18
14421.0	1.3987146457153533e+18
14422.0	1.3984532306853885e+18
14423.0	1.3981796110696445e+18
14424.0	1.3863455752716257e+18
14425.0	1.3976696751390717e+18
14426.0	1.397430603166515e+18
14427.0	1.397172389229363e+18
14428.0	1.396897758786355e+18
14429.0	1.3966527434850301e+18
14430.0	1.396400981226291e+18
14431.0	1.3951777233698813e+18
14432.0	1.3958811777761277e+18
14433.0	1.3934672190898168e+18
14434.0	1.3953570474819581e+18
14435.0	1.394997713908531e+18
14436.0	1.3948646420643837e+18
14437.0	1.3946087635156987e+18
14438.0	1.3942213599821821e+18
14439.0	1.3940659475972093e+18
14440.0	1.3938394283376635e+18
14441.0	1.3935691339661312e+18
14442.0	1.3933080553193467e+18
14443.0	1.3930061627391997e+18
14444.0	1.3928076110987261e+18
14445.0	1.3925598393008125e+18
14446.0	1.3893356610387976e+18
14447.0	1.3920030529945595e+18
14448.0	1.391792674255667e+18
14449.0	1.3915369760620544e+18
14450.0	1.391276425058713e+18
14451.0	1.3910232702910464e+18
14452.0	1.3907667852460027e+18
14453.0	1.390482616955699e+18
14454.0	1.3902551883710461e+18
14455.0	1.3899953168449533e+18
14456.0	1.3897310882758653e+18
14457.0	1.3894807059431421e+18
14458.0	1.3892305333256192e+18
14459.0	1.388974961799987e+18
14460.0	1.3887165431808e+18
14461.0	1.3883815256653821e+18
14462.0	1.3873327760211965e+18
14463.0	1.3879252743094267e+18
14464.0	1.3876912346628093e+18
14465.0	1.3874108454404093e+18
14466.0	1.3871871875350525e+18
14467.0	1.386892896711475e+18
14468.0	1.3866702932541437e+18
14469.0	1.3863249510399997e+18
14470.0	1.3861318553501693e+18
14471.0	1.3858988416303101e+18
14472.0	1.3856495867265021e+18
14473.0	1.3854002504531965e+18
14474.0	1.3851481157402621e+18
14475.0	1.3848852855521275e+18
14476.0	1.3845027113402365e+18
14477.0	1.384381372642099e+18
14478.0	1.3841287639728125e+18
14479.0	1.3838692875501565e+18
14480.0	1.3836021053521917e+18
14481.0	1.3833691637743613e+18
14482.0	1.3831095866884093e+18
14483.0	1.3828499877920765e+18
14484.0	1.3825909098283008e+18
14485.0	1.3823159765565437e+18
14486.0	1.381757265064755e+18
14487.0	1.3818310252560381e+18
14488.0	1.3815222699556861e+18
14489.0	1.381242953636249e+18
14490.0	1.3810604242370557e+18
14491.0	1.3808259240558592e+18
14492.0	1.3805717072904187e+18
14493.0	1.380306589528883e+18
14494.0	1.3800398485716987e+18
14495.0	1.3798127932801021e+18
14496.0	1.3794084749574144e+18
14497.0	1.3793046013411325e+18
14498.0	1.3790526872485883e+18
14499.0	1.3787995484192763e+18
14500.0	1.3785457351458813e+18
14501.0	1.3782304627359741e+18
14502.0	1.3776996794368e+18
14503.0	1.3777419303387133e+18
14504.0	1.3775244841975803e+18
14505.0	1.377219858608947e+18
14506.0	1.3769179215691773e+18
14507.0	1.3764909036732413e+18
14508.0	1.3765191497940992e+18
14509.0	1.3762659623108603e+18
14510.0	1.376009063707443e+18
14511.0	1.3757587660996605e+18
14512.0	1.3754893584039933e+18
14513.0	1.3752529909186557e+18
14514.0	1.37495863885824e+18
14515.0	1.3747458601385984e+18
14516.0	1.3713627924135946e+18
14517.0	1.3742296872779773e+18
14518.0	1.373988784911155e+18
14519.0	1.373728738063155e+18
14520.0	1.3734748073492477e+18
14521.0	1.3732206602092541e+18
14522.0	1.3729629747544064e+18
14523.0	1.372513295872819e+18
14524.0	1.3723350782181373e+18
14525.0	1.3722063013412861e+18
14526.0	1.3719544921063421e+18
14527.0	1.371657907837337e+18
14528.0	1.371295756530483e+18
14529.0	1.3711883689263101e+18
14530.0	1.370931381403648e+18
14531.0	1.3706944451706877e+18
14532.0	1.3702575270395901e+18
14533.0	1.3701870862204925e+18
14534.0	1.3699407874621437e+18
14535.0	1.3696770227830781e+18
14536.0	1.3694357982937085e+18
14537.0	1.3691702409691133e+18
14538.0	1.3689319256489981e+18
14539.0	1.368679945286451e+18
14540.0	1.368427841611366e+18
14541.0	1.3681548058427392e+18
14542.0	1.3679235621191677e+18
14543.0	1.3675826516066301e+18
14544.0	1.3674190938832893e+18
14545.0	1.3671559902265341e+18
14546.0	1.350328910662857e+18
14547.0	1.3512866564931528e+18
14548.0	1.3663963589902336e+18
14549.0	1.3660220190359547e+18
14550.0	1.3659001300451325e+18
14551.0	1.365656737100595e+18
14552.0	1.3654016068157437e+18
14553.0	1.3651428199366653e+18
14554.0	1.3649020920528893e+18
14555.0	1.3646497828569085e+18
14556.0	1.3643957883895805e+18
14557.0	1.364147178569728e+18
14558.0	1.363895016174387e+18
14559.0	1.3612992327319537e+18
14560.0	1.3633505384726523e+18
14561.0	1.3631328289292285e+18
14562.0	1.3628461625114621e+18
14563.0	1.3626289848057853e+18
14564.0	1.3623044681498621e+18
14565.0	1.3621358932000765e+18
14566.0	1.361884619158323e+18
14567.0	1.361628830367744e+18
14568.0	1.36127954550784e+18
14569.0	1.3611293474815997e+18
14570.0	1.3601735394197501e+18
14571.0	1.3606242207399933e+18
14572.0	1.3602845198647293e+18
14573.0	1.3600597076869117e+18
14574.0	1.3596764279930877e+18
14575.0	1.359130186167091e+18
14576.0	1.358785733145395e+18
14577.0	1.35855228321792e+18
14578.0	1.358298849948467e+18
14579.0	1.358055500624691e+18
14580.0	1.3578039153655808e+18
14581.0	1.3575424541982717e+18
14582.0	1.3572904251817981e+18
14583.0	1.3570504229126141e+18
14584.0	1.3567499933057021e+18
14585.0	1.3565404039348221e+18
14586.0	1.3562880259522557e+18
14587.0	1.356038086538035e+18
14588.0	1.3557892351262717e+18
14589.0	1.355545624916787e+18
14590.0	1.3553020809773053e+18
14591.0	1.3550481066426365e+18
14592.0	1.354804944384819e+18
14593.0	1.3544348968812541e+18
14594.0	1.354324436529971e+18
14595.0	1.3540747571625981e+18
14596.0	1.3532940646481912e+18
14597.0	1.3529611996495867e+18
14598.0	1.3532880282058747e+18
14599.0	1.353104036672307e+18
14600.0	1.3528446382637053e+18
14601.0	1.3526126177550333e+18
14602.0	1.3523181901971453e+18
14603.0	1.3521253998526461e+18
14604.0	1.3517859229532157e+18
14605.0	1.3515066376716285e+18
14606.0	1.351300744321433e+18
14607.0	1.3511241884499965e+18
14608.0	1.3508995666935803e+18
14609.0	1.350644999284326e+18
14610.0	1.3501666112307197e+18
14611.0	1.3501493231484923e+18
14612.0	1.349929624666112e+18
14613.0	1.349687498401382e+18
14614.0	1.349436558226227e+18
14615.0	1.3491891202949117e+18
14616.0	1.3489555655098365e+18
14617.0	1.3487052863569917e+18
14618.0	1.348426645320499e+18
14619.0	1.347767561617407e+18
14620.0	1.346848584577843e+18
14621.0	1.347735900494233e+18
14622.0	1.3474889130311677e+18
14623.0	1.3472480274415613e+18
14624.0	1.346937695921766e+18
14625.0	1.3467569910448123e+18
14626.0	1.3465093534646272e+18
14627.0	1.346260174058291e+18
14628.0	1.346027208153497e+18
14629.0	1.3457828219977728e+18
14630.0	1.3455241064218621e+18
14631.0	1.3452913644929021e+18
14632.0	1.3441410439053312e+18
14633.0	1.3445972365410296e+18
14634.0	1.3445422433435645e+18
14635.0	1.3422014794563558e+18
14636.0	1.3404105275867128e+18
14637.0	1.3438287502901245e+18
14638.0	1.3435554343419901e+18
14639.0	1.3433010053447677e+18
14640.0	1.3430896627548157e+18
14641.0	1.3391002521829363e+18
14642.0	1.3425967959638013e+18
14643.0	1.3423545925238781e+18
14644.0	1.342095427318579e+18
14645.0	1.3418356438728701e+18
14646.0	1.341570921214771e+18
