# Flux units: erg / (cm m2 s)
# Wavelength units: Angstrom
wave	flux
14000.0	1.9926841179504637e+18
14001.0	1.992156880515891e+18
14002.0	1.9917379131670525e+18
14003.0	1.9912632152621053e+18
14004.0	1.9907848263696384e+18
14005.0	1.9903104774307837e+18
14006.0	1.9898259212337147e+18
14007.0	1.9893443614474237e+18
14008.0	1.9887559677050875e+18
14009.0	1.9883963732459515e+18
14010.0	1.98790291170263e+18
14011.0	1.986796908969984e+18
14012.0	1.9869636107436027e+18
14013.0	1.9864913270800384e+18
14014.0	1.986006980598169e+18
14015.0	1.985536674968371e+18
14016.0	1.9850614804578296e+18
14017.0	1.9845866248470528e+18
14018.0	1.9841090160951293e+18
14019.0	1.983637183738675e+18
14020.0	1.983159640417894e+18
14021.0	1.9826854256967675e+18
14022.0	1.9821987824140283e+18
14023.0	1.9816233557819387e+18
14024.0	1.981211879460044e+18
14025.0	1.9807825203036155e+18
14026.0	1.9803050071818237e+18
14027.0	1.9798301415047165e+18
14028.0	1.9793512778170365e+18
14029.0	1.9788772862328827e+18
14030.0	1.9741233832263716e+18
14031.0	1.977900332167987e+18
14032.0	1.9774572475711488e+18
14033.0	1.9768807052541952e+18
14034.0	1.9765122675245053e+18
14035.0	1.9760391718436861e+18
14036.0	1.975561289623142e+18
14037.0	1.9750768575774717e+18
14038.0	1.9746236395421693e+18
14039.0	1.9741477856870392e+18
14040.0	1.973664361952051e+18
14041.0	1.9732035539042301e+18
14042.0	1.9727252287651835e+18
14043.0	1.9722196054179837e+18
14044.0	1.9717811832094715e+18
14045.0	1.971311476526284e+18
14046.0	1.970835874329395e+18
14047.0	1.9703448689704955e+18
14048.0	1.969889840673587e+18
14049.0	1.9694288682090493e+18
14050.0	1.9689575861452792e+18
14051.0	1.9684714998661117e+18
14052.0	1.9680089067225083e+18
14053.0	1.9675430302777336e+18
14054.0	1.967075073458176e+18
14055.0	1.9665999242461181e+18
14056.0	1.9661344219332605e+18
14057.0	1.965661520868147e+18
14058.0	1.9651939583131643e+18
14059.0	1.9647195540094968e+18
14060.0	1.964254424150835e+18
14061.0	1.9637770687348736e+18
14062.0	1.9633155862429693e+18
14063.0	1.9628280302796797e+18
14064.0	1.9617845310652419e+18
14065.0	1.9618995825016827e+18
14066.0	1.9614359424598016e+18
14067.0	1.960830877197926e+18
14068.0	1.9604949235138555e+18
14069.0	1.960013078514892e+18
14070.0	1.9595576391761915e+18
14071.0	1.9590870919544827e+18
14072.0	1.9586204722790397e+18
14073.0	1.958150344487731e+18
14074.0	1.957686580294451e+18
14075.0	1.957193523082035e+18
14076.0	1.9566003931316224e+18
14077.0	1.9552108571262979e+18
14078.0	1.955734925344768e+18
14079.0	1.9553380183572477e+18
14080.0	1.9548838607978493e+18
14081.0	1.9544161002717181e+18
14082.0	1.9539169596407803e+18
14083.0	1.9534797202259965e+18
14084.0	1.9530170985611261e+18
14085.0	1.951560839567769e+18
14086.0	1.9520016424632315e+18
14087.0	1.951619022952857e+18
14088.0	1.9511268348002301e+18
14089.0	1.950560573561241e+18
14090.0	1.9502006938894333e+18
14091.0	1.9497563979776e+18
14092.0	1.9492871811891197e+18
14093.0	1.948819559913881e+18
14094.0	1.948354732045107e+18
14095.0	1.9478900853702653e+18
14096.0	1.9472023570874365e+18
14097.0	1.9468606890835965e+18
14098.0	1.9463814730743805e+18
14099.0	1.9460309584445437e+18
14100.0	1.945539506811699e+18
14101.0	1.9451037152706555e+18
14102.0	1.944636639254937e+18
14103.0	1.944161392735027e+18
14104.0	1.9437087233146877e+18
14105.0	1.943239546791526e+18
14106.0	1.942785062076416e+18
14107.0	1.942294999597056e+18
14108.0	1.941830428419686e+18
14109.0	1.941389320178892e+18
14110.0	1.940894875490713e+18
14111.0	1.9403945419997181e+18
14112.0	1.939989469541171e+18
14113.0	1.9394588951183355e+18
14114.0	1.9390464742391803e+18
14115.0	1.9385983883542528e+18
14116.0	1.9377907415646203e+18
14117.0	1.9310353552769052e+18
14118.0	1.937221618132582e+18
14119.0	1.9366457502597112e+18
14120.0	1.9361829893439483e+18
14121.0	1.9358040473993219e+18
14122.0	1.9352315987230715e+18
14123.0	1.9346912599605245e+18
14124.0	1.9341735888945147e+18
14125.0	1.9334686991974397e+18
14126.0	1.9334697628729341e+18
14127.0	1.9330698091429883e+18
14128.0	1.9326104271585275e+18
14129.0	1.932138160272179e+18
14130.0	1.9316638616649725e+18
14131.0	1.9312191010242555e+18
14132.0	1.9307628127584253e+18
14133.0	1.929702041400113e+18
14134.0	1.9298520666210304e+18
14135.0	1.9293490957516792e+18
14136.0	1.928367984292659e+18
14137.0	1.9284665990905853e+18
14138.0	1.9279070705483773e+18
14139.0	1.9275557824888827e+18
14140.0	1.9270383966355453e+18
14141.0	1.926629202015027e+18
14142.0	1.9255005919838208e+18
14143.0	1.9256165661671421e+18
14144.0	1.925263754736435e+18
14145.0	1.9248044717375483e+18
14146.0	1.924334639225241e+18
14147.0	1.9238801142448128e+18
14148.0	1.9233891256631288e+18
14149.0	1.9229077017722875e+18
14150.0	1.922514752530022e+18
14151.0	1.9219623861813245e+18
14152.0	1.9215940927356925e+18
14153.0	1.921139097993216e+18
14154.0	1.9206517634891773e+18
14155.0	1.917433693811509e+18
14156.0	1.9196626274877425e+18
14157.0	1.919305559677337e+18
14158.0	1.918823503285452e+18
14159.0	1.9183972563025917e+18
14160.0	1.91794145960919e+18
14161.0	1.9174095077769216e+18
14162.0	1.9169087481446397e+18
14163.0	1.9165731702702077e+18
14164.0	1.9158628699209718e+18
14165.0	1.9150620229369856e+18
14166.0	1.915199815889715e+18
14167.0	1.9147361624260605e+18
14168.0	1.9142388723220477e+18
14169.0	1.913838428697395e+18
14170.0	1.9133523457736704e+18
14171.0	1.9129071573139453e+18
14172.0	1.9124791084580861e+18
14173.0	1.9117546749820928e+18
14174.0	1.9115518568955904e+18
14175.0	1.911112944792371e+18
14176.0	1.910620355664281e+18
14177.0	1.9101961890562045e+18
14178.0	1.9097474387935227e+18
14179.0	1.909242255009382e+18
14180.0	1.9088470056108027e+18
14181.0	1.9083924789526525e+18
14182.0	1.907939198841651e+18
14183.0	1.9074864321134587e+18
14184.0	1.9070273185644536e+18
14185.0	1.906578632055193e+18
14186.0	1.9048003243343877e+18
14187.0	1.9056462667972603e+18
14188.0	1.905211500344115e+18
14189.0	1.904744947777536e+18
14190.0	1.904301267589529e+18
14191.0	1.9038432026165243e+18
14192.0	1.903396539439513e+18
14193.0	1.9027290327351293e+18
14194.0	1.9024903114063872e+18
14195.0	1.9020531609108475e+18
14196.0	1.901601362228019e+18
14197.0	1.9011481240600573e+18
14198.0	1.9006930924077053e+18
14199.0	1.900232289393049e+18
14200.0	1.899001412163994e+18
14201.0	1.8993353811034107e+18
14202.0	1.89889214718935e+18
14203.0	1.8983795864633341e+18
14204.0	1.8979781194285053e+18
14205.0	1.8975403313987581e+18
14206.0	1.8969517027753984e+18
14207.0	1.896643303990886e+18
14208.0	1.896193708156518e+18
14209.0	1.8955808196788216e+18
14210.0	1.8952014197161974e+18
14211.0	1.8948362552213504e+18
14212.0	1.8943939054665728e+18
14213.0	1.89391355028439e+18
14214.0	1.8934963093110781e+18
14215.0	1.8930269734043643e+18
14216.0	1.8925965488947197e+18
14217.0	1.8921486123270141e+18
14218.0	1.8916853397061627e+18
14219.0	1.8912481741111293e+18
14220.0	1.890796414015897e+18
14221.0	1.890324123641446e+18
14222.0	1.8896734797168637e+18
14223.0	1.8894419323256827e+18
14224.0	1.8890104038752253e+18
14225.0	1.8863970773368847e+18
14226.0	1.8881143210246141e+18
14227.0	1.887666527063244e+18
14228.0	1.8822780325724183e+18
14229.0	1.8861960409907156e+18
14230.0	1.8863196186083325e+18
14231.0	1.8856520397619197e+18
14232.0	1.885426991864217e+18
14233.0	1.884969223847936e+18
14234.0	1.8845336789319675e+18
14235.0	1.8840839824343035e+18
14236.0	1.8836372773142525e+18
14237.0	1.8831870489788416e+18
14238.0	1.8827419813150715e+18
14239.0	1.8822734138048507e+18
14240.0	1.8803241965846533e+18
14241.0	1.8813946517520381e+18
14242.0	1.880960846633369e+18
14243.0	1.8803443376324605e+18
14244.0	1.88007553475543e+18
14245.0	1.879605499238809e+18
14246.0	1.8791377085136893e+18
14247.0	1.8787288427266045e+18
14248.0	1.8782742003056635e+18
14249.0	1.877840789451571e+18
14250.0	1.8773993540550653e+18
14251.0	1.8769552963796987e+18
14252.0	1.8765120104562683e+18
14253.0	1.8760650218012672e+18
14254.0	1.875622457298125e+18
14255.0	1.8751482274775037e+18
14256.0	1.8730062719221773e+18
14257.0	1.8742746579730427e+18
14258.0	1.8738506339713021e+18
14259.0	1.8733642071146493e+18
14260.0	1.87291124409303e+18
14261.0	1.8724942027685883e+18
14262.0	1.8720806360055805e+18
14263.0	1.8690935885922322e+18
14264.0	1.8708432324395003e+18
14265.0	1.870688855208755e+18
14266.0	1.8703084284805115e+18
14267.0	1.8698666709614587e+18
14268.0	1.8694215697432576e+18
14269.0	1.868972603054489e+18
14270.0	1.8685409957511165e+18
14271.0	1.86808850752471e+18
14272.0	1.867653544778137e+18
14273.0	1.867215753392947e+18
14274.0	1.8631211429658652e+18
14275.0	1.865999873317274e+18
14276.0	1.8658275159441405e+18
14277.0	1.8654095535505405e+18
14278.0	1.865004967631257e+18
14279.0	1.864563468481331e+18
14280.0	1.8641143658971133e+18
14281.0	1.8636827703377917e+18
14282.0	1.8632420043522045e+18
14283.0	1.8628022970089464e+18
14284.0	1.8623620259512315e+18
14285.0	1.8619214176714747e+18
14286.0	1.8614712648335355e+18
14287.0	1.8610398286577661e+18
14288.0	1.8606006195978237e+18
14289.0	1.8591831310729185e+18
14290.0	1.8597090028421115e+18
14291.0	1.8592810043179003e+18
14292.0	1.8588420821483517e+18
14293.0	1.8584033495613437e+18
14294.0	1.8577994285056e+18
14295.0	1.8575035019034621e+18
14296.0	1.856293475398452e+18
14297.0	1.856651383747379e+18
14298.0	1.8553469300375544e+18
14299.0	1.8557231691726843e+18
14300.0	1.855326035692748e+18
14301.0	1.8548834779004925e+18
14302.0	1.8544561101996024e+18
14303.0	1.8539708862693376e+18
14304.0	1.8535663926247421e+18
14305.0	1.8531385635504128e+18
14306.0	1.8525297032822781e+18
14307.0	1.8522115686793216e+18
14308.0	1.8518189952466941e+18
14309.0	1.8513624972656635e+18
14310.0	1.8502290637848568e+18
14311.0	1.849165933549977e+18
14312.0	1.84986204372992e+18
14313.0	1.8495370791223293e+18
14314.0	1.84916938630103e+18
14315.0	1.8487629599211517e+18
14316.0	1.8482821215551483e+18
14317.0	1.847698178808217e+18
14318.0	1.8474698006331387e+18
14319.0	1.8470352707387387e+18
14320.0	1.8465997946093568e+18
14321.0	1.846159443021004e+18
14322.0	1.8456756736753661e+18
14323.0	1.845279088810393e+18
14324.0	1.8448389452595192e+18
14325.0	1.844412163083468e+18
14326.0	1.8439895114579965e+18
14327.0	1.8435448212815872e+18
14328.0	1.8431104054722555e+18
14329.0	1.8426856617279483e+18
14330.0	1.8422500547362816e+18
14331.0	1.841789187968205e+18
14332.0	1.8413765556961275e+18
14333.0	1.8409424519430141e+18
14334.0	1.84050902934487e+18
14335.0	1.840041062458982e+18
14336.0	1.839381944362598e+18
14337.0	1.8392030136762365e+18
14338.0	1.8387686163218427e+18
14339.0	1.8383138665267197e+18
14340.0	1.8379074602795003e+18
14341.0	1.837450853246566e+18
14342.0	1.8370357580791803e+18
14343.0	1.8365808405118976e+18
14344.0	1.8361567108136955e+18
14345.0	1.8357438570823677e+18
14346.0	1.8353071897706493e+18
14347.0	1.8347606853812221e+18
14348.0	1.8344431530803197e+18
14349.0	1.8340167987232765e+18
14350.0	1.833407106305228e+18
14351.0	1.832962213124505e+18
14352.0	1.832709444232806e+18
14353.0	1.8322875173830653e+18
14354.0	1.8318378997383163e+18
14355.0	1.8313719243079677e+18
14356.0	1.830960040299724e+18
14357.0	1.8305644419350525e+18
14358.0	1.8301326098169853e+18
14359.0	1.8296836011851776e+18
14360.0	1.829257461576499e+18
14361.0	1.8288376587223037e+18
14362.0	1.828409549468467e+18
14363.0	1.8279797339717632e+18
14364.0	1.8268951523885056e+18
14365.0	1.8270455483858934e+18
14366.0	1.8265881914114043e+18
14367.0	1.8262570729209853e+18
14368.0	1.8258270930075645e+18
14369.0	1.8253995223023616e+18
14370.0	1.824969087726387e+18
14371.0	1.824541797200691e+18
14372.0	1.824097298284544e+18
14373.0	1.8236806461915133e+18
14374.0	1.8232512853573627e+18
14375.0	1.8228222701338624e+18
14376.0	1.8223944041496576e+18
14377.0	1.8219668066009088e+18
14378.0	1.8215358032773115e+18
14379.0	1.8211103012028416e+18
14380.0	1.820681158472499e+18
14381.0	1.8202387449643003e+18
14382.0	1.819822768993075e+18
14383.0	1.81935355723776e+18
14384.0	1.8189412152115192e+18
14385.0	1.818541516495257e+18
14386.0	1.8180923015036925e+18
14387.0	1.817684152103731e+18
14388.0	1.8172532645429245e+18
14389.0	1.8168307102253056e+18
14390.0	1.8164014836088827e+18
14391.0	1.8159653615566843e+18
14392.0	1.815525887416729e+18
14393.0	1.8151231151144955e+18
14394.0	1.8146516803780605e+18
14395.0	1.813970359314022e+18
14396.0	1.8138244629659643e+18
14397.0	1.8134116763435003e+18
14398.0	1.812968227681075e+18
14399.0	1.8125505354006528e+18
14400.0	1.8119379589791741e+18
14401.0	1.8116981907521533e+18
14402.0	1.811276614546227e+18
14403.0	1.8024815432564585e+18
14404.0	1.7889516530434012e+18
14405.0	1.8086175449284544e+18
14406.0	1.8095770506887165e+18
14407.0	1.795882555854036e+18
14408.0	1.80855744055214e+18
14409.0	1.8082813764960253e+18
14410.0	1.8078292456243197e+18
14411.0	1.8074378163978237e+18
14412.0	1.8070237832282112e+18
14413.0	1.806602884821811e+18
14414.0	1.806177342482022e+18
14415.0	1.8057552512155643e+18
14416.0	1.805291049136947e+18
14417.0	1.8047389663231997e+18
14418.0	1.8043335297990656e+18
14419.0	1.80405839855616e+18
14420.0	1.8036291971055613e+18
14421.0	1.803211687696793e+18
14422.0	1.8027821372801021e+18
14423.0	1.8023493488607227e+18
14424.0	1.7558773631549164e+18
14425.0	1.801511447717478e+18
14426.0	1.8010951496237053e+18
14427.0	1.80067362710487e+18
14428.0	1.800210111214387e+18
14429.0	1.7998260606074875e+18
14430.0	1.7994063533834235e+18
14431.0	1.7979888195600387e+18
14432.0	1.7985150285512704e+18
14433.0	1.788132409842067e+18
14434.0	1.7976989797318653e+18
14435.0	1.7971352451416056e+18
14436.0	1.7968736950550525e+18
14437.0	1.7964514242723835e+18
14438.0	1.7956599121313787e+18
14439.0	1.7955357674438646e+18
14440.0	1.7951867963179003e+18
14441.0	1.7947589806653435e+18
14442.0	1.7943331682123768e+18
14443.0	1.7938681574719485e+18
14444.0	1.7934965991800832e+18
14445.0	1.7930815593775104e+18
14446.0	1.7821546642931758e+18
14447.0	1.792225636148838e+18
14448.0	1.7918196073889784e+18
14449.0	1.7913989807734784e+18
14450.0	1.7909726348050424e+18
14451.0	1.7905552948461565e+18
14452.0	1.790132631476633e+18
14453.0	1.7895092287176704e+18
14454.0	1.7892925945937915e+18
14455.0	1.7888686125350912e+18
14456.0	1.7884075159191547e+18
14457.0	1.7879629415055355e+18
14458.0	1.7874947397386237e+18
14459.0	1.787153905562419e+18
14460.0	1.7867644896018427e+18
14461.0	1.7862305916125181e+18
14462.0	1.7847544432295939e+18
14463.0	1.7854768768614397e+18
14464.0	1.7850946952364032e+18
14465.0	1.7846624839532544e+18
14466.0	1.784260146180915e+18
14467.0	1.783695861297971e+18
14468.0	1.7834153428910077e+18
14469.0	1.7829312245792765e+18
14470.0	1.782560265234022e+18
14471.0	1.7821545317531643e+18
14472.0	1.781744790195404e+18
14473.0	1.7813390382596093e+18
14474.0	1.7809210691551227e+18
14475.0	1.7804934195970043e+18
14476.0	1.779406583155917e+18
14477.0	1.779665093210931e+18
14478.0	1.7792467331973115e+18
14479.0	1.778817046885171e+18
14480.0	1.77839840165888e+18
14481.0	1.7780030163648507e+18
14482.0	1.777582460213657e+18
14483.0	1.77715582903255e+18
14484.0	1.7767493791645693e+18
14485.0	1.7762867977650176e+18
14486.0	1.775583872679936e+18
14487.0	1.7754968744263675e+18
14488.0	1.7747883524620285e+18
14489.0	1.7745624724144125e+18
14490.0	1.7742284967641085e+18
14491.0	1.7738418909872123e+18
14492.0	1.7734154862985213e+18
14493.0	1.7729680513695741e+18
14494.0	1.7725624151965693e+18
14495.0	1.7721819431698432e+18
14496.0	1.7716131133390848e+18
14497.0	1.7713494812000253e+18
14498.0	1.770933147874099e+18
14499.0	1.7705233576624128e+18
14500.0	1.770108604750233e+18
14501.0	1.7693776214491139e+18
14502.0	1.768607698229658e+18
14503.0	1.76877804233687e+18
14504.0	1.768443367076659e+18
14505.0	1.7677448191672312e+18
14506.0	1.7669360013279227e+18
14507.0	1.7669324462358528e+18
14508.0	1.7667948931973112e+18
14509.0	1.7663804355641341e+18
14510.0	1.7659650853830653e+18
14511.0	1.7655546828029944e+18
14512.0	1.7651205907939328e+18
14513.0	1.7647268328898563e+18
14514.0	1.7642116800839677e+18
14515.0	1.7638928878141435e+18
14516.0	1.7611290897809426e+18
14517.0	1.7630751797280765e+18
14518.0	1.7626619954855939e+18
14519.0	1.7622480059367421e+18
14520.0	1.76183646921687e+18
14521.0	1.7614162637094907e+18
14522.0	1.760989726480793e+18
14523.0	1.7597699859677174e+18
14524.0	1.7594426104741878e+18
14525.0	1.7597677193658365e+18
14526.0	1.7593568570900477e+18
14527.0	1.7588970774855675e+18
14528.0	1.7582400984842237e+18
14529.0	1.758115688716697e+18
14530.0	1.757692040524595e+18
14531.0	1.7573016967839741e+18
14532.0	1.755740697631129e+18
14533.0	1.7564799000903677e+18
14534.0	1.7560707608346621e+18
14535.0	1.7556445272735741e+18
14536.0	1.755243045139251e+18
14537.0	1.7548191620661248e+18
14538.0	1.754424218012876e+18
14539.0	1.7540144999432187e+18
14540.0	1.7536053506211835e+18
14541.0	1.7531662808121336e+18
14542.0	1.7527789821362176e+18
14543.0	1.7519166567219195e+18
14544.0	1.7519612975382525e+18
14545.0	1.7515346143477757e+18
14546.0	1.7094510148321088e+18
14547.0	1.7132174629142277e+18
14548.0	1.7503058074271741e+18
14549.0	1.7497760148226043e+18
14550.0	1.7494934781165565e+18
14551.0	1.7490948850188285e+18
14552.0	1.7486728893825021e+18
14553.0	1.74825439011799e+18
14554.0	1.747863014578585e+18
14555.0	1.7474524039610365e+18
14556.0	1.7470261351677947e+18
14557.0	1.7466360984502264e+18
14558.0	1.746224835198976e+18
14559.0	1.7435851801755581e+18
14560.0	1.7449626281967603e+18
14561.0	1.744993296947609e+18
14562.0	1.7445398675193853e+18
14563.0	1.7441830832439293e+18
14564.0	1.7436544633667581e+18
14565.0	1.7433653533474813e+18
14566.0	1.742957156971315e+18
14567.0	1.742543336872345e+18
14568.0	1.741770366910464e+18
14569.0	1.741723573577318e+18
14570.0	1.7406266674511872e+18
14571.0	1.7409124169940987e+18
14572.0	1.740322941121331e+18
14573.0	1.7400136917319677e+18
14574.0	1.7393724162047997e+18
14575.0	1.7392527510339581e+18
14576.0	1.7388491482595328e+18
14577.0	1.7384618361618427e+18
14578.0	1.7380605419323387e+18
14579.0	1.737656449263206e+18
14580.0	1.7372490816815104e+18
14581.0	1.7368057353601021e+18
14582.0	1.7364255955222525e+18
14583.0	1.7360308695728125e+18
14584.0	1.7355842131066877e+18
14585.0	1.7352175856386043e+18
14586.0	1.7348073810296824e+18
14587.0	1.734390138378649e+18
14588.0	1.733993910868377e+18
14589.0	1.7336083587006461e+18
14590.0	1.7332207613902843e+18
14591.0	1.7328102900236285e+18
14592.0	1.7324310930653181e+18
14593.0	1.7319124203995139e+18
14594.0	1.731660676595712e+18
14595.0	1.7312651285626877e+18
14596.0	1.7303479903059955e+18
14597.0	1.729920035402546e+18
14598.0	1.7300661095890936e+18
14599.0	1.7297193480224765e+18
14600.0	1.729310693628313e+18
14601.0	1.72893463904256e+18
14602.0	1.7284604612313085e+18
14603.0	1.7281409777401853e+18
14604.0	1.7276680095662077e+18
14605.0	1.7272148821278715e+18
14606.0	1.7268202568417277e+18
14607.0	1.726608135788953e+18
14608.0	1.7262138963787776e+18
14609.0	1.725751563282022e+18
14610.0	1.7251235367223293e+18
14611.0	1.7250299148238848e+18
14612.0	1.7246680285970427e+18
14613.0	1.7242854124421115e+18
14614.0	1.7238932181745661e+18
14615.0	1.723428955697971e+18
14616.0	1.723123370452582e+18
14617.0	1.7227348369735675e+18
14618.0	1.7221991153008637e+18
14619.0	1.7216778119675889e+18
14620.0	1.7200812518277125e+18
14621.0	1.7211861288091643e+18
14622.0	1.720794939496857e+18
14623.0	1.720410326853222e+18
14624.0	1.719956129028505e+18
14625.0	1.7196317767892995e+18
14626.0	1.7192272697229312e+18
14627.0	1.7188207426797568e+18
14628.0	1.718475091764838e+18
14629.0	1.7180877813448696e+18
14630.0	1.71768965800919e+18
14631.0	1.7173056090800128e+18
14632.0	1.712418444646812e+18
14633.0	1.7160121511575534e+18
14634.0	1.7161244326756347e+18
14635.0	1.7134185865019226e+18
14636.0	1.706825182556977e+18
14637.0	1.7149902408646656e+18
14638.0	1.7145597979000827e+18
14639.0	1.7141844378910715e+18
14640.0	1.7138242914615293e+18
14641.0	1.6971424807780221e+18
14642.0	1.7130494776836093e+18
14643.0	1.712662479319859e+18
14644.0	1.7122551234822136e+18
14645.0	1.7118592331939837e+18
14646.0	1.7113313028603904e+18
14647.0	1.710956897474969e+18
14648.0	1.7107131043938307e+18
