# Flux units: erg / (cm m2 s)
# Wavelength units: Angstrom
wave	flux
14000.0	1.725690499248947e+18
14001.0	1.725267763737395e+18
14002.0	1.7249409335033853e+18
14003.0	1.724564989647257e+18
14004.0	1.724190627882598e+18
14005.0	1.7238161050566656e+18
14006.0	1.7234381261242363e+18
14007.0	1.7230632425881597e+18
14008.0	1.7226467045801981e+18
14009.0	1.7223191361486843e+18
14010.0	1.7219387345862656e+18
14011.0	1.7212823260102653e+18
14012.0	1.7211956012253181e+18
14013.0	1.720821658891059e+18
14014.0	1.72044556739543e+18
14015.0	1.720073277616947e+18
14016.0	1.7197009207296e+18
14017.0	1.7193275169439741e+18
14018.0	1.7189539621634048e+18
14019.0	1.7185810566610941e+18
14020.0	1.7182078307139581e+18
14021.0	1.717838547412582e+18
14022.0	1.717467218968576e+18
14023.0	1.7170865154162688e+18
14024.0	1.7167064024219643e+18
14025.0	1.716607109824512e+18
14026.0	1.7163547184201725e+18
14027.0	1.7159830611427325e+18
14028.0	1.7156090516996093e+18
14029.0	1.7152359549370365e+18
14030.0	1.7145985197146112e+18
14031.0	1.7144823341383675e+18
14032.0	1.7141108815429632e+18
14033.0	1.713717920556646e+18
14034.0	1.7133671240695803e+18
14035.0	1.7129955020242941e+18
14036.0	1.7126237642162179e+18
14037.0	1.712251856958259e+18
14038.0	1.711880543613747e+18
14039.0	1.7115117585956861e+18
14040.0	1.7111383799758843e+18
14041.0	1.7107705009274875e+18
14042.0	1.7103917200441344e+18
14043.0	1.7100047049031677e+18
14044.0	1.709647645481369e+18
14045.0	1.7092804593319933e+18
14046.0	1.7089092583948285e+18
14047.0	1.7085366934700027e+18
14048.0	1.7081688949522427e+18
14049.0	1.7077945466093565e+18
14050.0	1.707418936619827e+18
14051.0	1.7070444624478205e+18
14052.0	1.7066766203092987e+18
14053.0	1.70630803661783e+18
14054.0	1.7059380503511037e+18
14055.0	1.7055677235068925e+18
14056.0	1.7051981650591741e+18
14057.0	1.7048283532754944e+18
14058.0	1.7044602427015165e+18
14059.0	1.7040949926428667e+18
14060.0	1.7037253670862848e+18
14061.0	1.70335168144343e+18
14062.0	1.7029807103541248e+18
14063.0	1.7026043336458237e+18
14064.0	1.7021971606798333e+18
14065.0	1.7018692130832381e+18
14066.0	1.701504154284851e+18
14067.0	1.701130188462489e+18
14068.0	1.700766602703667e+18
14069.0	1.7003901924409341e+18
14070.0	1.7000205803061243e+18
14071.0	1.6996498877186043e+18
14072.0	1.6992822703947776e+18
14073.0	1.698913945072435e+18
14074.0	1.698545723768832e+18
14075.0	1.698169446046105e+18
14076.0	1.697803368870707e+18
14077.0	1.6973792559497213e+18
14078.0	1.6970694713671677e+18
14079.0	1.696700642728345e+18
14080.0	1.6963381625880576e+18
14081.0	1.6959746674262016e+18
14082.0	1.695603404413337e+18
14083.0	1.6952408101879803e+18
14084.0	1.6948704447561728e+18
14085.0	1.694361974315417e+18
14086.0	1.694129239097344e+18
14087.0	1.6937111743627261e+18
14088.0	1.693313482201497e+18
14089.0	1.6929471953108987e+18
14090.0	1.692583909864243e+18
14091.0	1.6922168931647488e+18
14092.0	1.6918435464216576e+18
14093.0	1.691476981029273e+18
14094.0	1.6911105750204408e+18
14095.0	1.690850580181811e+18
14096.0	1.6907890816188413e+18
14097.0	1.690426992387686e+18
14098.0	1.6900641179828221e+18
14099.0	1.6897040604725248e+18
14100.0	1.6893327051849725e+18
14101.0	1.688972597343027e+18
14102.0	1.6886068137689085e+18
14103.0	1.6882345994878976e+18
14104.0	1.6878753607057403e+18
14105.0	1.6875100116615163e+18
14106.0	1.6871501806436347e+18
14107.0	1.6867838283218941e+18
14108.0	1.6864157731127293e+18
14109.0	1.686049313416806e+18
14110.0	1.685678704715366e+18
14111.0	1.6853068410781693e+18
14112.0	1.6849510785351677e+18
14113.0	1.6845909757263872e+18
14114.0	1.6842206170054653e+18
14115.0	1.6838615829053437e+18
14116.0	1.683467903854182e+18
14117.0	1.6826816245268477e+18
14118.0	1.6827603314802685e+18
14119.0	1.6823877782994944e+18
14120.0	1.68202625613824e+18
14121.0	1.6816614775193597e+18
14122.0	1.6812932125949952e+18
14123.0	1.6809302140387325e+18
14124.0	1.6805637727977472e+18
14125.0	1.679997813548646e+18
14126.0	1.679847830270771e+18
14127.0	1.6794858635132928e+18
14128.0	1.6791219606650877e+18
14129.0	1.678754088327577e+18
14130.0	1.6783868417802237e+18
14131.0	1.6780334146256896e+18
14132.0	1.6776682752966653e+18
14133.0	1.677059034185727e+18
14134.0	1.6769506600812536e+18
14135.0	1.6765808633970688e+18
14136.0	1.6761998041677821e+18
14137.0	1.675856589304627e+18
14138.0	1.6754887689764861e+18
14139.0	1.6751322481033213e+18
14140.0	1.674759443264307e+18
14141.0	1.674407356609331e+18
14142.0	1.67400582414336e+18
14143.0	1.673673997654425e+18
14144.0	1.67331476054999e+18
14145.0	1.672952040495513e+18
14146.0	1.6725896475967485e+18
14147.0	1.6722286438514685e+18
14148.0	1.6718659523182587e+18
14149.0	1.6715040107266048e+18
14150.0	1.6711451762753533e+18
14151.0	1.670779283649331e+18
14152.0	1.6704229657804797e+18
14153.0	1.6700618613719037e+18
14154.0	1.6696895028068347e+18
14155.0	1.6692244182466552e+18
14156.0	1.6689688576262141e+18
14157.0	1.6686173397188603e+18
14158.0	1.668254621342105e+18
14159.0	1.6678959211085821e+18
14160.0	1.6675342815068152e+18
14161.0	1.667073832491417e+18
14162.0	1.666460786307891e+18
14163.0	1.6657417953607675e+18
14164.0	1.665364029498982e+18
14165.0	1.6649164402196477e+18
14166.0	1.6646671576334339e+18
14167.0	1.664302140778086e+18
14168.0	1.6639419423391744e+18
14169.0	1.6635839400378365e+18
14170.0	1.6632274107760635e+18
14171.0	1.6628689538121725e+18
14172.0	1.6625112551784443e+18
14173.0	1.6620984115134461e+18
14174.0	1.6617907928694781e+18
14175.0	1.6614316295847933e+18
14176.0	1.6610655524093947e+18
14177.0	1.660680610932326e+18
14178.0	1.6602112582483965e+18
14179.0	1.6598426829455352e+18
14180.0	1.6594953710862333e+18
14181.0	1.6591369208332285e+18
14182.0	1.6587783279738877e+18
14183.0	1.6584203709710333e+18
14184.0	1.6580591826763776e+18
14185.0	1.6577033026928635e+18
14186.0	1.6572583205928957e+18
14187.0	1.6569763593453565e+18
14188.0	1.6566281801039872e+18
14189.0	1.6562697583722493e+18
14190.0	1.6559131687124992e+18
14191.0	1.655554510422016e+18
14192.0	1.655199595128422e+18
14193.0	1.654835698991104e+18
14194.0	1.6544905044164603e+18
14195.0	1.6541344650493947e+18
14196.0	1.6537771573247995e+18
14197.0	1.6534197808136192e+18
14198.0	1.6530607416803328e+18
14199.0	1.6527044120674304e+18
14200.0	1.6522997691056123e+18
14201.0	1.6519951837822968e+18
14202.0	1.6516413573300224e+18
14203.0	1.6512725253357568e+18
14204.0	1.6509244903784443e+18
14205.0	1.6505651559661565e+18
14206.0	1.650152750186496e+18
14207.0	1.649853996623462e+18
14208.0	1.649498062952857e+18
14209.0	1.6490779782414333e+18
14210.0	1.6487519147261947e+18
14211.0	1.6484359460618237e+18
14212.0	1.648074891984896e+18
14213.0	1.6477180406005757e+18
14214.0	1.6473615566372861e+18
14215.0	1.6470001183621115e+18
14216.0	1.646651205956403e+18
14217.0	1.6462959081422843e+18
14218.0	1.645935355704115e+18
14219.0	1.6455855188738043e+18
14220.0	1.645230662300467e+18
14221.0	1.644874205180723e+18
14222.0	1.6445095188365312e+18
14223.0	1.6441668458774523e+18
14224.0	1.643812554696294e+18
14225.0	1.643309142586163e+18
14226.0	1.643104378342604e+18
14227.0	1.642749092272537e+18
14228.0	1.6420111581708285e+18
14229.0	1.64198581618606e+18
14230.0	1.6416937349218304e+18
14231.0	1.6413319392919547e+18
14232.0	1.6409836677758976e+18
14233.0	1.640626665396633e+18
14234.0	1.6402758873645053e+18
14235.0	1.6399209636823035e+18
14236.0	1.6395684072652795e+18
14237.0	1.6392144616947707e+18
14238.0	1.6388614841696253e+18
14239.0	1.638505352527872e+18
14240.0	1.6374326945120256e+18
14241.0	1.6378043819884544e+18
14242.0	1.6374553722748928e+18
14243.0	1.637030828179456e+18
14244.0	1.6367486102405112e+18
14245.0	1.6363799594401784e+18
14246.0	1.6360229402836987e+18
14247.0	1.635682955034624e+18
14248.0	1.6353250550743035e+18
14249.0	1.6349790300274688e+18
14250.0	1.6346206871486461e+18
14251.0	1.6342570460250107e+18
14252.0	1.6338982031851512e+18
14253.0	1.6335514164527104e+18
14254.0	1.6331986838749181e+18
14255.0	1.6328328164147197e+18
14256.0	1.632352286749491e+18
14257.0	1.6321405163405307e+18
14258.0	1.6317924427956221e+18
14259.0	1.631432227579494e+18
14260.0	1.6310840131059712e+18
14261.0	1.6307297420574715e+18
14262.0	1.6303970498641915e+18
14263.0	1.6298340232724477e+18
14264.0	1.629660335466086e+18
14265.0	1.6293397379678205e+18
14266.0	1.628992179483443e+18
14267.0	1.6286416497541115e+18
14268.0	1.6282909656743933e+18
14269.0	1.6279372449185787e+18
14270.0	1.6275896142921728e+18
14271.0	1.627237411874406e+18
14272.0	1.6268885699330043e+18
14273.0	1.6265378942418944e+18
14274.0	1.6258736792272896e+18
14275.0	1.6258082514403325e+18
14276.0	1.625471755852185e+18
14277.0	1.6251242627989496e+18
14278.0	1.6249695533793275e+18
14279.0	1.6246625437483003e+18
14280.0	1.624308826347929e+18
14281.0	1.6239619456630784e+18
14282.0	1.6236124175335421e+18
14283.0	1.6232633893650432e+18
14284.0	1.6229141162491901e+18
14285.0	1.622564762602701e+18
14286.0	1.6222145902280701e+18
14287.0	1.6218661928828923e+18
14288.0	1.6215169700986877e+18
14289.0	1.620706888935013e+18
14290.0	1.620819125154611e+18
14291.0	1.6204748885590013e+18
14292.0	1.620126536512307e+18
14293.0	1.6197749632401405e+18
14294.0	1.6193593697894397e+18
14295.0	1.6190689813463035e+18
14296.0	1.6183496196227072e+18
14297.0	1.6183812564189184e+18
14298.0	1.6179256862179325e+18
14299.0	1.6176739138928637e+18
14300.0	1.6173268453031933e+18
14301.0	1.6169737000058875e+18
14302.0	1.6166254167457792e+18
14303.0	1.6162629986811904e+18
14304.0	1.6159222987227133e+18
14305.0	1.6155825064116221e+18
14306.0	1.6152172597084157e+18
14307.0	1.6148890470318075e+18
14308.0	1.614549288275148e+18
14309.0	1.614200958038835e+18
14310.0	1.6137392071114747e+18
14311.0	1.6134271408275453e+18
14312.0	1.6131405306134525e+18
14313.0	1.6127671553490941e+18
14314.0	1.612465011110707e+18
14315.0	1.6121200782606333e+18
14316.0	1.6117494477488123e+18
14317.0	1.611415696913203e+18
14318.0	1.611080112327884e+18
14319.0	1.6107337030828032e+18
14320.0	1.610386926416691e+18
14321.0	1.610040262157926e+18
14322.0	1.609674881236992e+18
14323.0	1.6093410431598592e+18
14324.0	1.6090020226007037e+18
14325.0	1.6086519307567101e+18
14326.0	1.6083104674349056e+18
14327.0	1.6079606322823165e+18
14328.0	1.607613739853414e+18
14329.0	1.607245292057395e+18
14330.0	1.6068803054010365e+18
14331.0	1.606534590732697e+18
14332.0	1.6061893357600765e+18
14333.0	1.605844045555302e+18
14334.0	1.6055020084527096e+18
14335.0	1.605149262453145e+18
14336.0	1.6047937347911675e+18
14337.0	1.604469266789171e+18
14338.0	1.6041313635926016e+18
14339.0	1.6037823152914432e+18
14340.0	1.6034427008188413e+18
14341.0	1.6030968502550525e+18
14342.0	1.602753048189337e+18
14343.0	1.6024037180309504e+18
14344.0	1.6020597599371267e+18
14345.0	1.601720494430617e+18
14346.0	1.6013801535045632e+18
14347.0	1.6010260921712635e+18
14348.0	1.6006930778554363e+18
14349.0	1.600344064786432e+18
14350.0	1.5999876630315003e+18
14351.0	1.599640591086387e+18
14352.0	1.5993074106761213e+18
14353.0	1.5989672576548861e+18
14354.0	1.5986225294868477e+18
14355.0	1.5982766336245757e+18
14356.0	1.5979321856360443e+18
14357.0	1.5975864239915005e+18
14358.0	1.5972431302754296e+18
14359.0	1.5968922733903872e+18
14360.0	1.5965535011340288e+18
14361.0	1.596211390211686e+18
14362.0	1.595868702153113e+18
14363.0	1.5955256835833853e+18
14364.0	1.5951440254074877e+18
14365.0	1.5948348716482557e+18
14366.0	1.594490861545062e+18
14367.0	1.5941552417275901e+18
14368.0	1.5938129932320765e+18
14369.0	1.5934711574560765e+18
14370.0	1.593128888827904e+18
14371.0	1.5927867107966976e+18
14372.0	1.592442007794483e+18
14373.0	1.5921022456823803e+18
14374.0	1.5917640035860475e+18
14375.0	1.591426180920115e+18
14376.0	1.59129379358638e+18
14377.0	1.591278130377523e+18
14378.0	1.590935655389593e+18
14379.0	1.590595379894681e+18
14380.0	1.590253659881472e+18
14381.0	1.5899071969492987e+18
14382.0	1.5895707483373565e+18
14383.0	1.5892227469344765e+18
14384.0	1.5888802434252797e+18
14385.0	1.5885484874006525e+18
14386.0	1.5882007494000637e+18
14387.0	1.5878666714087421e+18
14388.0	1.5875250151489533e+18
14389.0	1.5871853285343232e+18
14390.0	1.5868439809753085e+18
14391.0	1.586504344692326e+18
14392.0	1.586161052653977e+18
14393.0	1.585823998384537e+18
14394.0	1.5854665044328448e+18
14395.0	1.585135854026752e+18
14396.0	1.584747285315584e+18
14397.0	1.5843845870714875e+18
14398.0	1.5840431707258875e+18
14399.0	1.5830655170510848e+18
14400.0	1.5827079039811581e+18
14401.0	1.5823757989904381e+18
14402.0	1.5820384997736448e+18
14403.0	1.5798644141719516e+18
14404.0	1.5760663829807084e+18
14405.0	1.5804100461461476e+18
14406.0	1.5806814931124221e+18
14407.0	1.5777183297437706e+18
14408.0	1.5799916223791101e+18
14409.0	1.57965487177728e+18
14410.0	1.5793267631194112e+18
14411.0	1.5789905661657085e+18
14412.0	1.5786506731913213e+18
14413.0	1.578308758562406e+18
14414.0	1.5779677096378363e+18
14415.0	1.5776344604409853e+18
14416.0	1.577298347373363e+18
14417.0	1.5769524146012157e+18
14418.0	1.5766059734794237e+18
14419.0	1.576283953273241e+18
14420.0	1.575942151051673e+18
14421.0	1.5756003454746621e+18
14422.0	1.5752601588989947e+18
14423.0	1.5749211903492093e+18
14424.0	1.5631019403116462e+18
14425.0	1.5742480917987323e+18
14426.0	1.5739108596908032e+18
14427.0	1.5735732014415867e+18
14428.0	1.5732243410452475e+18
14429.0	1.5728965041782781e+18
14430.0	1.5725609565028347e+18
14431.0	1.5721575080787965e+18
14432.0	1.5718780650913792e+18
14433.0	1.569368272430693e+18
14434.0	1.571204079026176e+18
14435.0	1.570861100721766e+18
14436.0	1.5704652137889792e+18
14437.0	1.5700877616611325e+18
14438.0	1.5696908580290563e+18
14439.0	1.5694003840221181e+18
14440.0	1.5690763958484987e+18
14441.0	1.568736229405491e+18
14442.0	1.5683966937858048e+18
14443.0	1.5680412281995256e+18
14444.0	1.5677284874715133e+18
14445.0	1.5673940487700477e+18
14446.0	1.564608566185166e+18
14447.0	1.5667190829154301e+18
14448.0	1.5663863152246781e+18
14449.0	1.5660502843654141e+18
14450.0	1.5657115892842496e+18
14451.0	1.5653777612734464e+18
14452.0	1.5650412036095997e+18
14453.0	1.5646692527308797e+18
14454.0	1.5643707759919104e+18
14455.0	1.5640304803643387e+18
14456.0	1.5636914530942976e+18
14457.0	1.5633519208300544e+18
14458.0	1.5630264663277565e+18
14459.0	1.562689611707187e+18
14460.0	1.562357093996953e+18
14461.0	1.562011718228377e+18
14462.0	1.5616196430790656e+18
14463.0	1.5613499157774333e+18
14464.0	1.5610194717310976e+18
14465.0	1.5606847276843003e+18
14466.0	1.5603614709972987e+18
14467.0	1.559996700767027e+18
14468.0	1.5596899897704443e+18
14469.0	1.5593470181769216e+18
14470.0	1.5590109051092987e+18
14471.0	1.558683732620083e+18
14472.0	1.5583523356278781e+18
14473.0	1.5580209755455485e+18
14474.0	1.557688078670233e+18
14475.0	1.5573509489033213e+18
14476.0	1.5568778515447803e+18
14477.0	1.556684764243558e+18
14478.0	1.556349548756992e+18
14479.0	1.5560146923028477e+18
14480.0	1.5556749117358077e+18
14481.0	1.5553496870813693e+18
14482.0	1.5550145068269565e+18
14483.0	1.5546773602828288e+18
14484.0	1.5543455740592125e+18
14485.0	1.5539963529527293e+18
14486.0	1.5535386822443005e+18
14487.0	1.5533482071556093e+18
14488.0	1.5530094114111485e+18
14489.0	1.5526798850785275e+18
14490.0	1.552348957848371e+18
14491.0	1.5520133413863421e+18
14492.0	1.551680796832563e+18
14493.0	1.5513445210259456e+18
14494.0	1.5510054803341307e+18
14495.0	1.550683512137318e+18
14496.0	1.5502862226292733e+18
14497.0	1.5500180841299968e+18
14498.0	1.549681445935513e+18
14499.0	1.5493462623256573e+18
14500.0	1.5490137899139072e+18
14501.0	1.5486209463681021e+18
14502.0	1.5481869483114493e+18
14503.0	1.548005408768e+18
14504.0	1.547682568155955e+18
14505.0	1.5473086677647352e+18
14506.0	1.5469064239448064e+18
14507.0	1.546584408771788e+18
14508.0	1.546369977496371e+18
14509.0	1.5460382701256704e+18
14510.0	1.5457047038394365e+18
14511.0	1.545375142274662e+18
14512.0	1.5450359522656253e+18
14513.0	1.544712193939865e+18
14514.0	1.5443571444285437e+18
14515.0	1.5440480594558973e+18
14516.0	1.542563438578893e+18
14517.0	1.5433906341806077e+18
14518.0	1.5430555260682237e+18
14519.0	1.5427241341091837e+18
14520.0	1.5423934451154941e+18
14521.0	1.5420685895598077e+18
14522.0	1.5417390682603523e+18
14523.0	1.541272542537318e+18
14524.0	1.5409370418380797e+18
14525.0	1.5407445836824576e+18
14526.0	1.5404161512243197e+18
14527.0	1.540075694535475e+18
14528.0	1.5396870067060733e+18
14529.0	1.5394199570481147e+18
14530.0	1.5390851106603003e+18
14531.0	1.5387632011837437e+18
14532.0	1.5382282328080381e+18
14533.0	1.5381031586627581e+18
14534.0	1.5377740886704128e+18
14535.0	1.537438512473702e+18
14536.0	1.5371113886384125e+18
14537.0	1.5367779918020605e+18
14538.0	1.5364540942254077e+18
14539.0	1.5361244705849344e+18
14540.0	1.5357947144044541e+18
14541.0	1.5354545496391675e+18
14542.0	1.5351342960738301e+18
14543.0	1.5347141677416443e+18
14544.0	1.534474139467776e+18
14545.0	1.5341419807899643e+18
14546.0	1.5190968613470118e+18
14547.0	1.5203613114630031e+18
14548.0	1.5331504204808192e+18
14549.0	1.5327700373733376e+18
14550.0	1.5324951561109504e+18
14551.0	1.5321697972387837e+18
14552.0	1.5318402776170493e+18
14553.0	1.5315077431296e+18
14554.0	1.5311831627202557e+18
14555.0	1.5308539400552443e+18
14556.0	1.5305220229693435e+18
14557.0	1.5301968989782016e+18
14558.0	1.5298682920370173e+18
14559.0	1.528688184341297e+18
14560.0	1.5292022566944763e+18
14561.0	1.5288791493246976e+18
14562.0	1.5285418383638528e+18
14563.0	1.528225441880473e+18
14564.0	1.5278906592460797e+18
14565.0	1.5275686927269885e+18
14566.0	1.527240360932147e+18
14567.0	1.5269116180955136e+18
14568.0	1.5265674033102843e+18
14569.0	1.5262544260235264e+18
14570.0	1.5256851465633787e+18
14571.0	1.5248612074192896e+18
14572.0	1.524488944484352e+18
14573.0	1.5241614616166395e+18
14574.0	1.5238384800759805e+18
14575.0	1.5235263231950843e+18
14576.0	1.5231961811386365e+18
14577.0	1.5228684583567357e+18
14578.0	1.5225468995239928e+18
14579.0	1.5222205239525373e+18
14580.0	1.5218925444792315e+18
14581.0	1.5215565740179456e+18
14582.0	1.521230636331827e+18
14583.0	1.5209075641942016e+18
14584.0	1.5212217494405115e+18
14585.0	1.520909520417587e+18
14586.0	1.5205864046591995e+18
14587.0	1.5202438541737981e+18
14588.0	1.5199135560892416e+18
14589.0	1.5195912036941827e+18
14590.0	1.5192760839569403e+18
14591.0	1.5189601589133307e+18
14592.0	1.5186434084306941e+18
14593.0	1.5182747223982075e+18
14594.0	1.5180158197563387e+18
14595.0	1.5176982908108797e+18
14596.0	1.517342850390425e+18
14597.0	1.517030258979635e+18
14598.0	1.516752396405964e+18
14599.0	1.516441309911449e+18
14600.0	1.516125430166323e+18
14601.0	1.5158115552985088e+18
14602.0	1.5154917899501565e+18
14603.0	1.5151819567136763e+18
14604.0	1.514844976263987e+18
14605.0	1.5145426021777405e+18
14606.0	1.5142023350714365e+18
14607.0	1.5139199023841277e+18
14608.0	1.5136049923620864e+18
14609.0	1.5132812424249341e+18
14610.0	1.5129588296318973e+18
14611.0	1.5126606649491453e+18
14612.0	1.512348375528243e+18
14613.0	1.512034084585472e+18
14614.0	1.5117175555620867e+18
14615.0	1.511403328372736e+18
14616.0	1.5110907185070077e+18
14617.0	1.510776571848294e+18
14618.0	1.5104566957703165e+18
14619.0	1.510127818715955e+18
14620.0	1.5097413270241275e+18
14621.0	1.509518881272627e+18
14622.0	1.5092030820581373e+18
14623.0	1.508889962165043e+18
14624.0	1.5085473110163453e+18
14625.0	1.5082593636581373e+18
14626.0	1.5079421803233277e+18
14627.0	1.5076232974565376e+18
14628.0	1.5073172525154304e+18
14629.0	1.5070027384356856e+18
14630.0	1.5066871757799421e+18
14631.0	1.5063726147239936e+18
14632.0	1.5050882315976707e+18
14633.0	1.505640678477004e+18
14634.0	1.5054267186413563e+18
14635.0	1.5049871438381048e+18
14636.0	1.504413005696204e+18
14637.0	1.5044862583767037e+18
14638.0	1.5041699038363648e+18
14639.0	1.503850871652352e+18
14640.0	1.5035405334216701e+18
14641.0	1.49951296642744e+18
14642.0	1.502921474283929e+18
14643.0	1.5026083392913405e+18
14644.0	1.5022881075363835e+18
14645.0	1.501965526971187e+18
14646.0	1.501655047811891e+18
14647.0	1.5013390640480253e+18
14648.0	1.5010337388494848e+18
