# Flux units: erg / (cm m2 s)
# Wavelength units: Angstrom
wave	flux
14000.0	1.904800570959462e+18
14001.0	1.904338509653606e+18
14002.0	1.904068997100339e+18
14003.0	1.903698765886259e+18
14004.0	1.9033276555460603e+18
14005.0	1.9029564948742141e+18
14006.0	1.9025779471941627e+18
14007.0	1.902205538297446e+18
14008.0	1.9017459029770235e+18
14009.0	1.901471261628825e+18
14010.0	1.9010884173037565e+18
14011.0	1.9001153807187968e+18
14012.0	1.9003598163673083e+18
14013.0	1.8999901891330043e+18
14014.0	1.8996142150778875e+18
14015.0	1.8992472302551037e+18
14016.0	1.8988793579175933e+18
14017.0	1.8985092894425083e+18
14018.0	1.8981391186264061e+18
14019.0	1.897769281676902e+18
14020.0	1.8973986696200187e+18
14021.0	1.8970281968140283e+18
14022.0	1.8966585158926333e+18
14023.0	1.8962785119502336e+18
14024.0	1.89590643188695e+18
14025.0	1.8955509663006715e+18
14026.0	1.8951799247470587e+18
14027.0	1.8948125607591933e+18
14028.0	1.89443720913879e+18
14029.0	1.8940708165517307e+18
14030.0	1.8933656953290752e+18
14031.0	1.8933137463574528e+18
14032.0	1.8929655906041856e+18
14033.0	1.892556989897113e+18
14034.0	1.8922292587266045e+18
14035.0	1.891861418265804e+18
14036.0	1.8914929973133307e+18
14037.0	1.891124606559846e+18
14038.0	1.8907562879483904e+18
14039.0	1.8901901760266237e+18
14040.0	1.8897321462857725e+18
14041.0	1.8893681931059192e+18
14042.0	1.8889919640371197e+18
14043.0	1.888595713038745e+18
14044.0	1.8882558469079035e+18
14045.0	1.887896170240409e+18
14046.0	1.8875280244342781e+18
14047.0	1.8871580801105915e+18
14048.0	1.8867962928693245e+18
14049.0	1.886430302935449e+18
14050.0	1.8860631016865787e+18
14051.0	1.8856872735932413e+18
14052.0	1.885325016589926e+18
14053.0	1.8849616824893435e+18
14054.0	1.884595081864806e+18
14055.0	1.8842282815913984e+18
14056.0	1.8838615383605243e+18
14057.0	1.883494937735987e+18
14058.0	1.8831283907985403e+18
14059.0	1.8827619327803387e+18
14060.0	1.882395551937331e+18
14061.0	1.882022581003878e+18
14062.0	1.8816630049996797e+18
14063.0	1.8812814458093565e+18
14064.0	1.8808708838457344e+18
14065.0	1.8805564268085243e+18
14066.0	1.880199031842406e+18
14067.0	1.8798301864263675e+18
14068.0	1.8794675754237947e+18
14069.0	1.879100614089113e+18
14070.0	1.878736206246707e+18
14071.0	1.8783681007058936e+18
14072.0	1.8780055433904125e+18
14073.0	1.8776402681659387e+18
14074.0	1.8772751372255227e+18
14075.0	1.8768929069465597e+18
14076.0	1.8765412497883133e+18
14077.0	1.8761040640606203e+18
14078.0	1.8758094242709504e+18
14079.0	1.8754403993387003e+18
14080.0	1.8750857038266365e+18
14081.0	1.8747211013685245e+18
14082.0	1.874353225675571e+18
14083.0	1.8739906213838843e+18
14084.0	1.8736273359372288e+18
14085.0	1.8730045707124733e+18
14086.0	1.872892290872115e+18
14087.0	1.8725350972325883e+18
14088.0	1.8721598680858621e+18
14089.0	1.8718042900922365e+18
14090.0	1.8714421371076603e+18
14091.0	1.8710795898585083e+18
14092.0	1.8707159386685437e+18
14093.0	1.8703523344547837e+18
14094.0	1.869988775539507e+18
14095.0	1.8696252250128381e+18
14096.0	1.8692445533372413e+18
14097.0	1.8688844975046653e+18
14098.0	1.8685283490856955e+18
14099.0	1.8681723214626813e+18
14100.0	1.8677973859172347e+18
14101.0	1.867446530709913e+18
14102.0	1.8670834298126333e+18
14103.0	1.866706103513907e+18
14104.0	1.8663553858797565e+18
14105.0	1.865995283070976e+18
14106.0	1.8656329673474045e+18
14107.0	1.86526956781568e+18
14108.0	1.8648968418295805e+18
14109.0	1.8645410742534144e+18
14110.0	1.864179461495193e+18
14111.0	1.8638110707417083e+18
14112.0	1.863451744718028e+18
14113.0	1.863097498835353e+18
14114.0	1.8627227243511805e+18
14115.0	1.862372266763878e+18
14116.0	1.8619928785453053e+18
14117.0	1.861065257884057e+18
14118.0	1.861288025758105e+18
14119.0	1.860913308316467e+18
14120.0	1.860558032312729e+18
14121.0	1.860192475231027e+18
14122.0	1.8598320704323581e+18
14123.0	1.859474106718617e+18
14124.0	1.8591115242373117e+18
14125.0	1.858300003588505e+18
14126.0	1.858398969030246e+18
14127.0	1.8580389870174205e+18
14128.0	1.8576770689138683e+18
14129.0	1.8573059770286075e+18
14130.0	1.8569365125332984e+18
14131.0	1.85659675377664e+18
14132.0	1.8562301917396987e+18
14133.0	1.8553372093186035e+18
14134.0	1.8555147676286976e+18
14135.0	1.8551421255286781e+18
14136.0	1.854783282688819e+18
14137.0	1.8544344793350141e+18
14138.0	1.8540692057882624e+18
14139.0	1.853715614217011e+18
14140.0	1.8533497585008637e+18
14141.0	1.8529925011079168e+18
14142.0	1.8525907958366205e+18
14143.0	1.8522725739921405e+18
14144.0	1.8519184287727616e+18
14145.0	1.8515578293583864e+18
14146.0	1.8511983758278653e+18
14147.0	1.850839881954099e+18
14148.0	1.8504811112562683e+18
14149.0	1.8501230686896123e+18
14150.0	1.8497641218310141e+18
14151.0	1.8494028395839488e+18
14152.0	1.8490466643214333e+18
14153.0	1.8486878449696765e+18
14154.0	1.84830439498711e+18
14155.0	1.8479427117645821e+18
14156.0	1.847608580086169e+18
14157.0	1.84725418320855e+18
14158.0	1.8468918154756096e+18
14159.0	1.8465377608531965e+18
14160.0	1.846173554337382e+18
14161.0	1.8457618649448443e+18
14162.0	1.8453580776210424e+18
14163.0	1.8451038793105408e+18
14164.0	1.8447198303813632e+18
14165.0	1.844317365102182e+18
14166.0	1.844030840451891e+18
14167.0	1.843661211539865e+18
14168.0	1.843315969989017e+18
14169.0	1.8429607023738875e+18
14170.0	1.8426001499357181e+18
14171.0	1.8422433421721597e+18
14172.0	1.8418890660904955e+18
14173.0	1.8414863457976312e+18
14174.0	1.8411705566494717e+18
14175.0	1.8408183257104381e+18
14176.0	1.840461586733465e+18
14177.0	1.8401049098321917e+18
14178.0	1.8397472581746688e+18
14179.0	1.839382736247193e+18
14180.0	1.8390353539235837e+18
14181.0	1.8386789857230843e+18
14182.0	1.8383218927468544e+18
14183.0	1.8379664556818432e+18
14184.0	1.8376051986006013e+18
14185.0	1.8372539491287037e+18
14186.0	1.8367730453315584e+18
14187.0	1.836517607184793e+18
14188.0	1.8361825024278525e+18
14189.0	1.8358292245905405e+18
14190.0	1.8354740626718715e+18
14191.0	1.8351183034843133e+18
14192.0	1.8347556757045243e+18
14193.0	1.8343908937302013e+18
14194.0	1.8340515695034365e+18
14195.0	1.8336981759033344e+18
14196.0	1.83334272541655e+18
14197.0	1.832987640673075e+18
14198.0	1.8326276116840443e+18
14199.0	1.8322754780528637e+18
14200.0	1.8318570979065853e+18
14201.0	1.8315297962328061e+18
14202.0	1.8311409272094715e+18
14203.0	1.830776217377177e+18
14204.0	1.83042822939607e+18
14205.0	1.8300735926042621e+18
14206.0	1.829596319396659e+18
14207.0	1.8293668171481088e+18
14208.0	1.82901281956823e+18
14209.0	1.8285243526021115e+18
14210.0	1.8282115078553592e+18
14211.0	1.8279449195708413e+18
14212.0	1.827594963622297e+18
14213.0	1.8272413955391485e+18
14214.0	1.8268870305382397e+18
14215.0	1.8265219012755456e+18
14216.0	1.8261804077547515e+18
14217.0	1.8258266467336187e+18
14218.0	1.8254611869597693e+18
14219.0	1.8250852884021243e+18
14220.0	1.8246934632333312e+18
14221.0	1.8243384556650493e+18
14222.0	1.8239729891803133e+18
14223.0	1.8236322942550013e+18
14224.0	1.8232789795078141e+18
14225.0	1.8227261115203581e+18
14226.0	1.822571324925542e+18
14227.0	1.8222190553989117e+18
14228.0	1.8213630617059325e+18
14229.0	1.8214210739634168e+18
14230.0	1.821159971828531e+18
14231.0	1.8208020953563133e+18
14232.0	1.8204542617255933e+18
14233.0	1.8200972241141755e+18
14234.0	1.8197489156882427e+18
14235.0	1.8193937722245115e+18
14236.0	1.8190436468260856e+18
14237.0	1.8186898925158397e+18
14238.0	1.8183383058219003e+18
14239.0	1.817936749867827e+18
14240.0	1.8159785836806147e+18
14241.0	1.8172073318809597e+18
14242.0	1.816856639412633e+18
14243.0	1.8163498936696832e+18
14244.0	1.8161529257983997e+18
14245.0	1.8157860584161277e+18
14246.0	1.8154299200634877e+18
14247.0	1.815092322212249e+18
14248.0	1.8147289730121725e+18
14249.0	1.8143913181183997e+18
14250.0	1.8140393807806461e+18
14251.0	1.8136902385270784e+18
14252.0	1.8133385562030077e+18
14253.0	1.8129862799654907e+18
14254.0	1.8126331011137533e+18
14255.0	1.8122507332616187e+18
14256.0	1.8117223902085117e+18
14257.0	1.8115688048623613e+18
14258.0	1.811230458747289e+18
14259.0	1.8108600463392768e+18
14260.0	1.8105183179374595e+18
14261.0	1.8101575239073787e+18
14262.0	1.8097938509070333e+18
14263.0	1.809116376858624e+18
14264.0	1.8090104505499643e+18
14265.0	1.8087205520015355e+18
14266.0	1.8083746343288827e+18
14267.0	1.8080240643342333e+18
14268.0	1.8076734607851517e+18
14269.0	1.8073137354637307e+18
14270.0	1.8069723275067387e+18
14271.0	1.806620811277107e+18
14272.0	1.8062712311382013e+18
14273.0	1.8059189481897981e+18
14274.0	1.8050993459560445e+18
14275.0	1.805176073197977e+18
14276.0	1.8048541553328125e+18
14277.0	1.804505648935731e+18
14278.0	1.8041704418377725e+18
14279.0	1.803819687293747e+18
14280.0	1.803463641215795e+18
14281.0	1.8031212568248317e+18
14282.0	1.802771914922393e+18
14283.0	1.8024223398166528e+18
14284.0	1.8020728150425597e+18
14285.0	1.8017232080601085e+18
14286.0	1.8013731648700413e+18
14287.0	1.8006044932308995e+18
14288.0	1.7999373640138747e+18
14289.0	1.7985757754949612e+18
14290.0	1.799237433661849e+18
14291.0	1.7988893869604861e+18
14292.0	1.7985413436145661e+18
14293.0	1.7981899012046843e+18
14294.0	1.7977048098144253e+18
14295.0	1.7974804313276413e+18
14296.0	1.796325962573415e+18
14297.0	1.7967941123309565e+18
14298.0	1.7962718107533312e+18
14299.0	1.7960859510767613e+18
14300.0	1.7957428167442432e+18
14301.0	1.7953975181508605e+18
14302.0	1.7950510686404605e+18
14303.0	1.794669962434969e+18
14304.0	1.7943389731291139e+18
14305.0	1.7940064503857144e+18
14306.0	1.7936420542873597e+18
14307.0	1.7933035353669627e+18
14308.0	1.7929622012297213e+18
14309.0	1.7926108225732605e+18
14310.0	1.792183396152115e+18
14311.0	1.7918527658786816e+18
14312.0	1.791532339508019e+18
14313.0	1.791119373369344e+18
14314.0	1.7908733170417661e+18
14315.0	1.7904700481339387e+18
14316.0	1.7900588872237053e+18
14317.0	1.7897540938629115e+18
14318.0	1.7894163282395128e+18
14319.0	1.7890694643318781e+18
14320.0	1.7887214713176061e+18
14321.0	1.7883718089703421e+18
14322.0	1.7879866359676925e+18
14323.0	1.7876613777588224e+18
14324.0	1.7873330543525888e+18
14325.0	1.7869762650439677e+18
14326.0	1.7866389071069181e+18
14327.0	1.7862852903698432e+18
14328.0	1.7859383006330875e+18
14329.0	1.7855980788252672e+18
14330.0	1.7852512618938363e+18
14331.0	1.7849042000150528e+18
14332.0	1.784557732049715e+18
14333.0	1.7842111533547517e+18
14334.0	1.7838645880815616e+18
14335.0	1.7835049047031803e+18
14336.0	1.783147984532275e+18
14337.0	1.782822258239078e+18
14338.0	1.7824757617524733e+18
14339.0	1.7821212038135805e+18
14340.0	1.7817862550847485e+18
14341.0	1.7814388492730365e+18
14342.0	1.7810918847021053e+18
14343.0	1.78074401416151e+18
14344.0	1.7803969304723456e+18
14345.0	1.78005645197312e+18
14346.0	1.779707670429696e+18
14347.0	1.779294291571507e+18
14348.0	1.7789501086629888e+18
14349.0	1.7786048855670784e+18
14350.0	1.7782428986769405e+18
14351.0	1.7778903053500413e+18
14352.0	1.7775583916195835e+18
14353.0	1.7772202417979387e+18
14354.0	1.7768736077381627e+18
14355.0	1.7765249318911997e+18
14356.0	1.7761811516358653e+18
14357.0	1.7758404701323267e+18
14358.0	1.7754950759088125e+18
14359.0	1.77513476170711e+18
14360.0	1.7748028781756408e+18
14361.0	1.7744590090010621e+18
14362.0	1.7741145610125307e+18
14363.0	1.7737692154429435e+18
14364.0	1.7733720114987003e+18
14365.0	1.7730695300382715e+18
14366.0	1.7727254947692541e+18
14367.0	1.7723902021074941e+18
14368.0	1.772044982367027e+18
14369.0	1.7717008900554747e+18
14370.0	1.771356351469977e+18
14371.0	1.7710119085146107e+18
14372.0	1.7706620901392381e+18
14373.0	1.7703227474575355e+18
14374.0	1.7699782608814072e+18
14375.0	1.7696325126586365e+18
14376.0	1.7692902004097021e+18
14377.0	1.7689453581565947e+18
14378.0	1.768599108295065e+18
14379.0	1.7682578211340288e+18
14380.0	1.7679127289004027e+18
14381.0	1.7675578874265597e+18
14382.0	1.7672243127517181e+18
14383.0	1.766867994882867e+18
14384.0	1.7664533308899325e+18
14385.0	1.7661281179795453e+18
14386.0	1.765766277051187e+18
14387.0	1.7654400642187261e+18
14388.0	1.7650942857969661e+18
14389.0	1.7647523124477947e+18
14390.0	1.7644066850209787e+18
14391.0	1.7640651143249917e+18
14392.0	1.7637198929068032e+18
14393.0	1.7633781259173888e+18
14394.0	1.762996476130099e+18
14395.0	1.7626798011449341e+18
14396.0	1.7623475938131965e+18
14397.0	1.7620042732535805e+18
14398.0	1.7616602312736765e+18
14399.0	1.7613174643621885e+18
14400.0	1.7609548281937917e+18
14401.0	1.7606241744322557e+18
14402.0	1.7602850079113216e+18
14403.0	1.758682100950628e+18
14404.0	1.754663551710001e+18
14405.0	1.757598713905148e+18
14406.0	1.7589121484587003e+18
14407.0	1.7567730081202184e+18
14408.0	1.7582143840452605e+18
14409.0	1.757867025209753e+18
14410.0	1.7575404701220861e+18
14411.0	1.757201503250022e+18
14412.0	1.7568563220971523e+18
14413.0	1.7565177461342203e+18
14414.0	1.7561726304124923e+18
14415.0	1.755831422104371e+18
14416.0	1.7554893044711421e+18
14417.0	1.7551420966305787e+18
14418.0	1.754791858824806e+18
14419.0	1.7544612990156797e+18
14420.0	1.7541151800164352e+18
14421.0	1.7537775049900027e+18
14422.0	1.7534305756512253e+18
14423.0	1.7530760797880315e+18
14424.0	1.7454108550102994e+18
14425.0	1.7523300557127677e+18
14426.0	1.7520030426071035e+18
14427.0	1.7514855644790781e+18
14428.0	1.7508868359716861e+18
14429.0	1.7505631112003584e+18
14430.0	1.7502262179921917e+18
14431.0	1.7497942449455104e+18
14432.0	1.7495358640750587e+18
14433.0	1.7478419121962998e+18
14434.0	1.7488416782417915e+18
14435.0	1.7484970842914813e+18
14436.0	1.748177151170969e+18
14437.0	1.7478358942089216e+18
14438.0	1.7474535498448893e+18
14439.0	1.7471424683835387e+18
14440.0	1.746811084813107e+18
14441.0	1.7464618267967485e+18
14442.0	1.7461148253159421e+18
14443.0	1.7457317662425088e+18
14444.0	1.7454417670307837e+18
14445.0	1.7451047043727357e+18
14446.0	1.7427018782081032e+18
14447.0	1.7444089330925565e+18
14448.0	1.7440832822968317e+18
14449.0	1.7437428474183677e+18
14450.0	1.743396312344166e+18
14451.0	1.743059778168422e+18
14452.0	1.742718517850931e+18
14453.0	1.7423567155101696e+18
14454.0	1.742038621172531e+18
14455.0	1.7416890125123581e+18
14456.0	1.7413524145831933e+18
14457.0	1.7410094782218235e+18
14458.0	1.7406745479479293e+18
14459.0	1.7403317239939064e+18
14460.0	1.7399911095992315e+18
14461.0	1.7392320915701763e+18
14462.0	1.7388120152473597e+18
14463.0	1.7385208516968448e+18
14464.0	1.7381886141661181e+18
14465.0	1.7378249831088125e+18
14466.0	1.737506603558502e+18
14467.0	1.7371348892385277e+18
14468.0	1.736823616516915e+18
14469.0	1.736463253661286e+18
14470.0	1.736117455106867e+18
14471.0	1.7357972418068475e+18
14472.0	1.7354619676000253e+18
14473.0	1.735126869553971e+18
14474.0	1.7347362171125757e+18
14475.0	1.7343821876559864e+18
14476.0	1.73395928940544e+18
14477.0	1.7337054954258432e+18
14478.0	1.7333626681163776e+18
14479.0	1.7330246894223357e+18
14480.0	1.7326672021815293e+18
14481.0	1.7323459554050043e+18
14482.0	1.7320020526759933e+18
14483.0	1.73165459317719e+18
14484.0	1.7313149266952187e+18
14485.0	1.730944561263411e+18
14486.0	1.7303274281500672e+18
14487.0	1.7303050372775933e+18
14488.0	1.7299599936978941e+18
14489.0	1.7296179062636544e+18
14490.0	1.7292827562082304e+18
14491.0	1.7289446768508923e+18
14492.0	1.7286066226593787e+18
14493.0	1.7282619632779261e+18
14494.0	1.7279049676095485e+18
14495.0	1.727586559537971e+18
14496.0	1.7271035569111037e+18
14497.0	1.7269062870499323e+18
14498.0	1.7265678369161213e+18
14499.0	1.7262284908789757e+18
14500.0	1.7258884401987581e+18
14501.0	1.725504807344537e+18
14502.0	1.7249548703367165e+18
14503.0	1.7248505512853504e+18
14504.0	1.7245240515624957e+18
14505.0	1.724152741573427e+18
14506.0	1.7237718283059195e+18
14507.0	1.7232499763576827e+18
14508.0	1.7231726015152125e+18
14509.0	1.7228336094773248e+18
14510.0	1.7224908777979904e+18
14511.0	1.7221546724556797e+18
14512.0	1.7217987052306427e+18
14513.0	1.7214759787036667e+18
14514.0	1.7211001388662784e+18
14515.0	1.7207955099222016e+18
14516.0	1.717879693534824e+18
14517.0	1.720114363341209e+18
14518.0	1.719779528697446e+18
14519.0	1.7194408201945088e+18
14520.0	1.719101715749273e+18
14521.0	1.718761802642227e+18
14522.0	1.7184230035423232e+18
14523.0	1.7179934380261376e+18
14524.0	1.71765413225431e+18
14525.0	1.7173997594607616e+18
14526.0	1.7170640272359421e+18
14527.0	1.7167040485785597e+18
14528.0	1.7162459550842877e+18
14529.0	1.7160368673521661e+18
14530.0	1.7156495586099197e+18
14531.0	1.7153070232240125e+18
14532.0	1.7148488592654333e+18
14533.0	1.7146297823789053e+18
14534.0	1.714292249958809e+18
14535.0	1.713941371263385e+18
14536.0	1.7136093468033021e+18
14537.0	1.7132609880457208e+18
14538.0	1.7129349094309885e+18
14539.0	1.712595679156633e+18
14540.0	1.7122562626551805e+18
14541.0	1.7118928262135805e+18
14542.0	1.71157496004608e+18
14543.0	1.7111711827886077e+18
14544.0	1.7108968971173888e+18
14545.0	1.710549028254515e+18
14546.0	1.7010745787023306e+18
14547.0	1.7015473975590843e+18
14548.0	1.7095221468725248e+18
14549.0	1.7090710058565632e+18
14550.0	1.7088519373586432e+18
14551.0	1.7085224882012157e+18
14552.0	1.7081818285080576e+18
14553.0	1.707832854026649e+18
14554.0	1.7072658411683835e+18
14555.0	1.7069262753497085e+18
14556.0	1.706585087174246e+18
14557.0	1.7062478382891003e+18
14558.0	1.7059067709095933e+18
14559.0	1.703672545699427e+18
14560.0	1.7052252921397248e+18
14561.0	1.7048830956535803e+18
14562.0	1.7045257174646784e+18
14563.0	1.7042113191477248e+18
14564.0	1.7038649367461888e+18
14565.0	1.703533675649433e+18
14566.0	1.7031943648444413e+18
14567.0	1.7028543997280253e+18
14568.0	1.7025040193159165e+18
14569.0	1.7021750885744637e+18
14570.0	1.7013070672953334e+18
14571.0	1.7014928615407616e+18
14572.0	1.701115432901017e+18
14573.0	1.700766837584691e+18
14574.0	1.700459683669606e+18
14575.0	1.7001356468420605e+18
14576.0	1.6997964702547965e+18
14577.0	1.6994513964761085e+18
14578.0	1.6991166591401981e+18
14579.0	1.6987791938289661e+18
14580.0	1.6984394820485115e+18
14581.0	1.6980954652344315e+18
14582.0	1.6977591994941437e+18
14583.0	1.6974196017987581e+18
14584.0	1.697003867419443e+18
14585.0	1.696165051917926e+18
14586.0	1.6958210871132152e+18
14587.0	1.6954825749037053e+18
14588.0	1.6951437892255741e+18
14589.0	1.694809924304896e+18
14590.0	1.6944760879054843e+18
14591.0	1.6941411408543741e+18
14592.0	1.6938017897840637e+18
14593.0	1.6933480751431677e+18
14594.0	1.6931389253353472e+18
14595.0	1.6927480195579904e+18
14596.0	1.6923585465548797e+18
14597.0	1.6920192122617853e+18
14598.0	1.6917355397382136e+18
14599.0	1.6914072867962875e+18
14600.0	1.6910715092729853e+18
14601.0	1.6907373020971003e+18
14602.0	1.6903989291384832e+18
14603.0	1.6900670489624576e+18
14604.0	1.6896858924253181e+18
14605.0	1.68938649461719e+18
14606.0	1.688988032381747e+18
14607.0	1.6887169830354941e+18
14608.0	1.6883885572882435e+18
14609.0	1.6880489344270333e+18
14610.0	1.6877049176129533e+18
14611.0	1.6873793926463485e+18
14612.0	1.6870499753656315e+18
14613.0	1.6867153454039037e+18
14614.0	1.6863759188361213e+18
14615.0	1.686043810489958e+18
14616.0	1.685708333278822e+18
14617.0	1.6853719719084032e+18
14618.0	1.6850327449894907e+18
14619.0	1.684665548773785e+18
14620.0	1.684237681111859e+18
14621.0	1.684027059942195e+18
14622.0	1.683687380038451e+18
14623.0	1.68335391106007e+18
14624.0	1.682954378438246e+18
14625.0	1.6826766333050877e+18
14626.0	1.6823408608149504e+18
14627.0	1.6819992884412416e+18
14628.0	1.6816689584799741e+18
14629.0	1.681331503235072e+18
14630.0	1.680992673936179e+18
14631.0	1.6806554535723003e+18
14632.0	1.6797248482443267e+18
14633.0	1.6799061495513085e+18
14634.0	1.679639185457152e+18
14635.0	1.6792666943520765e+18
14636.0	1.678868183462707e+18
14637.0	1.678628066269593e+18
14638.0	1.6782868143407104e+18
14639.0	1.677938650198835e+18
14640.0	1.6776059127070715e+18
14641.0	1.6749797784420337e+18
14642.0	1.676926673695539e+18
14643.0	1.6765948488843261e+18
14644.0	1.6762443476762621e+18
14645.0	1.6758911201705981e+18
14646.0	1.67556731151319e+18
14647.0	1.6752232275902461e+18
