# Flux units: erg / (cm m2 s)
# Wavelength units: Angstrom
wave	flux
14000.0	1.1595217220141053e+18
14001.0	1.159260402614272e+18
14002.0	1.1592182548922365e+18
14003.0	1.159068772414259e+18
14004.0	1.158917228016435e+18
14005.0	1.1587657037512701e+18
14006.0	1.1586120261304317e+18
14007.0	1.1584611125559293e+18
14008.0	1.1582848133758973e+18
14009.0	1.1581595974631424e+18
14010.0	1.1580084498464765e+18
14011.0	1.157681506366259e+18
14012.0	1.1577057653817341e+18
14013.0	1.1575547402387453e+18
14014.0	1.1574035297075197e+18
14015.0	1.157251917361971e+18
14016.0	1.1571012386684925e+18
14017.0	1.1569501556441088e+18
14018.0	1.1567919817293821e+18
14019.0	1.1566480122445821e+18
14020.0	1.1564969275424765e+18
14021.0	1.1563458495512573e+18
14022.0	1.1561949342990333e+18
14023.0	1.1560440635064317e+18
14024.0	1.1558916785700861e+18
14025.0	1.155742545897062e+18
14026.0	1.1555914570006525e+18
14027.0	1.1554410459037693e+18
14028.0	1.1552903227506688e+18
14029.0	1.155139602953011e+18
14030.0	1.1549229671514112e+18
14031.0	1.154836950364979e+18
14032.0	1.154687704445747e+18
14033.0	1.1545300212645885e+18
14034.0	1.1543866851196928e+18
14035.0	1.154236271506227e+18
14036.0	1.1540830670028797e+18
14037.0	1.153934659105587e+18
14038.0	1.1537850516373501e+18
14039.0	1.1536347143602173e+18
14040.0	1.1534844148318205e+18
14041.0	1.153334135436083e+18
14042.0	1.1531814812254208e+18
14043.0	1.1530234331398141e+18
14044.0	1.1528755629522941e+18
14045.0	1.1527279863660541e+18
14046.0	1.1525833080438783e+18
14047.0	1.1524330378756093e+18
14048.0	1.152283130934067e+18
14049.0	1.1521332197982205e+18
14050.0	1.1519832625250303e+18
14051.0	1.1518315587436541e+18
14052.0	1.1516834176040957e+18
14053.0	1.1515335777714175e+18
14054.0	1.1513837169672191e+18
14055.0	1.1512339308216319e+18
14056.0	1.1510841648087037e+18
14057.0	1.1509344810041343e+18
14058.0	1.1507847552565247e+18
14059.0	1.1506286684274685e+18
14060.0	1.1504855352868861e+18
14061.0	1.1503340462538751e+18
14062.0	1.1501863916535804e+18
14063.0	1.1500339614187516e+18
14064.0	1.1498673821188095e+18
14065.0	1.1497357061390333e+18
14066.0	1.1495885414334461e+18
14067.0	1.1494391638130685e+18
14068.0	1.1492898155528191e+18
14069.0	1.1491402768711677e+18
14070.0	1.1489912004018176e+18
14071.0	1.1488411735031805e+18
14072.0	1.1486927614115837e+18
14073.0	1.1485435817623551e+18
14074.0	1.1483944591556605e+18
14075.0	1.148242443318067e+18
14076.0	1.1480962558853119e+18
14077.0	1.1479326545412096e+18
14078.0	1.1477973580382205e+18
14079.0	1.1476481112801277e+18
14080.0	1.1475003165900796e+18
14081.0	1.1473514187980797e+18
14082.0	1.1472024295702525e+18
14083.0	1.147053366522675e+18
14084.0	1.1469048311185405e+18
14085.0	1.1467043886858239e+18
14086.0	1.1466041129435132e+18
14087.0	1.1464540726231039e+18
14088.0	1.1463098581909501e+18
14089.0	1.1461613840236541e+18
14090.0	1.1460125994778623e+18
14091.0	1.1458642201018365e+18
14092.0	1.1457156888920061e+18
14093.0	1.1455671828479997e+18
14094.0	1.1454187179081725e+18
14095.0	1.1452702789730301e+18
14096.0	1.1451191439392767e+18
14097.0	1.144971242713907e+18
14098.0	1.1448241610555391e+18
14099.0	1.1446768847814652e+18
14100.0	1.144525283341107e+18
14101.0	1.1443803902705661e+18
14102.0	1.1442321551785983e+18
14103.0	1.1440790555328511e+18
14104.0	1.143935899743027e+18
14105.0	1.1437877846081533e+18
14106.0	1.1436397072220159e+18
14107.0	1.1434860707053567e+18
14108.0	1.1433437034446847e+18
14109.0	1.1431947611930621e+18
14110.0	1.1430476157812736e+18
14111.0	1.1428991013486592e+18
14112.0	1.1427515801272316e+18
14113.0	1.1426041595691005e+18
14114.0	1.1424563925614592e+18
14115.0	1.1423082019291133e+18
14116.0	1.1421600784056319e+18
14117.0	1.1418947005972479e+18
14118.0	1.1418653798957052e+18
14119.0	1.1417165810892797e+18
14120.0	1.1415691521425407e+18
14121.0	1.1414225578622975e+18
14122.0	1.1412724210728959e+18
14123.0	1.1411271018610687e+18
14124.0	1.140979238384435e+18
14125.0	1.140734706266931e+18
14126.0	1.1406852503896061e+18
14127.0	1.1405379917316095e+18
14128.0	1.1403903539085311e+18
14129.0	1.1402352670015485e+18
14130.0	1.1400833996423167e+18
14131.0	1.1399387162869759e+18
14132.0	1.1397913351553021e+18
14133.0	1.1395293891264507e+18
14134.0	1.1394916982718461e+18
14135.0	1.1393475987636221e+18
14136.0	1.1392024196415488e+18
14137.0	1.1390558152949759e+18
14138.0	1.1389079333634048e+18
14139.0	1.1387618692431872e+18
14140.0	1.1386148068786175e+18
14141.0	1.138467722703667e+18
14142.0	1.138314504778547e+18
14143.0	1.138174233831014e+18
14144.0	1.1380275858636797e+18
14145.0	1.1378807709630461e+18
14146.0	1.137733694337843e+18
14147.0	1.1375871411617788e+18
14148.0	1.1374405292654591e+18
14149.0	1.1372940104826877e+18
14150.0	1.1371473860034559e+18
14151.0	1.1370002338807805e+18
14152.0	1.1368542486134783e+18
14153.0	1.1367076996317183e+18
14154.0	1.136556986544947e+18
14155.0	1.1364027376599037e+18
14156.0	1.1362666132013052e+18
14157.0	1.1361219558506495e+18
14158.0	1.1359748062445567e+18
14159.0	1.1358292638957567e+18
14160.0	1.1356814205517823e+18
14161.0	1.1355246517288957e+18
14162.0	1.1353687972642815e+18
14163.0	1.1352394793222141e+18
14164.0	1.1350953043165183e+18
14165.0	1.1349482176249855e+18
14166.0	1.1348058176487423e+18
14167.0	1.1346598181208061e+18
14168.0	1.1345135023423485e+18
14169.0	1.1343677737664511e+18
14170.0	1.1342210209415165e+18
14171.0	1.1340750155415551e+18
14172.0	1.1339299463102461e+18
14173.0	1.1337798019710973e+18
14174.0	1.1336372543553533e+18
14175.0	1.133492423360512e+18
14176.0	1.1333466486472701e+18
14177.0	1.1332009091661823e+18
14178.0	1.1330551562633213e+18
14179.0	1.1329085343006719e+18
14180.0	1.1327638635282431e+18
14181.0	1.1326182398099455e+18
14182.0	1.1324724458029055e+18
14183.0	1.1323270980698111e+18
14184.0	1.1321805381828605e+18
14185.0	1.1320360536375295e+18
14186.0	1.1318659645439997e+18
14187.0	1.1317401899499516e+18
14188.0	1.131599517188096e+18
14189.0	1.1314542634074111e+18
14190.0	1.1313089081245696e+18
14191.0	1.1311635872350204e+18
14192.0	1.1310168604147711e+18
14193.0	1.1308703852527613e+18
14194.0	1.1307277814333437e+18
14195.0	1.1305829277892607e+18
14196.0	1.1304377209847807e+18
14197.0	1.130292613165875e+18
14198.0	1.1301462437003261e+18
14199.0	1.1300020988936191e+18
14200.0	1.1298444626886655e+18
14201.0	1.1297118379573247e+18
14202.0	1.1295675824209919e+18
14203.0	1.1294216332247039e+18
14204.0	1.1292771855892477e+18
14205.0	1.1291323118125055e+18
14206.0	1.1289627411349503e+18
14207.0	1.1288431808217085e+18
14208.0	1.1286985125658621e+18
14209.0	1.1285267356844031e+18
14210.0	1.1283891457359868e+18
14211.0	1.1282642410405887e+18
14212.0	1.1281196273106943e+18
14213.0	1.1279752165851133e+18
14214.0	1.127830367974195e+18
14215.0	1.1276821966356479e+18
14216.0	1.1275416362811388e+18
14217.0	1.1273971618021375e+18
14218.0	1.1272526915174397e+18
14219.0	1.1271082707255293e+18
14220.0	1.1269639170424831e+18
14221.0	1.1268194610184188e+18
14222.0	1.1266751744442368e+18
14223.0	1.1265308996141052e+18
14224.0	1.1263866440777728e+18
14225.0	1.1261947546697728e+18
14226.0	1.1260979937542143e+18
14227.0	1.125951474971443e+18
14228.0	1.1256396863504384e+18
14229.0	1.1256311584915451e+18
14230.0	1.1255217374887933e+18
14231.0	1.1253777327718397e+18
14232.0	1.1252337297326077e+18
14233.0	1.1250897602478077e+18
14234.0	1.1249458083790847e+18
14235.0	1.1248012667912192e+18
14236.0	1.1246580011106301e+18
14237.0	1.1245138009391103e+18
14238.0	1.1243701619654656e+18
14239.0	1.1242250348527615e+18
14240.0	1.1235929524011009e+18
14241.0	1.1239383785013248e+18
14242.0	1.123795128759091e+18
14243.0	1.1236189319200768e+18
14244.0	1.1235079934181375e+18
14245.0	1.1233634333753341e+18
14246.0	1.1232192189431805e+18
14247.0	1.1230773206056959e+18
14248.0	1.1229280612646911e+18
14249.0	1.1227898589478911e+18
14250.0	1.1226463835521023e+18
14251.0	1.1225034651598845e+18
14252.0	1.1223600350625788e+18
14253.0	1.1222164816527359e+18
14254.0	1.1220727638261757e+18
14255.0	1.1219205911216127e+18
14256.0	1.1217465392496637e+18
14257.0	1.1216391961051133e+18
14258.0	1.1215002992115711e+18
14259.0	1.1213545580527613e+18
14260.0	1.1212094594613247e+18
14261.0	1.1210711824859136e+18
14262.0	1.1209465218990079e+18
14263.0	1.1207440762667007e+18
14264.0	1.1206473992372221e+18
14265.0	1.1205174697656319e+18
14266.0	1.1203745245298685e+18
14267.0	1.1202316371755007e+18
14268.0	1.1200887414325248e+18
14269.0	1.1199452115107839e+18
14270.0	1.1198030145388543e+18
14271.0	1.1196601733218304e+18
14272.0	1.1195173866307583e+18
14273.0	1.1193731042508797e+18
14274.0	1.1191406877999103e+18
14275.0	1.1190796397051901e+18
14276.0	1.1189450453286911e+18
14277.0	1.1188010540335101e+18
14278.0	1.1186600390164479e+18
14279.0	1.1185172095434751e+18
14280.0	1.1183734296412157e+18
14281.0	1.1182324305625085e+18
14282.0	1.118090015486771e+18
14283.0	1.1179475651788796e+18
14284.0	1.1178051433922556e+18
14285.0	1.1176627308331004e+18
14286.0	1.1175201890893823e+18
14287.0	1.1173779963117564e+18
14288.0	1.117235421852467e+18
14289.0	1.1167809774026747e+18
14290.0	1.1169508911742973e+18
14291.0	1.1168077211238397e+18
14292.0	1.116665558545203e+18
14293.0	1.116522826380083e+18
14294.0	1.1163517130375167e+18
14295.0	1.1162389592408061e+18
14296.0	1.1158471936311296e+18
14297.0	1.11595414922199e+18
14298.0	1.1157681167400957e+18
14299.0	1.1156703114428415e+18
14300.0	1.1155291915681788e+18
14301.0	1.1153872739368959e+18
14302.0	1.1152445585489916e+18
14303.0	1.1150970104840188e+18
14304.0	1.1149579323965437e+18
14305.0	1.1148194574499839e+18
14306.0	1.1146770910281727e+18
14307.0	1.1145354594484221e+18
14308.0	1.114394577810227e+18
14309.0	1.1142527356764157e+18
14310.0	1.1141076756725757e+18
14311.0	1.1139532388827133e+18
14312.0	1.1138136851611645e+18
14313.0	1.113588332756992e+18
14314.0	1.1135433077424128e+18
14315.0	1.1134020880433151e+18
14316.0	1.1132494917140479e+18
14317.0	1.1131180959137788e+18
14318.0	1.1129778157387773e+18
14319.0	1.1128365155090431e+18
14320.0	1.1126950424739839e+18
14321.0	1.1125538127085565e+18
14322.0	1.1124045240074237e+18
14323.0	1.1122672704421885e+18
14324.0	1.1121299908722684e+18
14325.0	1.1119887686565885e+18
14326.0	1.111847586706227e+18
14327.0	1.1117064173387775e+18
14328.0	1.1115636440694783e+18
14329.0	1.1114241910112255e+18
14330.0	1.1112831164350461e+18
14331.0	1.1111420041101312e+18
14332.0	1.1110010427801597e+18
14333.0	1.110860066350694e+18
14334.0	1.1107179532648447e+18
14335.0	1.110573130658611e+18
14336.0	1.1104317507371007e+18
14337.0	1.1102950583697405e+18
14338.0	1.1101538764193788e+18
14339.0	1.1100129905868797e+18
14340.0	1.1098726869237757e+18
14341.0	1.1097316920393727e+18
14342.0	1.1095897987350527e+18
14343.0	1.1094504228519932e+18
14344.0	1.109306441623142e+18
14345.0	1.1091673610190845e+18
14346.0	1.1090280002355196e+18
14347.0	1.108884445147955e+18
14348.0	1.1087473987813375e+18
14349.0	1.1086069130854396e+18
14350.0	1.1084631264722941e+18
14351.0	1.108322483909427e+18
14352.0	1.1081837497548796e+18
14353.0	1.1080439989010431e+18
14354.0	1.1079039116640256e+18
14355.0	1.1077631969591295e+18
14356.0	1.1076216777867264e+18
14357.0	1.1074820988993533e+18
14358.0	1.1073434335313919e+18
14359.0	1.1072022809411583e+18
14360.0	1.1070613900754941e+18
14361.0	1.106921435378483e+18
14362.0	1.1067813783404541e+18
14363.0	1.106641171146342e+18
14364.0	1.1064916198817791e+18
14365.0	1.1063591134298111e+18
14366.0	1.1062186713546751e+18
14367.0	1.1060809840984061e+18
14368.0	1.1059408834396157e+18
14369.0	1.1058010226950141e+18
14370.0	1.1056610914861056e+18
14371.0	1.1055211887984639e+18
14372.0	1.1053812760444927e+18
14373.0	1.1052410520731647e+18
14374.0	1.1051001192644608e+18
14375.0	1.1049580086951933e+18
14376.0	1.1048220385869821e+18
14377.0	1.1046821434490879e+18
14378.0	1.1045419446435837e+18
14379.0	1.10440289927168e+18
14380.0	1.1042631777779711e+18
14381.0	1.1041229848444928e+18
14382.0	1.1039836022505468e+18
14383.0	1.103844041818112e+18
14384.0	1.1037018381352959e+18
14385.0	1.1035653630328828e+18
14386.0	1.1034258705481727e+18
14387.0	1.1032853999517695e+18
14388.0	1.1031453311696895e+18
14389.0	1.1030061935230973e+18
14390.0	1.1028663411671037e+18
14391.0	1.1027275415814141e+18
14392.0	1.1025880172199932e+18
14393.0	1.1024489181609983e+18
14394.0	1.102302437126963e+18
14395.0	1.1021683183845376e+18
14396.0	1.1020304012804093e+18
14397.0	1.1018919514996732e+18
14398.0	1.1017527643602943e+18
14399.0	1.1016128943882239e+18
14400.0	1.1014690524102652e+18
14401.0	1.1013339404566527e+18
14402.0	1.1011960258691072e+18
14403.0	1.100997392020275e+18
14404.0	1.1000780156829688e+18
14405.0	1.1002310884851699e+18
14406.0	1.1006398586421245e+18
14407.0	1.100413012226867e+18
14408.0	1.1003618131968e+18
14409.0	1.1002177413709821e+18
14410.0	1.1000839153909757e+18
14411.0	1.0999457113964541e+18
14412.0	1.0998061031489533e+18
14413.0	1.0996685400440832e+18
14414.0	1.0995292908290045e+18
14415.0	1.0993908293042173e+18
14416.0	1.0992524374048767e+18
14417.0	1.099113674729062e+18
14418.0	1.0989737812688895e+18
14419.0	1.0988353784643584e+18
14420.0	1.0986953197486077e+18
14421.0	1.0985579873304575e+18
14422.0	1.0984194192703484e+18
14423.0	1.0982794251468797e+18
14424.0	1.097790564755046e+18
14425.0	1.0980031815745533e+18
14426.0	1.0978657946304512e+18
14427.0	1.0977264237805564e+18
14428.0	1.0975850639917055e+18
14429.0	1.0974496970244093e+18
14430.0	1.0973124585586684e+18
14431.0	1.0971544524161023e+18
14432.0	1.0970356772765693e+18
14433.0	1.0968292898373628e+18
14434.0	1.0967562904928252e+18
14435.0	1.0966167770365951e+18
14436.0	1.0964828747202557e+18
14437.0	1.096344935805747e+18
14438.0	1.0962038838788093e+18
14439.0	1.0960684598689788e+18
14440.0	1.0959307013095421e+18
14441.0	1.0957876159840255e+18
14442.0	1.0956467460898812e+18
14443.0	1.0954989547552765e+18
14444.0	1.0953774893891581e+18
14445.0	1.0952408851021821e+18
14446.0	1.0948075069636609e+18
14447.0	1.0949630728601596e+18
14448.0	1.0948274735284221e+18
14449.0	1.094689720841011e+18
14450.0	1.0945518859452412e+18
14451.0	1.0944141240303612e+18
14452.0	1.0942764258689023e+18
14453.0	1.0941378645196797e+18
14454.0	1.0940010027024384e+18
14455.0	1.0938618541506557e+18
14456.0	1.0937247582912511e+18
14457.0	1.0935866700595197e+18
14458.0	1.0934491321204736e+18
14459.0	1.0933112863195132e+18
14460.0	1.0931738716930047e+18
14461.0	1.0930324154351613e+18
14462.0	1.0928853413265405e+18
14463.0	1.0927607746920447e+18
14464.0	1.0926242526134272e+18
14465.0	1.0924777942286336e+18
14466.0	1.0923496582414336e+18
14467.0	1.0922096632791037e+18
14468.0	1.0920748533153788e+18
14469.0	1.0919282103812093e+18
14470.0	1.091792329192243e+18
14471.0	1.0916598588112895e+18
14472.0	1.0915259640446973e+18
14473.0	1.0913887733940221e+18
14474.0	1.0912516548853759e+18
14475.0	1.0911144180973567e+18
14476.0	1.0909730742468605e+18
14477.0	1.0908401693360127e+18
14478.0	1.0907032320212991e+18
14479.0	1.0905658610155519e+18
14480.0	1.0904258727641085e+18
14481.0	1.0902921961013247e+18
14482.0	1.0901543511392255e+18
14483.0	1.0900158812258303e+18
14484.0	1.0898789044846591e+18
14485.0	1.089736289760051e+18
14486.0	1.089534589874995e+18
14487.0	1.0894706938478591e+18
14488.0	1.0893339519877119e+18
14489.0	1.0891953998659581e+18
14490.0	1.0890597636243455e+18
14491.0	1.088923299427123e+18
14492.0	1.0887869627367421e+18
14493.0	1.0886501889998847e+18
14494.0	1.0885091697885183e+18
14495.0	1.0883768470470655e+18
14496.0	1.0882082746138621e+18
14497.0	1.088102578991923e+18
14498.0	1.0879659000463359e+18
14499.0	1.087829362029363e+18
14500.0	1.0876927627755519e+18
14501.0	1.0875547802402813e+18
14502.0	1.0873510444400639e+18
14503.0	1.0872802814984191e+18
14504.0	1.0871455185108991e+18
14505.0	1.0870091314888703e+18
14506.0	1.086871060034355e+18
14507.0	1.0866774585114621e+18
14508.0	1.0866014392680443e+18
14509.0	1.086465194013491e+18
14510.0	1.0863277231833085e+18
14511.0	1.08619254244311e+18
14512.0	1.0860530164039677e+18
14513.0	1.0859201333035008e+18
14514.0	1.0857767124336637e+18
14515.0	1.0856471990370303e+18
14516.0	1.0846606937030659e+18
14517.0	1.0853740869320703e+18
14518.0	1.0852393340108797e+18
14519.0	1.0850993784750077e+18
14520.0	1.0849666933456893e+18
14521.0	1.0848311216963583e+18
14522.0	1.0846953646587903e+18
14523.0	1.084555029118976e+18
14524.0	1.0844196789288957e+18
14525.0	1.0842861482278911e+18
14526.0	1.0841515798560765e+18
14527.0	1.0840081849909245e+18
14528.0	1.0838391713169408e+18
14529.0	1.0837413593087997e+18
14530.0	1.0836046090600447e+18
14531.0	1.0834720195608575e+18
14532.0	1.0833310473256957e+18
14533.0	1.0832006866796541e+18
14534.0	1.0830652106604541e+18
14535.0	1.0829293076611068e+18
14536.0	1.0827936923910143e+18
14537.0	1.0826554581975037e+18
14538.0	1.0825225599975421e+18
14539.0	1.0823869556326397e+18
14540.0	1.0822513722392575e+18
14541.0	1.0821146605780991e+18
14542.0	1.0819802465566716e+18
14543.0	1.0818426616414205e+18
14544.0	1.0817091552673791e+18
14545.0	1.0815734468837373e+18
14546.0	1.0807545920749562e+18
14547.0	1.0806499014082552e+18
14548.0	1.081163363070771e+18
14549.0	1.081002066916147e+18
14550.0	1.0808952648368124e+18
14551.0	1.0807601033904127e+18
14552.0	1.080624038490931e+18
14553.0	1.080485042611814e+18
14554.0	1.0803542382084095e+18
14555.0	1.0802189626769405e+18
14556.0	1.0800836368138239e+18
14557.0	1.0799484434907133e+18
14558.0	1.0798127485288447e+18
14559.0	1.0790548587675636e+18
14560.0	1.0795421991436287e+18
14561.0	1.0794056653209597e+18
14562.0	1.0792675485679613e+18
14563.0	1.0791375595372541e+18
14564.0	1.0789958189056e+18
14565.0	1.0788676351033343e+18
14566.0	1.0787326196187132e+18
14567.0	1.0785975730962431e+18
14568.0	1.0784623059533821e+18
14569.0	1.0783274741792767e+18
14570.0	1.0780233451962364e+18
14571.0	1.0780569566707711e+18
14572.0	1.0779133244080127e+18
14573.0	1.0777784490131455e+18
14574.0	1.0776502878601215e+18
14575.0	1.077518177350451e+18
14576.0	1.0773830763020287e+18
14577.0	1.0772487369392124e+18
14578.0	1.0771133104127997e+18
14579.0	1.0769792327745532e+18
14580.0	1.0768445486399484e+18
14581.0	1.0767091070140413e+18
14582.0	1.0765750595747839e+18
14583.0	1.0764404677148668e+18
14584.0	1.0763030639935485e+18
14585.0	1.076171150616166e+18
14586.0	1.0760357316395005e+18
14587.0	1.0759015508213756e+18
14588.0	1.0757674597613567e+18
14589.0	1.0756338434965501e+18
14590.0	1.075500343833395e+18
14591.0	1.0753666822701052e+18
14592.0	1.0752329720528893e+18
14593.0	1.0750713512591357e+18
14594.0	1.0749663284035581e+18
14595.0	1.0748316283305983e+18
14596.0	1.0746875472773119e+18
14597.0	1.0745519177465852e+18
14598.0	1.0744312778194941e+18
14599.0	1.0742995447971837e+18
14600.0	1.0741660820439039e+18
14601.0	1.0740329699344381e+18
14602.0	1.0738988688080896e+18
14603.0	1.0737658120634367e+18
14604.0	1.0736203292737533e+18
14605.0	1.0734904702664701e+18
14606.0	1.0733408342769663e+18
14607.0	1.0732278003007485e+18
14608.0	1.0730934433218557e+18
14609.0	1.0729593380012031e+18
14610.0	1.0728221406396413e+18
14611.0	1.072690264172134e+18
14612.0	1.0725664541900797e+18
14613.0	1.0724335182413823e+18
14614.0	1.0722946876178431e+18
14615.0	1.0721644083412991e+18
14616.0	1.0720343396188159e+18
14617.0	1.0718917592875004e+18
14618.0	1.0717615479586815e+18
14619.0	1.0716278167699455e+18
14620.0	1.0714779047952383e+18
14621.0	1.0713693604020221e+18
14622.0	1.071236436197376e+18
14623.0	1.0710860309725183e+18
14624.0	1.0709389870628863e+18
14625.0	1.0708196171710463e+18
14626.0	1.070682682372915e+18
14627.0	1.0705491667714045e+18
14628.0	1.0704210316230652e+18
14629.0	1.0702881871101951e+18
14630.0	1.0701516272828415e+18
14631.0	1.0700188037414911e+18
14632.0	1.069850733785907e+18
14633.0	1.0697514202169341e+18
14634.0	1.0696236457787391e+18
14635.0	1.0694718908268541e+18
14636.0	1.0693134962917376e+18
14637.0	1.0692258370158591e+18
14638.0	1.0690925831389181e+18
14639.0	1.0689571826171901e+18
14640.0	1.0688268135825408e+18
14641.0	1.0685771409260541e+18
14642.0	1.0685610507370493e+18
14643.0	1.0684294963920893e+18
14644.0	1.0682967366041596e+18
