# Flux units: erg / (cm m2 s)
# Wavelength units: Angstrom
wave	flux
14000.0	1.959576880965222e+18
14001.0	1.9590971180187645e+18
14002.0	1.9586213581160445e+18
14003.0	1.958146713898188e+18
14004.0	1.9576726770155515e+18
14005.0	1.9571985696686077e+18
14006.0	1.9567239019626493e+18
14007.0	1.9562502559891453e+18
14008.0	1.9557672516845565e+18
14009.0	1.9553034740695035e+18
14010.0	1.954828665434931e+18
14011.0	1.9543036325265405e+18
14012.0	1.953883557881446e+18
14013.0	1.9534106534608893e+18
14014.0	1.9529377825947643e+18
14015.0	1.952464837908889e+18
14016.0	1.9519925139800061e+18
14017.0	1.951520080999219e+18
14018.0	1.9510474232037373e+18
14019.0	1.9505746949439483e+18
14020.0	1.9500972355092475e+18
14021.0	1.949625304167219e+18
14022.0	1.9491535254978555e+18
14023.0	1.9486807234183165e+18
14024.0	1.9482093037813755e+18
14025.0	1.9477392867196925e+18
14026.0	1.947267945935667e+18
14027.0	1.946797083302297e+18
14028.0	1.9463262038917117e+18
14029.0	1.9458550862446587e+18
14030.0	1.9453261358563328e+18
14031.0	1.9449123056910336e+18
14032.0	1.944443969706393e+18
14033.0	1.9439689261907965e+18
14034.0	1.943503725867827e+18
14035.0	1.943033827924377e+18
14036.0	1.9425640474214397e+18
14037.0	1.942094177999257e+18
14038.0	1.9416249662439421e+18
14039.0	1.94115143771095e+18
14040.0	1.9406761760915453e+18
14041.0	1.9402079239929853e+18
14042.0	1.939738465612595e+18
14043.0	1.9392668714926072e+18
14044.0	1.9388009900146683e+18
14045.0	1.9383334056493053e+18
14046.0	1.9378650159775741e+18
14047.0	1.9373965289979904e+18
14048.0	1.9369285352685565e+18
14049.0	1.9364606858231805e+18
14050.0	1.9359928514772987e+18
14051.0	1.9355243040997373e+18
14052.0	1.9350575921496061e+18
14053.0	1.9345900614713341e+18
14054.0	1.9341229233799165e+18
14055.0	1.9336553423699965e+18
14056.0	1.9331887864479741e+18
14057.0	1.9327218832375803e+18
14058.0	1.9322552182636544e+18
14059.0	1.931788640531251e+18
14060.0	1.9313221936611325e+18
14061.0	1.930854936451481e+18
14062.0	1.930383538624921e+18
14063.0	1.9299159408377853e+18
14064.0	1.9294437863587837e+18
14065.0	1.928985073785241e+18
14066.0	1.9285200965992443e+18
14067.0	1.9280528997875707e+18
14068.0	1.927589382219366e+18
14069.0	1.9271239604371453e+18
14070.0	1.9266590839144443e+18
14071.0	1.9261939272122365e+18
14072.0	1.9257293778452477e+18
14073.0	1.9252647244595192e+18
14074.0	1.924800215357849e+18
14075.0	1.9243340235014136e+18
14076.0	1.9238695294992381e+18
14077.0	1.9233934105640955e+18
14078.0	1.9229424440311805e+18
14079.0	1.922479052292096e+18
14080.0	1.922016012874547e+18
14081.0	1.9215524516855805e+18
14082.0	1.9210862413742077e+18
14083.0	1.92062560445399e+18
14084.0	1.9201626187235325e+18
14085.0	1.919668840090828e+18
14086.0	1.9192344041488381e+18
14087.0	1.9187679052693504e+18
14088.0	1.9183040974553083e+18
14089.0	1.917840876843827e+18
14090.0	1.9173802499899387e+18
14091.0	1.916918322901811e+18
14092.0	1.9164562649513981e+18
14093.0	1.9159943412187133e+18
14094.0	1.9155325600923645e+18
14095.0	1.9150709333164027e+18
14096.0	1.9146063151628283e+18
14097.0	1.9141465556910075e+18
14098.0	1.9136848785833984e+18
14099.0	1.9132256274612221e+18
14100.0	1.9127637238611965e+18
14101.0	1.9123039358681083e+18
14102.0	1.9118431462752253e+18
14103.0	1.9113814859448317e+18
14104.0	1.9109222901874683e+18
14105.0	1.9104611029745664e+18
14106.0	1.9100018535301117e+18
14107.0	1.9095391932776445e+18
14108.0	1.909080786049433e+18
14109.0	1.90862176813056e+18
14110.0	1.9081596380381181e+18
14111.0	1.907697100259328e+18
14112.0	1.907243734584524e+18
14113.0	1.9067846764003325e+18
14114.0	1.9063188385431547e+18
14115.0	1.9058605370114043e+18
14116.0	1.905392501338931e+18
14117.0	1.9048505049874432e+18
14118.0	1.904484429489766e+18
14119.0	1.9040247589371904e+18
14120.0	1.9035664909598717e+18
14121.0	1.9031084259868672e+18
14122.0	1.9026500237918205e+18
14123.0	1.9021902559313915e+18
14124.0	1.9017325550239741e+18
14125.0	1.9012348689776637e+18
14126.0	1.900821376034406e+18
14127.0	1.9003641063014397e+18
14128.0	1.8999068046917627e+18
14129.0	1.8994487548182525e+18
14130.0	1.8989914397868032e+18
14131.0	1.8985362370068477e+18
14132.0	1.8980796048080893e+18
14133.0	1.8975718692093947e+18
14134.0	1.8971667296419835e+18
14135.0	1.8967090169905147e+18
14136.0	1.8962467325476861e+18
14137.0	1.8957983782273021e+18
14138.0	1.895341257811558e+18
14139.0	1.8948869391908861e+18
14140.0	1.8944262620053504e+18
14141.0	1.8939758809972733e+18
14142.0	1.893509918988697e+18
14143.0	1.8930553134776312e+18
14144.0	1.8926106031685627e+18
14145.0	1.89215399781335e+18
14146.0	1.89169484735447e+18
14147.0	1.8912402300993533e+18
14148.0	1.89078572189614e+18
14149.0	1.8903315643367421e+18
14150.0	1.8898772356497405e+18
14151.0	1.8894230311141373e+18
14152.0	1.8889693030514688e+18
14153.0	1.8885154709700605e+18
14154.0	1.8880592363913208e+18
14155.0	1.8875677293936637e+18
14156.0	1.8871533137035261e+18
14157.0	1.886701447911833e+18
14158.0	1.8862475604656125e+18
14159.0	1.885795161158451e+18
14160.0	1.8853423810084861e+18
14161.0	1.884883594615193e+18
14162.0	1.884426995970867e+18
14163.0	1.883984503609753e+18
14164.0	1.8835279569747963e+18
14165.0	1.883027096679219e+18
14166.0	1.88262756909056e+18
14167.0	1.8821746111021056e+18
14168.0	1.881723431498547e+18
14169.0	1.8812725320744955e+18
14170.0	1.8808203592597507e+18
14171.0	1.8803690471161853e+18
14172.0	1.8799183003647992e+18
14173.0	1.8794434967633917e+18
14174.0	1.8790156626558973e+18
14175.0	1.8785652413825021e+18
14176.0	1.8781138185093115e+18
14177.0	1.877663588496179e+18
14178.0	1.8772127679250432e+18
14179.0	1.8767578990116861e+18
14180.0	1.8763127894048763e+18
14181.0	1.875861941990195e+18
14182.0	1.875406791219609e+18
14183.0	1.874957019224473e+18
14184.0	1.8745068177326072e+18
14185.0	1.8740577268924416e+18
14186.0	1.8735886409662461e+18
14187.0	1.8731566645641216e+18
14188.0	1.872709694364057e+18
14189.0	1.87225998444462e+18
14190.0	1.8718116469014525e+18
14191.0	1.8713628144304128e+18
14192.0	1.8709135742730235e+18
14193.0	1.8704628157775864e+18
14194.0	1.870017204532019e+18
14195.0	1.8695692092440576e+18
14196.0	1.8691210528948224e+18
14197.0	1.8686730576068605e+18
14198.0	1.8682247200636925e+18
14199.0	1.867776479828377e+18
14200.0	1.8673192839151616e+18
14201.0	1.8668822777036797e+18
14202.0	1.8664350759780347e+18
14203.0	1.865982190131609e+18
14204.0	1.865540462811545e+18
14205.0	1.865093561398067e+18
14206.0	1.8646356994293755e+18
14207.0	1.8642003105415165e+18
14208.0	1.8637537933262845e+18
14209.0	1.8632942586691581e+18
14210.0	1.8628532527693821e+18
14211.0	1.8624148523712512e+18
14212.0	1.861968783107686e+18
14213.0	1.8615226098253821e+18
14214.0	1.861077144541593e+18
14215.0	1.8606300250243072e+18
14216.0	1.8601860613013504e+18
14217.0	1.8597407000363008e+18
14218.0	1.8592942549630968e+18
14219.0	1.8588503197614075e+18
14220.0	1.8584053611495421e+18
14221.0	1.8579600435052541e+18
14222.0	1.857508280054579e+18
14223.0	1.857065099827609e+18
14224.0	1.85662090290135e+18
14225.0	1.8561475169746944e+18
14226.0	1.8557323446321147e+18
14227.0	1.8552882819235837e+18
14228.0	1.8547768603705344e+18
14229.0	1.8543922947031035e+18
14230.0	1.8539567917301755e+18
14231.0	1.8535104607420413e+18
14232.0	1.8530697819979776e+18
14233.0	1.8526264759418875e+18
14234.0	1.8521832940371968e+18
14235.0	1.8517400148246525e+18
14236.0	1.8512969956589563e+18
14237.0	1.85085436404695e+18
14238.0	1.8504118096101376e+18
14239.0	1.8499686847479803e+18
14240.0	1.849398682189824e+18
14241.0	1.8490846294835197e+18
14242.0	1.8486425196429307e+18
14243.0	1.8481858438234112e+18
14244.0	1.8477586220843003e+18
14245.0	1.8473152354975741e+18
14246.0	1.846871847233126e+18
14247.0	1.8464335860858877e+18
14248.0	1.8459910870138875e+18
14249.0	1.8455508830650365e+18
14250.0	1.8451097379143677e+18
14251.0	1.8446689920614392e+18
14252.0	1.8442281287679997e+18
14253.0	1.8437873409720317e+18
14254.0	1.8433465447874555e+18
14255.0	1.8429035709202427e+18
14256.0	1.8424437460172792e+18
14257.0	1.8420255739084797e+18
14258.0	1.8415856652386304e+18
14259.0	1.8411441962876925e+18
14260.0	1.8407052573409277e+18
14261.0	1.840264043403673e+18
14262.0	1.8398294212345853e+18
14263.0	1.8393567198183421e+18
14264.0	1.8389455756853243e+18
14265.0	1.838510574351155e+18
14266.0	1.8380723870236664e+18
14267.0	1.837633275271577e+18
14268.0	1.8371946097934333e+18
14269.0	1.8367557211783165e+18
14270.0	1.8363168761839613e+18
14271.0	1.835872410822246e+18
14272.0	1.8354348794839037e+18
14273.0	1.8349967206776827e+18
14274.0	1.8345103508635645e+18
14275.0	1.8341164889407485e+18
14276.0	1.833677283236249e+18
14277.0	1.8332421845942264e+18
14278.0	1.8328077134200832e+18
14279.0	1.8323702508683261e+18
14280.0	1.8319322212466688e+18
14281.0	1.8314958022377472e+18
14282.0	1.831058787637657e+18
14283.0	1.8306218653122555e+18
14284.0	1.8301850755268605e+18
14285.0	1.829748391437926e+18
14286.0	1.8293116872163323e+18
14287.0	1.8288754494013437e+18
14288.0	1.8284391528660987e+18
14289.0	1.827921327449702e+18
14290.0	1.8275661135216637e+18
14291.0	1.8271312749264893e+18
14292.0	1.8266955756601341e+18
14293.0	1.826259742176051e+18
14294.0	1.8258112804814843e+18
14295.0	1.8253876171898877e+18
14296.0	1.8248872920875003e+18
14297.0	1.82451858088919e+18
14298.0	1.824065626256179e+18
14299.0	1.8236470397501437e+18
14300.0	1.8232139174641661e+18
14301.0	1.8227781980651517e+18
14302.0	1.8223443275153403e+18
14303.0	1.8219068431532027e+18
14304.0	1.8214748734619643e+18
14305.0	1.8210412075941885e+18
14306.0	1.8205954487091197e+18
14307.0	1.8201711076179963e+18
14308.0	1.8197400858394621e+18
14309.0	1.8193058797453307e+18
14310.0	1.818818895885107e+18
14311.0	1.81842178253783e+18
14312.0	1.8180021776547837e+18
14313.0	1.8175675689074685e+18
14314.0	1.8171396609802237e+18
14315.0	1.816707221526937e+18
14316.0	1.8162698176954368e+18
14317.0	1.8158328685264893e+18
14318.0	1.8154096129212413e+18
14319.0	1.8149772573540347e+18
14320.0	1.8145449336635387e+18
14321.0	1.81411284820951e+18
14322.0	1.8136764828876797e+18
14323.0	1.813247625370009e+18
14324.0	1.8128168619606016e+18
14325.0	1.8123844795498496e+18
14326.0	1.811950043607859e+18
14327.0	1.8115168726679547e+18
14328.0	1.8110851395354621e+18
14329.0	1.810653299028787e+18
14330.0	1.8102199099850747e+18
14331.0	1.8097888915619837e+18
14332.0	1.809358201972326e+18
14333.0	1.8089275375484925e+18
14334.0	1.808496995598336e+18
14335.0	1.8080635813887997e+18
14336.0	1.807631160390451e+18
14337.0	1.8072060358033403e+18
14338.0	1.8067758428192765e+18
14339.0	1.8063449250594816e+18
14340.0	1.805916294034227e+18
14341.0	1.8054863241871355e+18
14342.0	1.805057038850457e+18
14343.0	1.804625186599731e+18
14344.0	1.8041970588909565e+18
14345.0	1.803769179484979e+18
14346.0	1.8033398706601984e+18
14347.0	1.8029090552414205e+18
14348.0	1.8024822780985344e+18
14349.0	1.8020536437178363e+18
14350.0	1.8016227444129787e+18
14351.0	1.8011942425722875e+18
14352.0	1.8007682204041213e+18
14353.0	1.8003400675295227e+18
14354.0	1.7999116143427581e+18
14355.0	1.799483313828659e+18
14356.0	1.7990556844031997e+18
14357.0	1.7986284525977595e+18
14358.0	1.7982008584044541e+18
14359.0	1.7977717492285432e+18
14360.0	1.7973458042355707e+18
14361.0	1.7969187284582397e+18
14362.0	1.7964916694581243e+18
14363.0	1.796064635623833e+18
14364.0	1.7956290487648253e+18
14365.0	1.795210047861555e+18
14366.0	1.7947831180460032e+18
14367.0	1.7943579263500285e+18
14368.0	1.7939315015286781e+18
14369.0	1.7935052830670843e+18
14370.0	1.7930791518470136e+18
14371.0	1.7926531447783421e+18
14372.0	1.7922271041552381e+18
14373.0	1.791801435986329e+18
14374.0	1.7913758097604605e+18
14375.0	1.7909502724538363e+18
14376.0	1.790524859298611e+18
14377.0	1.7900995048636413e+18
14378.0	1.7896741386846205e+18
14379.0	1.7892493227982843e+18
14380.0	1.7888243743719421e+18
14381.0	1.788398328715673e+18
14382.0	1.7879746452914168e+18
14383.0	1.787546531004416e+18
14384.0	1.7871235656450048e+18
14385.0	1.786701523032473e+18
14386.0	1.786274368402227e+18
14387.0	1.7858516681228288e+18
14388.0	1.7854274763489277e+18
14389.0	1.7850038080241661e+18
14390.0	1.7845757524574205e+18
14391.0	1.7841509533483005e+18
14392.0	1.7837253271224317e+18
14393.0	1.783304215645388e+18
14394.0	1.782877253953126e+18
14395.0	1.7824522434510843e+18
14396.0	1.7820345310380032e+18
14397.0	1.7816118626353144e+18
14398.0	1.7811874091368443e+18
14399.0	1.780766289271193e+18
14400.0	1.7803393175126013e+18
14401.0	1.7799207997931515e+18
14402.0	1.7794990189051904e+18
14403.0	1.778269611360254e+18
14404.0	1.7765378318925816e+18
14405.0	1.77811841173422e+18
14406.0	1.7778109608624128e+18
14407.0	1.7761683170656259e+18
14408.0	1.7769639178141693e+18
14409.0	1.7765442693103613e+18
14410.0	1.776123716514611e+18
14411.0	1.775703261026713e+18
14412.0	1.775282141161062e+18
14413.0	1.7748614440812541e+18
14414.0	1.7744402906611707e+18
14415.0	1.7740196254580733e+18
14416.0	1.773598619677491e+18
14417.0	1.7731749127651325e+18
14418.0	1.7727519255953403e+18
14419.0	1.772337672644198e+18
14420.0	1.7719171500474365e+18
14421.0	1.7714974646337533e+18
14422.0	1.771077547694489e+18
14423.0	1.7706570838179837e+18
14424.0	1.7652528925638615e+18
14425.0	1.7698178086207488e+18
14426.0	1.7693987338977277e+18
14427.0	1.7689795803217923e+18
14428.0	1.7685566954930176e+18
14429.0	1.7681409124597752e+18
14430.0	1.7677221397266427e+18
14431.0	1.7672898730786813e+18
14432.0	1.7668803110371328e+18
14433.0	1.7655538472976374e+18
14434.0	1.7660461277249533e+18
14435.0	1.7656259457056763e+18
14436.0	1.7652104243970043e+18
14437.0	1.7647922053119997e+18
14438.0	1.764346698085171e+18
14439.0	1.7639500326895608e+18
14440.0	1.763538143648153e+18
14441.0	1.7631198373216253e+18
14442.0	1.7627018380181504e+18
14443.0	1.7622808725028856e+18
14444.0	1.7618674550571005e+18
14445.0	1.7614505043296253e+18
14446.0	1.7600740629413888e+18
14447.0	1.760614988906496e+18
14448.0	1.7601994071998461e+18
14449.0	1.7597825789460477e+18
14450.0	1.7593658161233917e+18
14451.0	1.7589492009402365e+18
14452.0	1.758532184781619e+18
14453.0	1.758097923322675e+18
14454.0	1.7576999241383933e+18
14455.0	1.7572834146516995e+18
14456.0	1.756863938953216e+18
14457.0	1.7564457953656827e+18
14458.0	1.756032755407257e+18
14459.0	1.755616313029427e+18
14460.0	1.7552045196181504e+18
14461.0	1.7547865287032832e+18
14462.0	1.7543581577248763e+18
14463.0	1.75395793052631e+18
14464.0	1.7535435081252861e+18
14465.0	1.7531267251699707e+18
14466.0	1.7527134318755837e+18
14467.0	1.7522841247285248e+18
14468.0	1.7518776866045947e+18
14469.0	1.7514621116088317e+18
14470.0	1.7510469040340984e+18
14471.0	1.7506332852617213e+18
14472.0	1.7502204533407741e+18
14473.0	1.7498071063592957e+18
14474.0	1.7493931000332285e+18
14475.0	1.7489785132154877e+18
14476.0	1.748506305049395e+18
14477.0	1.7481515524947963e+18
14478.0	1.7477377793720317e+18
14479.0	1.7473238300884987e+18
14480.0	1.7469095351943165e+18
14481.0	1.7464979766640635e+18
14482.0	1.7460844837208067e+18
14483.0	1.745670713953484e+18
14484.0	1.745258385349017e+18
14485.0	1.7448418121089021e+18
14486.0	1.7444050609111037e+18
14487.0	1.7440206244282365e+18
14488.0	1.7436025647267835e+18
14489.0	1.7431919591423997e+18
14490.0	1.7427796187938813e+18
14491.0	1.7423686894092285e+18
14492.0	1.7419566057521147e+18
14493.0	1.7415443996213248e+18
14494.0	1.7411308496355325e+18
14495.0	1.7407212859162621e+18
14496.0	1.74029667303424e+18
14497.0	1.7398980883251197e+18
14498.0	1.7394864626860027e+18
14499.0	1.7390754544484347e+18
14500.0	1.7386642180407293e+18
14501.0	1.7382260424572925e+18
14502.0	1.73779464486912e+18
14503.0	1.7374290491998203e+18
14504.0	1.7370201028820987e+18
14505.0	1.7365841586683904e+18
14506.0	1.7361387386830848e+18
14507.0	1.7357657778159613e+18
14508.0	1.7353786569785341e+18
14509.0	1.734968425526067e+18
14510.0	1.7345582947368957e+18
14511.0	1.7341482729996285e+18
14512.0	1.733736811777228e+18
14513.0	1.7333285868797947e+18
14514.0	1.7329096665071608e+18
14515.0	1.7325085014622203e+18
14516.0	1.731898622817075e+18
14517.0	1.7316903705903104e+18
14518.0	1.7312810417520637e+18
14519.0	1.7308719058518013e+18
14520.0	1.730462818605465e+18
14521.0	1.7300531710001147e+18
14522.0	1.7296449410695163e+18
14523.0	1.729174588463513e+18
14524.0	1.7287618421063677e+18
14525.0	1.7284183890067453e+18
14526.0	1.7280104392556544e+18
14527.0	1.727596810416947e+18
14528.0	1.7271793110745088e+18
14529.0	1.7267846388121597e+18
14530.0	1.726375994484326e+18
14531.0	1.7259694422753275e+18
14532.0	1.7254585005506557e+18
14533.0	1.7251538816729085e+18
14534.0	1.724746353029939e+18
14535.0	1.7243375090532347e+18
14536.0	1.723931245412352e+18
14537.0	1.7235226749042685e+18
14538.0	1.7231164196519933e+18
14539.0	1.722709530220953e+18
14540.0	1.722302583747379e+18
14541.0	1.721894157523353e+18
14542.0	1.72148878475264e+18
14543.0	1.7210418330075133e+18
14544.0	1.7206752978141181e+18
14545.0	1.7202678983557115e+18
14546.0	1.7143489821147098e+18
14547.0	1.7145982831558607e+18
14548.0	1.7190483373588477e+18
14549.0	1.7186319738339325e+18
14550.0	1.718237288149811e+18
14551.0	1.7178313432760312e+18
14552.0	1.7174244622335997e+18
14553.0	1.7170180777967613e+18
14554.0	1.7166139146633213e+18
14555.0	1.716208109040435e+18
14556.0	1.7158010501595133e+18
14557.0	1.715397308134195e+18
14558.0	1.7149870263500797e+18
14559.0	1.7144258821619707e+18
14560.0	1.7141698383577085e+18
14561.0	1.7137708056969213e+18
14562.0	1.7133638055362557e+18
14563.0	1.712961590237593e+18
14564.0	1.7125552947199997e+18
14565.0	1.712152091243315e+18
14566.0	1.7117474617032704e+18
14567.0	1.71134287913943e+18
14568.0	1.7109332650885115e+18
14569.0	1.7105340747218936e+18
14570.0	1.7100845225082877e+18
14571.0	1.7097252988256253e+18
14572.0	1.7093161109159933e+18
14573.0	1.708913031590707e+18
14574.0	1.7085039846096893e+18
14575.0	1.7080964660330493e+18
14576.0	1.7076929639219195e+18
14577.0	1.707289478588006e+18
14578.0	1.7068856946196475e+18
14579.0	1.7064824122900475e+18
14580.0	1.7060791870029821e+18
14581.0	1.7056728545755133e+18
14582.0	1.705272585433907e+18
14583.0	1.7048694457106432e+18
14584.0	1.7044651970134008e+18
14585.0	1.7040633390694395e+18
14586.0	1.703660076872499e+18
14587.0	1.7032562526388216e+18
14588.0	1.702856017051648e+18
14589.0	1.7024687183757307e+18
14590.0	1.702083490008268e+18
14591.0	1.7016981173567485e+18
14592.0	1.7013130718609403e+18
14593.0	1.700916884615987e+18
14594.0	1.7005431603855357e+18
14595.0	1.7001575998291965e+18
14596.0	1.6997622631890941e+18
14597.0	1.6993808969367547e+18
14598.0	1.699003241804595e+18
14599.0	1.6986190989230077e+18
14600.0	1.6982342044221435e+18
14601.0	1.6978498266595325e+18
14602.0	1.6974626068365307e+18
14603.0	1.6970804923203584e+18
14604.0	1.6966918380453885e+18
14605.0	1.6963098040598525e+18
14606.0	1.6959203209904125e+18
14607.0	1.695543276548915e+18
14608.0	1.6951586118959104e+18
14609.0	1.6947681624588288e+18
14610.0	1.6943867458748408e+18
14611.0	1.6940059869577216e+18
14612.0	1.6936223977242621e+18
14613.0	1.693238551799398e+18
14614.0	1.6928543015436285e+18
14615.0	1.6924695697817597e+18
14616.0	1.6920869469159421e+18
14617.0	1.6917031261569021e+18
14618.0	1.6913164985696253e+18
14619.0	1.690932005044224e+18
14620.0	1.6905320949350397e+18
14621.0	1.6901685997731837e+18
14622.0	1.6897850071842813e+18
14623.0	1.6894014447943675e+18
14624.0	1.689012250293043e+18
14625.0	1.688634403900621e+18
14626.0	1.6882492610969597e+18
14627.0	1.687863864957337e+18
14628.0	1.6874841009291261e+18
14629.0	1.687100713022259e+18
14630.0	1.6867172009639933e+18
14631.0	1.6863332677976061e+18
14632.0	1.6855500167577603e+18
14633.0	1.6855288472666107e+18
14634.0	1.685183033612697e+18
14635.0	1.684765416829747e+18
14636.0	1.684283942607257e+18
14637.0	1.6840345090260984e+18
14638.0	1.6836510087118843e+18
14639.0	1.6832670990335997e+18
14640.0	1.68288445267968e+18
14641.0	1.6809706269966323e+18
14642.0	1.6821184855277568e+18
14643.0	1.6817358039416832e+18
14644.0	1.6813519714385915e+18
14645.0	1.680967248065331e+18
14646.0	1.6805837343293435e+18
14647.0	1.6802012138045435e+18
