# Flux units: erg / (cm m2 s)
# Wavelength units: Angstrom
wave	flux
14000.0	1.0990714238271485e+18
14001.0	1.0987909733679105e+18
14002.0	1.0987877580144639e+18
14003.0	1.0986417308041213e+18
14004.0	1.0984955618263039e+18
14005.0	1.0983493550997501e+18
14006.0	1.0982001939054592e+18
14007.0	1.0980521886613501e+18
14008.0	1.0978360125554684e+18
14009.0	1.0977633437220861e+18
14010.0	1.0976157335814141e+18
14011.0	1.0973133645283327e+18
14012.0	1.0973244022587391e+18
14013.0	1.0971809075691516e+18
14014.0	1.0970352981114877e+18
14015.0	1.0968892105031677e+18
14016.0	1.0967437763674111e+18
14017.0	1.0965980754739197e+18
14018.0	1.0963969728577533e+18
14019.0	1.096306650198835e+18
14020.0	1.0961609048457212e+18
14021.0	1.0960151854972927e+18
14022.0	1.0958696448262141e+18
14023.0	1.0957240102027264e+18
14024.0	1.0955774763204608e+18
14025.0	1.0954331511586813e+18
14026.0	1.0952874888527872e+18
14027.0	1.0951422677876733e+18
14028.0	1.0949968445571072e+18
14029.0	1.0948511445024767e+18
14030.0	1.0946607507832831e+18
14031.0	1.0945552959143936e+18
14032.0	1.0944153403785213e+18
14033.0	1.094263529222963e+18
14034.0	1.0941252061102077e+18
14035.0	1.0939791159853055e+18
14036.0	1.0938149979029501e+18
14037.0	1.0936839535853567e+18
14038.0	1.093544952673075e+18
14039.0	1.0933999396454397e+18
14040.0	1.0932549484281855e+18
14041.0	1.09310995637207e+18
14042.0	1.0929634652717055e+18
14043.0	1.0928118378266623e+18
14044.0	1.0926413662126079e+18
14045.0	1.0924973044531197e+18
14046.0	1.0923857602936831e+18
14047.0	1.0922408915501052e+18
14048.0	1.0920951428415485e+18
14049.0	1.0919516179529728e+18
14050.0	1.0918069807349757e+18
14051.0	1.0916609870790656e+18
14052.0	1.0915176735834111e+18
14053.0	1.0913732360142845e+18
14054.0	1.0912287212699645e+18
14055.0	1.0910842459521021e+18
14056.0	1.0909397907668991e+18
14057.0	1.0907953884299264e+18
14058.0	1.090650933244723e+18
14059.0	1.090455847777075e+18
14060.0	1.090362331575091e+18
14061.0	1.0902163505020927e+18
14062.0	1.0900737055784957e+18
14063.0	1.0899271129759741e+18
14064.0	1.089769072440115e+18
14065.0	1.0896392679587837e+18
14066.0	1.0894971481620477e+18
14067.0	1.0893531023409151e+18
14068.0	1.089209057358643e+18
14069.0	1.0890649133907967e+18
14070.0	1.0889210487635967e+18
14071.0	1.0887764090290175e+18
14072.0	1.0886332104572927e+18
14073.0	1.0884893391192063e+18
14074.0	1.0883454988189693e+18
14075.0	1.0881992518270975e+18
14076.0	1.0880577989246971e+18
14077.0	1.0879037790486527e+18
14078.0	1.0877695755812863e+18
14079.0	1.0876258560770045e+18
14080.0	1.0874662426771455e+18
14081.0	1.0873365220818943e+18
14082.0	1.0871958778413055e+18
14083.0	1.0870519914037247e+18
14084.0	1.0869081418760191e+18
14085.0	1.0867238332530685e+18
14086.0	1.0866020818354175e+18
14087.0	1.0864433131683837e+18
14088.0	1.086333350261555e+18
14089.0	1.0861918059233276e+18
14090.0	1.0860484320296957e+18
14091.0	1.0859052493963263e+18
14092.0	1.085762014753587e+18
14093.0	1.0856188035989504e+18
14094.0	1.0854756167712765e+18
14095.0	1.0853324249104381e+18
14096.0	1.0851880427061245e+18
14097.0	1.0850438643449855e+18
14098.0	1.0849026589065213e+18
14099.0	1.0847601112907773e+18
14100.0	1.0846142375919613e+18
14101.0	1.0844742669565948e+18
14102.0	1.0843312982327292e+18
14103.0	1.0841837862387711e+18
14104.0	1.0840456090877951e+18
14105.0	1.0839028232355839e+18
14106.0	1.0837600357056511e+18
14107.0	1.083573686973235e+18
14108.0	1.0834719205752831e+18
14109.0	1.0833311286951936e+18
14110.0	1.0831891171115005e+18
14111.0	1.0830461643259901e+18
14112.0	1.0829024146227197e+18
14113.0	1.0827613417242621e+18
14114.0	1.0826165610610685e+18
14115.0	1.0824748816662524e+18
14116.0	1.0823313651662847e+18
14117.0	1.08210790858752e+18
14118.0	1.082047820149555e+18
14119.0	1.0819056424714237e+18
14120.0	1.0817628717187072e+18
14121.0	1.0816211780632575e+18
14122.0	1.0814783435571197e+18
14123.0	1.0813366683566077e+18
14124.0	1.0811928121180159e+18
14125.0	1.0809724442247167e+18
14126.0	1.0809095623802877e+18
14127.0	1.0807687352680448e+18
14128.0	1.0806266020495356e+18
14129.0	1.080483184535142e+18
14130.0	1.08033420034048e+18
14131.0	1.0801923347185663e+18
14132.0	1.0800568519884797e+18
14133.0	1.0798223987834876e+18
14134.0	1.0797315853910013e+18
14135.0	1.0796311469096957e+18
14136.0	1.079491429610291e+18
14137.0	1.0793496529076223e+18
14138.0	1.0792076690063359e+18
14139.0	1.079065913275187e+18
14140.0	1.078924426818355e+18
14141.0	1.07878219293655e+18
14142.0	1.0786382855274493e+18
14143.0	1.0784998516850687e+18
14144.0	1.0783584415645693e+18
14145.0	1.0782160667541504e+18
14146.0	1.0780752312532988e+18
14147.0	1.0779339268292605e+18
14148.0	1.0777925997559805e+18
14149.0	1.0776512936542205e+18
14150.0	1.0775099237990396e+18
14151.0	1.0773681689067519e+18
14152.0	1.0772273493442559e+18
14153.0	1.0770860793135103e+18
14154.0	1.0769413380767743e+18
14155.0	1.0767997165633533e+18
14156.0	1.0766622826430463e+18
14157.0	1.0765213489954813e+18
14158.0	1.0763796746338303e+18
14159.0	1.0762391318953983e+18
14160.0	1.076096060830515e+18
14161.0	1.0759474750947328e+18
14162.0	1.0757985840136188e+18
14163.0	1.0756407791976447e+18
14164.0	1.0755312541761532e+18
14165.0	1.075391849771827e+18
14166.0	1.0752526601158652e+18
14167.0	1.075109917045555e+18
14168.0	1.074970979886694e+18
14169.0	1.074830437987123e+18
14170.0	1.0746890463215615e+18
14171.0	1.074548269540966e+18
14172.0	1.0744083785973757e+18
14173.0	1.0742653092102143e+18
14174.0	1.0741260893552637e+18
14175.0	1.0739866623016959e+18
14176.0	1.0738461942218753e+18
14177.0	1.0737057135591421e+18
14178.0	1.0735652463181821e+18
14179.0	1.0734241549647868e+18
14180.0	1.0732844561203197e+18
14181.0	1.0731441012867068e+18
14182.0	1.0730036105576443e+18
14183.0	1.0728634553729024e+18
14184.0	1.0727223455645695e+18
14185.0	1.0725826878242813e+18
14186.0	1.0724030483005439e+18
14187.0	1.0722976060145663e+18
14188.0	1.0721543143292924e+18
14189.0	1.0720185967181821e+18
14190.0	1.0718821081939965e+18
14191.0	1.0717420897435645e+18
14192.0	1.0715998122409983e+18
14193.0	1.0714604699123711e+18
14194.0	1.0713221350555647e+18
14195.0	1.0711824689266685e+18
14196.0	1.0710425544949759e+18
14197.0	1.0709027038167037e+18
14198.0	1.0707617601028093e+18
14199.0	1.0706227029868544e+18
14200.0	1.070474506482483e+18
14201.0	1.070341496714035e+18
14202.0	1.0702038950215677e+18
14203.0	1.0700635175387133e+18
14204.0	1.0699237465522175e+18
14205.0	1.0697834890264573e+18
14206.0	1.0696248881315837e+18
14207.0	1.0695051063590911e+18
14208.0	1.0693660668592124e+18
14209.0	1.069204546728755e+18
14210.0	1.0690702895742975e+18
14211.0	1.0689477261393919e+18
14212.0	1.0688085993979903e+18
14213.0	1.068669491111526e+18
14214.0	1.0685298870583295e+18
14215.0	1.068387529863987e+18
14216.0	1.0682516822294527e+18
14217.0	1.0681124858626045e+18
14218.0	1.067971559764787e+18
14219.0	1.0678333800972285e+18
14220.0	1.0676950225911808e+18
14221.0	1.0675558446792701e+18
14222.0	1.0674167934353405e+18
14223.0	1.0672768278331391e+18
14224.0	1.0671385097535487e+18
14225.0	1.0669640854274047e+18
14226.0	1.0668594090213375e+18
14227.0	1.0667012904714239e+18
14228.0	1.0664401086447615e+18
14229.0	1.0664183980883967e+18
14230.0	1.0663050461839357e+18
14231.0	1.0661659345420285e+18
14232.0	1.0660276886044668e+18
14233.0	1.0658892237242367e+18
14234.0	1.0657505147355133e+18
14235.0	1.0656113183686655e+18
14236.0	1.0654731311513596e+18
14237.0	1.0653340706799615e+18
14238.0	1.0651951561703421e+18
14239.0	1.0650524978249727e+18
14240.0	1.0644692060340223e+18
14241.0	1.0647727855632383e+18
14242.0	1.064639729657446e+18
14243.0	1.0644771819225087e+18
14244.0	1.0643648475561983e+18
14245.0	1.0642267509358588e+18
14246.0	1.0640883531644927e+18
14247.0	1.0639504285106173e+18
14248.0	1.0638068641955836e+18
14249.0	1.0636736682000383e+18
14250.0	1.0635355246034941e+18
14251.0	1.0633977643663359e+18
14252.0	1.0632589261930493e+18
14253.0	1.0631164733685759e+18
14254.0	1.0629809184964605e+18
14255.0	1.0628364356288511e+18
14256.0	1.062677161128755e+18
14257.0	1.0625611416469503e+18
14258.0	1.0624311584882685e+18
14259.0	1.0622913212317692e+18
14260.0	1.0621508195975165e+18
14261.0	1.0620156245966847e+18
14262.0	1.0618926048215037e+18
14263.0	1.0617109184774141e+18
14264.0	1.0616016895737855e+18
14265.0	1.0614796084838396e+18
14266.0	1.0613424253829117e+18
14267.0	1.0612049251926013e+18
14268.0	1.0610673285332988e+18
14269.0	1.0609291941642237e+18
14270.0	1.0607921050157052e+18
14271.0	1.0606545008066557e+18
14272.0	1.0605167162425341e+18
14273.0	1.0603774804492285e+18
14274.0	1.0601702684098559e+18
14275.0	1.0600941183041533e+18
14276.0	1.0599666282397696e+18
14277.0	1.0598292698169341e+18
14278.0	1.059692532151091e+18
14279.0	1.0595550638374911e+18
14280.0	1.0594169437290495e+18
14281.0	1.0592809056731133e+18
14282.0	1.0591437779369981e+18
14283.0	1.0590065939972093e+18
14284.0	1.0588694192848893e+18
14285.0	1.0587322236010493e+18
14286.0	1.058594945708851e+18
14287.0	1.0584568641880063e+18
14288.0	1.0583174522339327e+18
14289.0	1.057897006812364e+18
14290.0	1.0580437697036285e+18
14291.0	1.0579094269853695e+18
14292.0	1.0577729661435901e+18
14293.0	1.0576353871003645e+18
14294.0	1.0574755673407485e+18
14295.0	1.0573580714639356e+18
14296.0	1.057000242806784e+18
14297.0	1.0570813816176637e+18
14298.0	1.0569133041123327e+18
14299.0	1.0568127943278588e+18
14300.0	1.0566791117930493e+18
14301.0	1.0565426366906365e+18
14302.0	1.0564053353103359e+18
14303.0	1.0562640166256637e+18
14304.0	1.056129915499315e+18
14305.0	1.0559961306234877e+18
14306.0	1.0558596530044927e+18
14307.0	1.0557229044334591e+18
14308.0	1.0555868831547391e+18
14309.0	1.0554500506976256e+18
14310.0	1.0553115103199231e+18
14311.0	1.0551703610851327e+18
14312.0	1.055032140313395e+18
14313.0	1.0547855437594621e+18
14314.0	1.0547685123686399e+18
14315.0	1.0546317981908991e+18
14316.0	1.0544871836221439e+18
14317.0	1.0543586718253055e+18
14318.0	1.0542244650024957e+18
14319.0	1.0540885284487167e+18
14320.0	1.0539524140564477e+18
14321.0	1.0538163986497533e+18
14322.0	1.053674330862387e+18
14323.0	1.0535409209573373e+18
14324.0	1.0534073919340544e+18
14325.0	1.0532701752786944e+18
14326.0	1.0531356329115645e+18
14327.0	1.0529996921634815e+18
14328.0	1.0528637128278012e+18
14329.0	1.0527293071949823e+18
14330.0	1.0525935644180481e+18
14331.0	1.0524577830535165e+18
14332.0	1.0523221325512701e+18
14333.0	1.0521864703049727e+18
14334.0	1.0520508130918399e+18
14335.0	1.0519120109895677e+18
14336.0	1.0517765458755581e+18
14337.0	1.0516439647649791e+18
14338.0	1.0515082068885503e+18
14339.0	1.0513726453055487e+18
14340.0	1.0512375660675072e+18
14341.0	1.0511020514607101e+18
14342.0	1.0509555922370557e+18
14343.0	1.0508313871515648e+18
14344.0	1.0506701069352957e+18
14345.0	1.0505460570390524e+18
14346.0	1.0504248517197821e+18
14347.0	1.0502879504760831e+18
14348.0	1.0501546630447103e+18
14349.0	1.050019624071987e+18
14350.0	1.0498820274126845e+18
14351.0	1.0497469221699583e+18
14352.0	1.0496097164197884e+18
14353.0	1.0494757729992703e+18
14354.0	1.0493435903475711e+18
14355.0	1.0492083584368639e+18
14356.0	1.0490616374886399e+18
14357.0	1.0489260238962685e+18
14358.0	1.0488043622367228e+18
14359.0	1.0486676866465791e+18
14360.0	1.0485332994686973e+18
14361.0	1.0483996420997119e+18
14362.0	1.048264920216371e+18
14363.0	1.0481300112670717e+18
14364.0	1.0479882840571903e+18
14365.0	1.0478583461969919e+18
14366.0	1.0477242048053245e+18
14367.0	1.0475913091219455e+18
14368.0	1.0474548768014333e+18
14369.0	1.047320867110912e+18
14370.0	1.0471858491097085e+18
14371.0	1.0470528863174656e+18
14372.0	1.0469172039385087e+18
14373.0	1.0467816163508223e+18
14374.0	1.0466429467885567e+18
14375.0	1.0465027932815357e+18
14376.0	1.0463805595189245e+18
14377.0	1.0462460448342013e+18
14378.0	1.046111308690227e+18
14379.0	1.0459775179423741e+18
14380.0	1.0458431064375295e+18
14381.0	1.0457071866609663e+18
14382.0	1.0455743564087296e+18
14383.0	1.0454403366518783e+18
14384.0	1.0453038598717439e+18
14385.0	1.0451721973137405e+18
14386.0	1.0450359948410876e+18
14387.0	1.0449039136915452e+18
14388.0	1.0447696808640511e+18
14389.0	1.0446357466710015e+18
14390.0	1.0445013821423613e+18
14391.0	1.0443678824792063e+18
14392.0	1.0442321313136639e+18
14393.0	1.0440988589817855e+18
14394.0	1.0439599344058367e+18
14395.0	1.0438306156249087e+18
14396.0	1.0436925005496319e+18
14397.0	1.0435644316712957e+18
14398.0	1.0434305905917951e+18
14399.0	1.0432909169131517e+18
14400.0	1.0431579784478717e+18
14401.0	1.0430274810675199e+18
14402.0	1.0428939142955005e+18
14403.0	1.0427475850952703e+18
14404.0	1.0419230025449466e+18
14405.0	1.0419958961930226e+18
14406.0	1.0423547063173117e+18
14407.0	1.0422087856422911e+18
14408.0	1.0420930505342973e+18
14409.0	1.041955340628787e+18
14410.0	1.0418266778370047e+18
14411.0	1.041693803964006e+18
14412.0	1.0415597892403196e+18
14413.0	1.0414275755507711e+18
14414.0	1.0412939055988736e+18
14415.0	1.0411608127832064e+18
14416.0	1.0410277971427327e+18
14417.0	1.0408944493133821e+18
14418.0	1.0407608330485759e+18
14419.0	1.0406277679153151e+18
14420.0	1.0404938446274557e+18
14421.0	1.0403597770555391e+18
14422.0	1.0402280121565184e+18
14423.0	1.0400933783535615e+18
14424.0	1.0399063820206077e+18
14425.0	1.0398260980088831e+18
14426.0	1.0396965292474367e+18
14427.0	1.0395624172158973e+18
14428.0	1.039426959651635e+18
14429.0	1.0392931512877055e+18
14430.0	1.0391646327799804e+18
14431.0	1.0390182574424063e+18
14432.0	1.0388990234460157e+18
14433.0	1.0387526699188221e+18
14434.0	1.0386308648140796e+18
14435.0	1.0384977032118268e+18
14436.0	1.0383679431901183e+18
14437.0	1.0382356942684157e+18
14438.0	1.0381015251943421e+18
14439.0	1.0379703164600317e+18
14440.0	1.0378378670505981e+18
14441.0	1.0377003005902847e+18
14442.0	1.0375638405873664e+18
14443.0	1.0374240477904893e+18
14444.0	1.0373058162327551e+18
14445.0	1.0371737443106815e+18
14446.0	1.0368204916391933e+18
14447.0	1.0369034717495295e+18
14448.0	1.036777765942067e+18
14449.0	1.0366459146403839e+18
14450.0	1.0365137093394431e+18
14451.0	1.0363814889390077e+18
14452.0	1.0362493071261692e+18
14453.0	1.0361169650909183e+18
14454.0	1.0359848294154237e+18
14455.0	1.0358514916524031e+18
14456.0	1.0357195027775487e+18
14457.0	1.0355865408241663e+18
14458.0	1.0354546702286847e+18
14459.0	1.0353217787396093e+18
14460.0	1.0351913769893885e+18
14461.0	1.0350551820664831e+18
14462.0	1.0349215456690175e+18
14463.0	1.0347943659831295e+18
14464.0	1.0346636798590973e+18
14465.0	1.0345205391687677e+18
14466.0	1.0343997281140733e+18
14467.0	1.0342656278265853e+18
14468.0	1.0341367905517567e+18
14469.0	1.033976574849843e+18
14470.0	1.0338662789152767e+18
14471.0	1.0337380582031357e+18
14472.0	1.033610160452403e+18
14473.0	1.0334785331265533e+18
14474.0	1.0333469477437439e+18
14475.0	1.033215312868147e+18
14476.0	1.0330830010318847e+18
14477.0	1.0329520842211324e+18
14478.0	1.0328206808711167e+18
14479.0	1.0326890418012157e+18
14480.0	1.0325545606709245e+18
14481.0	1.032426183930675e+18
14482.0	1.0322938888716285e+18
14483.0	1.0321614092632063e+18
14484.0	1.0320291494363137e+18
14485.0	1.0318925493436413e+18
14486.0	1.0317094503579647e+18
14487.0	1.031637075964723e+18
14488.0	1.0315066532429821e+18
14489.0	1.031374365733683e+18
14490.0	1.0312439547559932e+18
14491.0	1.0311129750306815e+18
14492.0	1.0309821521723388e+18
14493.0	1.0308509182722047e+18
14494.0	1.0307159581523967e+18
14495.0	1.0305875671515133e+18
14496.0	1.0304319098191868e+18
14497.0	1.0303250297257981e+18
14498.0	1.0301932715376639e+18
14499.0	1.0300636943876095e+18
14500.0	1.0299335208075263e+18
14501.0	1.0298010554597375e+18
14502.0	1.0296108060246017e+18
14503.0	1.0295382646980605e+18
14504.0	1.0294089173958655e+18
14505.0	1.0292790760046591e+18
14506.0	1.0291466341449727e+18
14507.0	1.0289685020540928e+18
14508.0	1.0288838777765887e+18
14509.0	1.0287564523044863e+18
14510.0	1.028624613585715e+18
14511.0	1.0284949693267967e+18
14512.0	1.0283618916106237e+18
14513.0	1.0282331281555455e+18
14514.0	1.028096709256806e+18
14515.0	1.0279663830040573e+18
14516.0	1.027059591256474e+18
14517.0	1.027694577005363e+18
14518.0	1.0275794458771455e+18
14519.0	1.0274194424070141e+18
14520.0	1.0273197052133373e+18
14521.0	1.0271902916411388e+18
14522.0	1.0270600794734591e+18
14523.0	1.0269286828343295e+18
14524.0	1.0267981686767613e+18
14525.0	1.0266680185847804e+18
14526.0	1.0265384498233341e+18
14527.0	1.0264009471164413e+18
14528.0	1.0262418059952124e+18
14529.0	1.026146191802368e+18
14530.0	1.0260155534934013e+18
14531.0	1.0258880835616765e+18
14532.0	1.0257575249444863e+18
14533.0	1.0256271055781885e+18
14534.0	1.0254973874995199e+18
14535.0	1.025366532764467e+18
14536.0	1.0252380561997821e+18
14537.0	1.0251051840045055e+18
14538.0	1.0249783398629375e+18
14539.0	1.0248485051826175e+18
14540.0	1.0247184180051967e+18
14541.0	1.0245844913618944e+18
14542.0	1.0244588702793728e+18
14543.0	1.0243265349550077e+18
14544.0	1.0241967522840575e+18
14545.0	1.0240686985052157e+18
14546.0	1.0238109451026431e+18
14547.0	1.0236591440134141e+18
14548.0	1.0236751016624124e+18
14549.0	1.0235261451501567e+18
14550.0	1.0234207389351936e+18
14551.0	1.0232919528308733e+18
14552.0	1.023160812044288e+18
14553.0	1.0230280958771199e+18
14554.0	1.0229034420011004e+18
14555.0	1.022773865689907e+18
14556.0	1.0226422710796285e+18
14557.0	1.0225137701879805e+18
14558.0	1.022378661589811e+18
14559.0	1.0216831981715444e+18
14560.0	1.0221193453895677e+18
14561.0	1.0219946109829119e+18
14562.0	1.0218634718740477e+18
14563.0	1.0217388020596733e+18
14564.0	1.0215662551039999e+18
14565.0	1.0214807231791101e+18
14566.0	1.0213515713314815e+18
14567.0	1.0212223188205567e+18
14568.0	1.021092931253043e+18
14569.0	1.0209616478601215e+18
14570.0	1.0206804633976831e+18
14571.0	1.0207038046994431e+18
14572.0	1.0205687212670975e+18
14573.0	1.020437906797363e+18
14574.0	1.0203176661680127e+18
14575.0	1.0201896836923392e+18
14576.0	1.0200608002801663e+18
14577.0	1.019932283450163e+18
14578.0	1.0198024336703485e+18
14579.0	1.0196746080616447e+18
14580.0	1.0195458278293503e+18
14581.0	1.0194164645887999e+18
14582.0	1.0192881658626047e+18
14583.0	1.0191594309287936e+18
14584.0	1.0190285770326013e+18
14585.0	1.0189017874169853e+18
14586.0	1.0187726406025213e+18
14587.0	1.0186441858482173e+18
14588.0	1.0185159684915199e+18
14589.0	1.0183874566946813e+18
14590.0	1.0182589423812605e+18
14591.0	1.0181303114661885e+18
14592.0	1.0180009851355132e+18
14593.0	1.0178504297545727e+18
14594.0	1.017744474924646e+18
14595.0	1.0176155713798141e+18
14596.0	1.0174771434094591e+18
14597.0	1.017349121507328e+18
14598.0	1.0172302708703231e+18
14599.0	1.0171034913210365e+18
14600.0	1.0169752588648445e+18
14601.0	1.0168470171811839e+18
14602.0	1.0167185045454847e+18
14603.0	1.0165898904076285e+18
14604.0	1.0164459947425791e+18
14605.0	1.0162854854393853e+18
14606.0	1.0161798602817532e+18
14607.0	1.0160767223463932e+18
14608.0	1.0159225841909759e+18
14609.0	1.0157751963484159e+18
14610.0	1.01564574334976e+18
14611.0	1.0155010180513791e+18
14612.0	1.0154381236240381e+18
14613.0	1.0153104985030655e+18
14614.0	1.01514887603159e+18
14615.0	1.015032036143923e+18
14616.0	1.0149269101084672e+18
14617.0	1.0147277024788477e+18
14618.0	1.014621417137766e+18
14619.0	1.0145332478345213e+18
14620.0	1.01439720390656e+18
14621.0	1.0142877367664639e+18
14622.0	1.0141602659958781e+18
14623.0	1.0140324294819837e+18
14624.0	1.0138943462834175e+18
14625.0	1.0137769678471165e+18
14626.0	1.0136199784038399e+18
14627.0	1.0134919556628477e+18
14628.0	1.0133946788478975e+18
14629.0	1.0132671720062973e+18
14630.0	1.0131129986187263e+18
14631.0	1.0129851604271101e+18
14632.0	1.012828495622963e+18
14633.0	1.0127438084308988e+18
14634.0	1.0126298349305855e+18
14635.0	1.0124985456656383e+18
14636.0	1.0123599079800831e+18
14637.0	1.0122475652251645e+18
14638.0	1.0121195894603773e+18
14639.0	1.0119907723182077e+18
14640.0	1.0118650941931517e+18
14641.0	1.0117206566240255e+18
14642.0	1.0116102768033791e+18
14643.0	1.0114841456934911e+18
14644.0	1.0113570448605183e+18
