# Flux units: erg / (cm m2 s)
# Wavelength units: Angstrom
wave	flux
14000.0	2.2113990393987064e+18
14001.0	2.2110005553528827e+18
14002.0	2.2105882384924667e+18
14003.0	2.2101255866286077e+18
14004.0	2.209661879477862e+18
14005.0	2.2091978451714043e+18
14006.0	2.2087287407902715e+18
14007.0	2.2082626294644733e+18
14008.0	2.2077329643667456e+18
14009.0	2.2073398087647227e+18
14010.0	2.2068669597089787e+18
14011.0	2.2059945109225472e+18
14012.0	2.2059496620687355e+18
14013.0	2.2054876410281981e+18
14014.0	2.2050199861985275e+18
14015.0	2.204559584159334e+18
14016.0	2.2040982593732603e+18
14017.0	2.203635360884326e+18
14018.0	2.2031723499880443e+18
14019.0	2.2027096998019067e+18
14020.0	2.20224640033751e+18
14021.0	2.2017830102761464e+18
14022.0	2.2013123875569661e+18
14023.0	2.2008303345205245e+18
14024.0	2.2003742677139453e+18
14025.0	2.1999324414083064e+18
14026.0	2.1994713598918656e+18
14027.0	2.1990108521562104e+18
14028.0	2.1985483059888123e+18
14029.0	2.1980821795635192e+18
14030.0	2.1950955381587983e+18
14031.0	2.197078182304153e+18
14032.0	2.19669700060119e+18
14033.0	2.1961933569654784e+18
14034.0	2.195773518879129e+18
14035.0	2.1953189905432573e+18
14036.0	2.194850303914803e+18
14037.0	2.1943993122160637e+18
14038.0	2.19393903600599e+18
14039.0	2.193475335566131e+18
14040.0	2.193013106488115e+18
14041.0	2.1925560716361723e+18
14042.0	2.1920901062721533e+18
14043.0	2.1916107141021696e+18
14044.0	2.1911707735556086e+18
14045.0	2.1907164599681021e+18
14046.0	2.190254477515161e+18
14047.0	2.1897841282646016e+18
14048.0	2.1893366245490683e+18
14049.0	2.1888803211837437e+18
14050.0	2.1884214307717112e+18
14051.0	2.1879560039563264e+18
14052.0	2.1874999287611387e+18
14053.0	2.1870444760006653e+18
14054.0	2.186585983208652e+18
14055.0	2.1861273394216957e+18
14056.0	2.1856688214638587e+18
14057.0	2.1852104360460283e+18
14058.0	2.1847521345142784e+18
14059.0	2.1842896051240952e+18
14060.0	2.1838356992229373e+18
14061.0	2.183373304050483e+18
14062.0	2.1829198209351677e+18
14063.0	2.1824492988792827e+18
14064.0	2.1816163537256448e+18
14065.0	2.181540829410099e+18
14066.0	2.1810894216364024e+18
14067.0	2.1805994950524923e+18
14068.0	2.18017506000896e+18
14069.0	2.1797127017463808e+18
14070.0	2.1792588965085181e+18
14071.0	2.1788022575988733e+18
14072.0	2.1783475413581821e+18
14073.0	2.1778908554723325e+18
14074.0	2.1774340739563515e+18
14075.0	2.176962234889011e+18
14076.0	2.1764861763518461e+18
14077.0	2.1754885208801277e+18
14078.0	2.1755643253751805e+18
14079.0	2.1751440041050112e+18
14080.0	2.1746972905963515e+18
14081.0	2.1742418747457533e+18
14082.0	2.1737832460582904e+18
14083.0	2.173329378744729e+18
14084.0	2.1728723908689915e+18
14085.0	2.1719476676329467e+18
14086.0	2.171912933762662e+18
14087.0	2.171508586079846e+18
14088.0	2.1710385925062653e+18
14089.0	2.1705723989721085e+18
14090.0	2.170136911098675e+18
14091.0	2.1696902412107773e+18
14092.0	2.169236321887846e+18
14093.0	2.1687112856240125e+18
14094.0	2.1679910732955643e+18
14095.0	2.1675339814010877e+18
14096.0	2.1669732432216061e+18
14097.0	2.1665815304601595e+18
14098.0	2.1661221803524093e+18
14099.0	2.1657194130833405e+18
14100.0	2.1652598884925437e+18
14101.0	2.1648151832166392e+18
14102.0	2.1643618192195576e+18
14103.0	2.163899266341273e+18
14104.0	2.16345572540416e+18
14105.0	2.1630023563739133e+18
14106.0	2.162549636621926e+18
14107.0	2.162095779374694e+18
14108.0	2.1616304817438715e+18
14109.0	2.1611867730345981e+18
14110.0	2.160732840289894e+18
14111.0	2.160276813748633e+18
14112.0	2.1598250620420093e+18
14113.0	2.1593641147432955e+18
14114.0	2.1589158224986112e+18
14115.0	2.158466134389555e+18
14116.0	2.157926418061721e+18
14117.0	2.1533118632558597e+18
14118.0	2.1570998918709245e+18
14119.0	2.156586770785894e+18
14120.0	2.156151474172723e+18
14121.0	2.1557385181003773e+18
14122.0	2.1552671286624253e+18
14123.0	2.1547962559627261e+18
14124.0	2.1543418752663547e+18
14125.0	2.1536152724963325e+18
14126.0	2.1534939027603448e+18
14127.0	2.153060597602713e+18
14128.0	2.1526102501490685e+18
14129.0	2.152152128133529e+18
14130.0	2.1516945060790264e+18
14131.0	2.1512584477802493e+18
14132.0	2.150804357329715e+18
14133.0	2.1499623608680438e+18
14134.0	2.1499079775223805e+18
14135.0	2.149428108879462e+18
14136.0	2.1489138704318461e+18
14137.0	2.148544608940851e+18
14138.0	2.14806317498368e+18
14139.0	2.14766026007511e+18
14140.0	2.1472026615087101e+18
14141.0	2.1467027826802688e+18
14142.0	2.1459947002789883e+18
14143.0	2.145853207950131e+18
14144.0	2.145417431508582e+18
14145.0	2.1449706928340987e+18
14146.0	2.144515795399475e+18
14147.0	2.1440694275014648e+18
14148.0	2.143613263387033e+18
14149.0	2.143164536612454e+18
14150.0	2.1427310318059515e+18
14151.0	2.142261021455155e+18
14152.0	2.1418355227361277e+18
14153.0	2.1413876985757693e+18
14154.0	2.140920089044582e+18
14155.0	2.1403770625720317e+18
14156.0	2.140027729058201e+18
14157.0	2.1395973548802043e+18
14158.0	2.13914670375895e+18
14159.0	2.1387035101102077e+18
14160.0	2.138251038661017e+18
14161.0	2.1377649221828605e+18
14162.0	2.137282531924377e+18
14163.0	2.1369072927113216e+18
14164.0	2.1363313979949053e+18
14165.0	2.1359504075522043e+18
14166.0	2.1355720259665915e+18
14167.0	2.1351178365304827e+18
14168.0	2.1346742150627325e+18
14169.0	2.1342338181758973e+18
14170.0	2.1337852574957565e+18
14171.0	2.1333451391107064e+18
14172.0	2.132901541131059e+18
14173.0	2.1324177701076987e+18
14174.0	2.1320045590216701e+18
14175.0	2.131565407004262e+18
14176.0	2.1311189501870075e+18
14177.0	2.1306748035923965e+18
14178.0	2.130229197379993e+18
14179.0	2.1297779104022525e+18
14180.0	2.129340593812275e+18
14181.0	2.128895829816115e+18
14182.0	2.1283175443464187e+18
14183.0	2.1276259724034045e+18
14184.0	2.1271763782467576e+18
14185.0	2.1267294634115067e+18
14186.0	2.1254727475920893e+18
14187.0	2.1258119644446717e+18
14188.0	2.125400598852403e+18
14189.0	2.1249507312271357e+18
14190.0	2.1245080023072765e+18
14191.0	2.1240603811512317e+18
14192.0	2.123617893823283e+18
14193.0	2.123043322829209e+18
14194.0	2.1227317732835325e+18
14195.0	2.1222957988708347e+18
14196.0	2.121852657231462e+18
14197.0	2.12140936963031e+18
14198.0	2.1209625034489853e+18
14199.0	2.1205202543575037e+18
14200.0	2.1195231022022656e+18
14201.0	2.1194126611447805e+18
14202.0	2.1189978075693053e+18
14203.0	2.1185477520392187e+18
14204.0	2.1181106283872256e+18
14205.0	2.1176675135913976e+18
14206.0	2.117133670966886e+18
14207.0	2.1167831731142648e+18
14208.0	2.1163411236716536e+18
14209.0	2.1157991122206717e+18
14210.0	2.1153867769053181e+18
14211.0	2.1150097274306555e+18
14212.0	2.1145707868061693e+18
14213.0	2.114123749497241e+18
14214.0	2.1136863859310587e+18
14215.0	2.113234196339097e+18
14216.0	2.1128032886456317e+18
14217.0	2.1123616938655736e+18
14218.0	2.1119104605749245e+18
14219.0	2.111478202315571e+18
14220.0	2.1109272351866877e+18
14221.0	2.1103884298616827e+18
14222.0	2.1098986945380347e+18
14223.0	2.109510989853491e+18
14224.0	2.1090673499308027e+18
14225.0	2.1072193429438472e+18
14226.0	2.108170257091788e+18
14227.0	2.1077421897809917e+18
14228.0	2.104114707378996e+18
14229.0	2.1062771009388518e+18
14230.0	2.1064210477744125e+18
14231.0	2.1059318610657277e+18
14232.0	2.1055412119797755e+18
14233.0	2.105097243223654e+18
14234.0	2.1046601229271035e+18
14235.0	2.1042178218262525e+18
14236.0	2.103779010386329e+18
14237.0	2.1033358335148027e+18
14238.0	2.1028958443143165e+18
14239.0	2.1024463222996987e+18
14240.0	2.1009624698191872e+18
14241.0	2.1015597286424568e+18
14242.0	2.1011303778746365e+18
14243.0	2.1004395357405176e+18
14244.0	2.100054954973593e+18
14245.0	2.0996039079100408e+18
14246.0	2.0991608233132027e+18
14247.0	2.098731430602342e+18
14248.0	2.0982850996142077e+18
14249.0	2.0978541315227643e+18
14250.0	2.0974142631182328e+18
14251.0	2.0969764381786104e+18
14252.0	2.0965366301720573e+18
14253.0	2.0960960839679997e+18
14254.0	2.0956540966010877e+18
14255.0	2.0951870910496765e+18
14256.0	2.093234976404276e+18
14257.0	2.0942193862639608e+18
14258.0	2.093896010458726e+18
14259.0	2.093444889575424e+18
14260.0	2.0929744077848573e+18
14261.0	2.0925646058291197e+18
14262.0	2.0921555403931645e+18
14263.0	2.0894814048354312e+18
14264.0	2.090778894322892e+18
14265.0	2.090838325932851e+18
14266.0	2.0904138892115963e+18
14267.0	2.0899777017282557e+18
14268.0	2.089426506429235e+18
14269.0	2.088890694159564e+18
14270.0	2.0884562615730173e+18
14271.0	2.0880157942218752e+18
14272.0	2.087574224607641e+18
14273.0	2.0871121867898877e+18
14274.0	2.083250576660891e+18
14275.0	2.0858913272365053e+18
14276.0	2.0858043390492664e+18
14277.0	2.0853767716995064e+18
14278.0	2.0849525983805435e+18
14279.0	2.084515295212339e+18
14280.0	2.0840738648489976e+18
14281.0	2.0836421401051133e+18
14282.0	2.0832052379123704e+18
14283.0	2.0827680907722747e+18
14284.0	2.082330834580275e+18
14285.0	2.0818929274322936e+18
14286.0	2.0814540908265467e+18
14287.0	2.0810194955010043e+18
14288.0	2.0805816604950525e+18
14289.0	2.0794680509726705e+18
14290.0	2.079707480299929e+18
14291.0	2.0792726970695677e+18
14292.0	2.078837105177395e+18
14293.0	2.078398770210406e+18
14294.0	2.0778619898953725e+18
14295.0	2.0774504196210683e+18
14296.0	2.0759278637809661e+18
14297.0	2.0760010980065277e+18
14298.0	2.0750650082066424e+18
14299.0	2.075113371887206e+18
14300.0	2.0746915943546877e+18
14301.0	2.0742575258337277e+18
14302.0	2.073822621807411e+18
14303.0	2.073359008609075e+18
14304.0	2.0729357815250944e+18
14305.0	2.072507279684403e+18
14306.0	2.0720326505660416e+18
14307.0	2.0716026287095805e+18
14308.0	2.0711782674857976e+18
14309.0	2.0707184291610621e+18
14310.0	2.070154494921932e+18
14311.0	2.0696351931105275e+18
14312.0	2.069315674387251e+18
14313.0	2.0689320750874621e+18
14314.0	2.068551509108326e+18
14315.0	2.0681423413313533e+18
14316.0	2.0676781090537472e+18
14317.0	2.0672263892238333e+18
14318.0	2.066853748801536e+18
14319.0	2.0664241799299067e+18
14320.0	2.0659913193684987e+18
14321.0	2.0655586349678587e+18
14322.0	2.065095201285734e+18
14323.0	2.064677415052902e+18
14324.0	2.0642578923782136e+18
14325.0	2.0638170810941437e+18
14326.0	2.0633918105452536e+18
14327.0	2.062953000783052e+18
14328.0	2.0623307086757888e+18
14329.0	2.061873136952934e+18
14330.0	2.0614391372185597e+18
14331.0	2.0609991396294648e+18
14332.0	2.0605712753229821e+18
14333.0	2.0601374433607675e+18
14334.0	2.0597035510005755e+18
14335.0	2.0592600956272637e+18
14336.0	2.0586799629860861e+18
14337.0	2.0583996509388797e+18
14338.0	2.0579665521410043e+18
14339.0	2.0575230078484477e+18
14340.0	2.057099809285734e+18
14341.0	2.0566588218408955e+18
14342.0	2.0560464433905661e+18
14343.0	2.055577444705894e+18
14344.0	2.0551414317055997e+18
14345.0	2.05471259599831e+18
14346.0	2.0542725145231355e+18
14347.0	2.053799465818521e+18
14348.0	2.053407848687206e+18
14349.0	2.0529816939790333e+18
14350.0	2.052425614832435e+18
14351.0	2.0519834596933624e+18
14352.0	2.0516803977412603e+18
14353.0	2.0512543252414461e+18
14354.0	2.050807011108454e+18
14355.0	2.0503445152727037e+18
14356.0	2.0499230330191864e+18
14357.0	2.0495275638390776e+18
14358.0	2.049096151151411e+18
14359.0	2.0486518585950205e+18
14360.0	2.0482218199613435e+18
14361.0	2.0477959320109053e+18
14362.0	2.0473693394173947e+18
14363.0	2.0469362389417981e+18
14364.0	2.0460569299517437e+18
14365.0	2.0457693869244408e+18
14366.0	2.045361499249049e+18
14367.0	2.044996957188915e+18
14368.0	2.044565182113382e+18
14369.0	2.0441340143730683e+18
14370.0	2.0437028197892093e+18
14371.0	2.043271923839795e+18
14372.0	2.0428360282800128e+18
14373.0	2.0424069476253693e+18
14374.0	2.041977427407667e+18
14375.0	2.0415454996594683e+18
14376.0	2.0411150751498237e+18
14377.0	2.0406834393251835e+18
14378.0	2.0402508170002427e+18
14379.0	2.0398217346678784e+18
14380.0	2.039390028378931e+18
14381.0	2.0389504166658045e+18
14382.0	2.0385277885284347e+18
14383.0	2.038093745173299e+18
14384.0	2.0376522309238781e+18
14385.0	2.037236966306611e+18
14386.0	2.0367943682490365e+18
14387.0	2.0363756760465405e+18
14388.0	2.0359438808383488e+18
14389.0	2.0355146743545856e+18
14390.0	2.0350830955724797e+18
14391.0	2.0346543034859517e+18
14392.0	2.0342229159641083e+18
14393.0	2.0337939259064315e+18
14394.0	2.0333334265593848e+18
14395.0	2.032915502753382e+18
14396.0	2.032502766462566e+18
14397.0	2.0320739861200893e+18
14398.0	2.031643306596761e+18
14399.0	2.031213180721561e+18
14400.0	2.0307681667448827e+18
14401.0	2.0303481961185275e+18
14402.0	2.0299196607234043e+18
14403.0	2.0284190780030953e+18
14404.0	2.0253134441938924e+18
14405.0	2.0274298866368484e+18
14406.0	2.0279867526348797e+18
14407.0	2.0260548880891907e+18
14408.0	2.0270806789521405e+18
14409.0	2.026142956729139e+18
14410.0	2.0256986943717373e+18
14411.0	2.025297170294374e+18
14412.0	2.0248667155857403e+18
14413.0	2.024439799191961e+18
14414.0	2.0240082388647933e+18
14415.0	2.0235793712807933e+18
14416.0	2.0231394156347387e+18
14417.0	2.0226799011102715e+18
14418.0	2.0222415678210043e+18
14419.0	2.0218585943113728e+18
14420.0	2.0214275037462525e+18
14421.0	2.0210000538370043e+18
14422.0	2.0205617826234365e+18
14423.0	2.020082588424601e+18
14424.0	2.0136316079439836e+18
14425.0	2.0192467844333565e+18
14426.0	2.018852127270502e+18
14427.0	2.0184282274201597e+18
14428.0	2.0179830255386624e+18
14429.0	2.017569054444748e+18
14430.0	2.0171397137432573e+18
14431.0	2.0160580916609021e+18
14432.0	2.016276272644096e+18
14433.0	2.0147247962390518e+18
14434.0	2.0154092076662781e+18
14435.0	2.0149149626269693e+18
14436.0	2.0145682346147837e+18
14437.0	2.0141439790874624e+18
14438.0	2.0136241051729917e+18
14439.0	2.0132731811790845e+18
14440.0	2.012859850974822e+18
14441.0	2.012427790686617e+18
14442.0	2.0119963176009725e+18
14443.0	2.0115391334318077e+18
14444.0	2.0111439595307005e+18
14445.0	2.0107170213265405e+18
14446.0	2.008705844169933e+18
14447.0	2.009845453343948e+18
14448.0	2.009435231957811e+18
14449.0	2.0090078625791997e+18
14450.0	2.0085752452874237e+18
14451.0	2.0081504612777976e+18
14452.0	2.007720373990195e+18
14453.0	2.007275323103641e+18
14454.0	2.006850013967155e+18
14455.0	2.0062111761694715e+18
14456.0	2.0057772838092797e+18
14457.0	2.0053487685468152e+18
14458.0	2.0049172182859773e+18
14459.0	2.0044801986527227e+18
14460.0	2.0040316279062525e+18
14461.0	2.0035184430678016e+18
14462.0	2.0029455766388733e+18
14463.0	2.0027091135234045e+18
14464.0	2.0023324516024315e+18
14465.0	2.001906249918054e+18
14466.0	2.0014996322779133e+18
14467.0	2.0010517829517307e+18
14468.0	2.0006481365565437e+18
14469.0	2.0001673317449725e+18
14470.0	1.999774397602201e+18
14471.0	1.999369179181875e+18
14472.0	1.9989458212356093e+18
14473.0	1.998522156266291e+18
14474.0	1.9980983688232955e+18
14475.0	1.9976683905875963e+18
14476.0	1.997171711174246e+18
14477.0	1.9968142927200253e+18
14478.0	1.996388404769587e+18
14479.0	1.995959988492697e+18
14480.0	1.995521470654054e+18
14481.0	1.9951097829392381e+18
14482.0	1.9946797073956861e+18
14483.0	1.9942473014968315e+18
14484.0	1.99381973246935e+18
14485.0	1.9933703899709437e+18
14486.0	1.9927441233412096e+18
14487.0	1.9925418891018237e+18
14488.0	1.9920527158149115e+18
14489.0	1.9916289367605245e+18
14490.0	1.9912518705086461e+18
14491.0	1.9908384027312125e+18
14492.0	1.990412170847846e+18
14493.0	1.989972409817497e+18
14494.0	1.9895399418429437e+18
14495.0	1.9891299452715003e+18
14496.0	1.9886001023352827e+18
14497.0	1.9882767584067581e+18
14498.0	1.987801854142054e+18
14499.0	1.98729838666711e+18
14500.0	1.9868711917715453e+18
14501.0	1.9864060048703488e+18
14502.0	1.9858117122588672e+18
14503.0	1.9855630722400248e+18
14504.0	1.9851598301757437e+18
14505.0	1.984702157789593e+18
14506.0	1.98424082293719e+18
14507.0	1.9836955869052928e+18
14508.0	1.9834582631186432e+18
14509.0	1.983032502675046e+18
14510.0	1.9826038850715645e+18
14511.0	1.9819742143447037e+18
14512.0	1.9815286316204027e+18
14513.0	1.9811134861213693e+18
14514.0	1.9806599342194683e+18
14515.0	1.9802570293772288e+18
14516.0	1.9781401708593162e+18
14517.0	1.979398440248934e+18
14518.0	1.978978181054464e+18
14519.0	1.9785517025460221e+18
14520.0	1.9781246200578045e+18
14521.0	1.977696790983475e+18
14522.0	1.9772622476673021e+18
14523.0	1.9767056735928315e+18
14524.0	1.976329669338726e+18
14525.0	1.9759832768708605e+18
14526.0	1.9755613516988416e+18
14527.0	1.9751174534070264e+18
14528.0	1.9746058338828283e+18
14529.0	1.9742707643580408e+18
14530.0	1.9738378618535936e+18
14531.0	1.97342253851607e+18
14532.0	1.9728945461067768e+18
14533.0	1.9725685916434432e+18
14534.0	1.9721436700606461e+18
14535.0	1.9717072963502077e+18
14536.0	1.971285646324531e+18
14537.0	1.9708520744091645e+18
14538.0	1.9704344995692536e+18
14539.0	1.9700073164177405e+18
14540.0	1.969579901740646e+18
14541.0	1.969133171454771e+18
14542.0	1.968722382998732e+18
14543.0	1.9682394625802237e+18
14544.0	1.9678085397872637e+18
14545.0	1.966775692427264e+18
14546.0	1.9597870172733396e+18
14547.0	1.9599361784676306e+18
14548.0	1.9654904368857083e+18
14549.0	1.9649865600466941e+18
14550.0	1.9646482474860536e+18
14551.0	1.96422740779991e+18
14552.0	1.9637994914840568e+18
14553.0	1.9633682029477883e+18
14554.0	1.96294605799424e+18
14555.0	1.9625182624743421e+18
14556.0	1.9620890392133627e+18
14557.0	1.961662614392012e+18
14558.0	1.9612307537526781e+18
14559.0	1.9595466886873062e+18
14560.0	1.9603575751573501e+18
14561.0	1.959944523454873e+18
14562.0	1.9594912181780477e+18
14563.0	1.9590846357700605e+18
14564.0	1.9586132832419835e+18
14565.0	1.9582399499206653e+18
14566.0	1.9578128623992827e+18
14567.0	1.9573777671127037e+18
14568.0	1.9569078221930493e+18
14569.0	1.9565219126706173e+18
14570.0	1.9557197990068221e+18
14571.0	1.9556662478110715e+18
14572.0	1.955190850296217e+18
14573.0	1.9547620816977917e+18
14574.0	1.9542685480124408e+18
14575.0	1.95388288008192e+18
14576.0	1.953288827384627e+18
14577.0	1.952885568543129e+18
14578.0	1.9524599792271355e+18
14579.0	1.9520339973242877e+18
14580.0	1.951603916747571e+18
14581.0	1.951167558136627e+18
14582.0	1.9507355314028544e+18
14583.0	1.9503178743545856e+18
14584.0	1.949856190536089e+18
14585.0	1.9494584379768832e+18
14586.0	1.9490277517426688e+18
14587.0	1.9485994461954045e+18
14588.0	1.948158920124006e+18
14589.0	1.9477098427056128e+18
14590.0	1.9472880953720832e+18
14591.0	1.9468598200238077e+18
14592.0	1.9464360158035963e+18
14593.0	1.9459302968262648e+18
14594.0	1.945598141503897e+18
14595.0	1.9451708207792128e+18
14596.0	1.9444174818377718e+18
14597.0	1.943924768558284e+18
14598.0	1.943867814943129e+18
14599.0	1.9434818869657597e+18
14600.0	1.943050940684697e+18
14601.0	1.9426298728284155e+18
14602.0	1.9421964133203965e+18
14603.0	1.9417792495222784e+18
14604.0	1.941309495862886e+18
14605.0	1.9408769876230141e+18
14606.0	1.9404538779795453e+18
14607.0	1.9400838279593984e+18
14608.0	1.9396627164823547e+18
14609.0	1.9392248210784248e+18
14610.0	1.9387564431507453e+18
14611.0	1.938370473230336e+18
14612.0	1.9379700698710008e+18
14613.0	1.9375528741961728e+18
14614.0	1.9371291521843192e+18
14615.0	1.9367059536216061e+18
14616.0	1.9362859259527165e+18
14617.0	1.9358613751463933e+18
14618.0	1.935403399092633e+18
14619.0	1.9347251885244406e+18
14620.0	1.9336517386239997e+18
14621.0	1.9341605781635072e+18
14622.0	1.9337366816686075e+18
14623.0	1.9333148303163387e+18
14624.0	1.9328443166490621e+18
14625.0	1.9324616786837504e+18
14626.0	1.9320373711470587e+18
14627.0	1.9316083827671035e+18
14628.0	1.9311881957146621e+18
14629.0	1.9307613581737981e+18
14630.0	1.9303280446275581e+18
14631.0	1.9299086880473088e+18
14632.0	1.9290021714460672e+18
14633.0	1.928969806518681e+18
14634.0	1.9286161713266683e+18
14635.0	1.9280592700964854e+18
14636.0	1.927388775369932e+18
14637.0	1.9273484882411515e+18
14638.0	1.9268987464450045e+18
14639.0	1.926464859117977e+18
14640.0	1.926055958098739e+18
14641.0	1.9237547666309105e+18
14642.0	1.9251969008861181e+18
14643.0	1.9247741754408955e+18
14644.0	1.9243325152296952e+18
14645.0	1.9238997586870272e+18
14646.0	1.923446835930726e+18
14647.0	1.9229840397828093e+18
14648.0	1.9226017021296635e+18
