# Flux units: erg / (cm m2 s)
# Wavelength units: Angstrom
wave	flux
14000.0	2.043939791254322e+18
14001.0	2.0448486113673216e+18
14002.0	2.044634675019776e+18
14003.0	2.0442698192257021e+18
14004.0	2.0438827017437176e+18
14005.0	2.0434974901534715e+18
14006.0	2.043100940520652e+18
14007.0	2.0427017535094781e+18
14008.0	2.04224301409239e+18
14009.0	2.0419059950551037e+18
14010.0	2.0415036690268155e+18
14011.0	2.0406611927367677e+18
14012.0	2.0407162572374016e+18
14013.0	2.0403433215361021e+18
14014.0	2.039945933042483e+18
14015.0	2.0395557973393405e+18
14016.0	2.039162616571494e+18
14017.0	2.0387685415780347e+18
14018.0	2.038362381955891e+18
14019.0	2.0379791047786493e+18
14020.0	2.0375834443382781e+18
14021.0	2.0371868225634301e+18
14022.0	2.0367857833476093e+18
14023.0	2.036376639058739e+18
14024.0	2.0359849095200765e+18
14025.0	2.0356044022611965e+18
14026.0	2.0352096847003643e+18
14027.0	2.0348109708066808e+18
14028.0	2.0343941240979453e+18
14029.0	2.033917340785049e+18
14030.0	2.0303404064571402e+18
14031.0	2.0325330392711158e+18
14032.0	2.0327833771442168e+18
14033.0	2.0323964291121152e+18
14034.0	2.0320543601328128e+18
14035.0	2.0316703380471803e+18
14036.0	2.0312618380034045e+18
14037.0	2.0308910984396792e+18
14038.0	2.03050110198743e+18
14039.0	2.0301056395182075e+18
14040.0	2.0297150558633981e+18
14041.0	2.0293241953845245e+18
14042.0	2.02892442117079e+18
14043.0	2.0285120321683448e+18
14044.0	2.0281345565523965e+18
14045.0	2.0277469223321592e+18
14046.0	2.0273590297427965e+18
14047.0	2.0269564705112064e+18
14048.0	2.026578711360307e+18
14049.0	2.0261902399569917e+18
14050.0	2.0257991294975992e+18
14051.0	2.0254026436182016e+18
14052.0	2.02501184857047e+18
14053.0	2.0246255078735864e+18
14054.0	2.024234489688883e+18
14055.0	2.0238434564046843e+18
14056.0	2.0234523828551675e+18
14057.0	2.023061418357555e+18
14058.0	2.0226704068837373e+18
14059.0	2.022260388501913e+18
14060.0	2.021888120533811e+18
14061.0	2.0214919416774653e+18
14062.0	2.0211027824082936e+18
14063.0	2.0206752637124605e+18
14064.0	2.019662102737715e+18
14065.0	2.019918577716428e+18
14066.0	2.019544679002931e+18
14067.0	2.01913592226775e+18
14068.0	2.018764102251315e+18
14069.0	2.0183675610071037e+18
14070.0	2.0179833057181693e+18
14071.0	2.0175935928008701e+18
14072.0	2.0172060743434237e+18
14073.0	2.016815806100275e+18
14074.0	2.0164243315752955e+18
14075.0	2.016013623649894e+18
14076.0	2.015601326922137e+18
14077.0	2.0144862510710784e+18
14078.0	2.014745428859289e+18
14079.0	2.0144558893432827e+18
14080.0	2.0140813010862075e+18
14081.0	2.013697654810214e+18
14082.0	2.0133087656542208e+18
14083.0	2.0129139205865472e+18
14084.0	2.0124907824218112e+18
14085.0	2.0116558743339003e+18
14086.0	2.011650582799974e+18
14087.0	2.0113431336058875e+18
14088.0	2.010959433642803e+18
14089.0	2.0105773258375165e+18
14090.0	2.0101999760506877e+18
14091.0	2.0098163096420344e+18
14092.0	2.0094294253633533e+18
14093.0	2.0090404154114043e+18
14094.0	2.0086485600436221e+18
14095.0	2.0082471416627197e+18
14096.0	2.007787464399257e+18
14097.0	2.0074110340038656e+18
14098.0	2.007051615705497e+18
14099.0	2.0067033005686781e+18
14100.0	2.0063184631103483e+18
14101.0	2.005943324560588e+18
14102.0	2.0055586733293563e+18
14103.0	2.0051606204579837e+18
14104.0	2.004782740511129e+18
14105.0	2.0043987352027133e+18
14106.0	2.0040119046111227e+18
14107.0	2.0036151419076605e+18
14108.0	2.0032218453770237e+18
14109.0	2.0028459082317821e+18
14110.0	2.002458891413094e+18
14111.0	2.002066774320742e+18
14112.0	2.0016729442746365e+18
14113.0	2.0012798205493245e+18
14114.0	2.0008690320932861e+18
14115.0	2.0004311299784701e+18
14116.0	1.999529257310617e+18
14117.0	1.9935325971283968e+18
14118.0	1.9990435619405824e+18
14119.0	1.998831450954137e+18
14120.0	1.9984990422958077e+18
14121.0	1.998158610772787e+18
14122.0	1.9977819303968765e+18
14123.0	1.9973950679285755e+18
14124.0	1.9969933609795581e+18
14125.0	1.996326790443827e+18
14126.0	1.9962592302727165e+18
14127.0	1.995897322235494e+18
14128.0	1.9955215109193725e+18
14129.0	1.9951295951536125e+18
14130.0	1.994736149305753e+18
14131.0	1.9943677082206203e+18
14132.0	1.9939569046650877e+18
14133.0	1.9932114677923835e+18
14134.0	1.9931801061425147e+18
14135.0	1.9928079354822656e+18
14136.0	1.9924211954876416e+18
14137.0	1.9920356517085181e+18
14138.0	1.9916409140150272e+18
14139.0	1.9912806300123133e+18
14140.0	1.9908791998873597e+18
14141.0	1.9903874848522237e+18
14142.0	1.9898928807804925e+18
14143.0	1.9897142957047803e+18
14144.0	1.9893705674588155e+18
14145.0	1.9889988179066877e+18
14146.0	1.9886039912939517e+18
14147.0	1.9882363202830333e+18
14148.0	1.9878528719781883e+18
14149.0	1.9874722657337344e+18
14150.0	1.987097351998668e+18
14151.0	1.9867054949531643e+18
14152.0	1.9863341530873848e+18
14153.0	1.985953001583411e+18
14154.0	1.985547365410406e+18
14155.0	1.985119428961894e+18
14156.0	1.9847975144521725e+18
14157.0	1.9844230604128253e+18
14158.0	1.9840396725059584e+18
14159.0	1.9836589219774461e+18
14160.0	1.9832606459691005e+18
14161.0	1.982852863990169e+18
14162.0	1.9824293818925053e+18
14163.0	1.9820873447899136e+18
14164.0	1.9816341116551165e+18
14165.0	1.981323486534041e+18
14166.0	1.9809778171641853e+18
14167.0	1.9805922431860733e+18
14168.0	1.9802245621088248e+18
14169.0	1.9798403051421693e+18
14170.0	1.9794654534828032e+18
14171.0	1.9790874980384765e+18
14172.0	1.9787074756411387e+18
14173.0	1.9783137412251643e+18
14174.0	1.9779388459450368e+18
14175.0	1.9775618065367037e+18
14176.0	1.977186959910502e+18
14177.0	1.976807153939251e+18
14178.0	1.9764264940077053e+18
14179.0	1.9760435003654136e+18
14180.0	1.975665860332749e+18
14181.0	1.9752847860039677e+18
14182.0	1.9749020339535864e+18
14183.0	1.974517305547161e+18
14184.0	1.9741194389028861e+18
14185.0	1.9736675764666363e+18
14186.0	1.9724326123077627e+18
14187.0	1.9727949263536125e+18
14188.0	1.9725887729565693e+18
14189.0	1.9722249758048253e+18
14190.0	1.971851917629849e+18
14191.0	1.9714695967539197e+18
14192.0	1.971071198271897e+18
14193.0	1.9705698497593341e+18
14194.0	1.9703335477051387e+18
14195.0	1.969972003733504e+18
14196.0	1.9696003431006203e+18
14197.0	1.9692223557795837e+18
14198.0	1.968837514965811e+18
14199.0	1.968442107861401e+18
14200.0	1.9674607380332541e+18
14201.0	1.9675270080364541e+18
14202.0	1.967316173796147e+18
14203.0	1.9669368325537795e+18
14204.0	1.9665623667703803e+18
14205.0	1.9661816967725048e+18
14206.0	1.9657205632466941e+18
14207.0	1.965422960600678e+18
14208.0	1.9650508486606843e+18
14209.0	1.9645863462699003e+18
14210.0	1.96425366414295e+18
14211.0	1.9639504478404605e+18
14212.0	1.9635815571259387e+18
14213.0	1.9632034271985661e+18
14214.0	1.9628319645368317e+18
14215.0	1.9624427448696824e+18
14216.0	1.9620554629709821e+18
14217.0	1.961643038736384e+18
14218.0	1.9612549951520765e+18
14219.0	1.9608893776723965e+18
14220.0	1.9605017904283643e+18
14221.0	1.9601158658064381e+18
14222.0	1.9597058507800573e+18
14223.0	1.959351666973081e+18
14224.0	1.9589256162836477e+18
14225.0	1.9564933779816453e+18
14226.0	1.9579682915614715e+18
14227.0	1.9577631196315645e+18
14228.0	1.9523255115186186e+18
14229.0	1.9554780779118559e+18
14230.0	1.9566992662986747e+18
14231.0	1.9563105600143355e+18
14232.0	1.955970277808537e+18
14233.0	1.955597665907507e+18
14234.0	1.9552119191240701e+18
14235.0	1.954813367969382e+18
14236.0	1.954439935662489e+18
14237.0	1.9540591180251133e+18
14238.0	1.9536786107662333e+18
14239.0	1.9532657184473088e+18
14240.0	1.9517010954158077e+18
14241.0	1.9524528371662843e+18
14242.0	1.9521359977644027e+18
14243.0	1.9516873280323581e+18
14244.0	1.9514168323342333e+18
14245.0	1.9510400261292032e+18
14246.0	1.9506666961633277e+18
14247.0	1.9503061621800952e+18
14248.0	1.9499382663544824e+18
14249.0	1.9495352944033787e+18
14250.0	1.9491621036883965e+18
14251.0	1.9487861514436603e+18
14252.0	1.9484109726285821e+18
14253.0	1.9480461235453947e+18
14254.0	1.9476055857299453e+18
14255.0	1.9470556436889597e+18
14256.0	1.9448609170784259e+18
14257.0	1.9456741842354168e+18
14258.0	1.9460122870808573e+18
14259.0	1.9456765246570493e+18
14260.0	1.9452522674520061e+18
14261.0	1.9448912620290043e+18
14262.0	1.9443938158968827e+18
14263.0	1.941282680838554e+18
14264.0	1.9422018474606584e+18
14265.0	1.943315752262041e+18
14266.0	1.9430798461501437e+18
14267.0	1.9427408172023803e+18
14268.0	1.9423570585190392e+18
14269.0	1.9419488671760384e+18
14270.0	1.9415938931621883e+18
14271.0	1.9412188686974973e+18
14272.0	1.9407781161336827e+18
14273.0	1.940041780900659e+18
14274.0	1.9351712879869957e+18
14275.0	1.938412359227801e+18
14276.0	1.9392165012570107e+18
14277.0	1.9389377562017787e+18
14278.0	1.9385853994336253e+18
14279.0	1.9382299908898816e+18
14280.0	1.9378651116077053e+18
14281.0	1.937503973644697e+18
14282.0	1.937141292177817e+18
14283.0	1.9367716431331325e+18
14284.0	1.936400972355993e+18
14285.0	1.9360290952970237e+18
14286.0	1.9356562887802877e+18
14287.0	1.9352827490992125e+18
14288.0	1.9348856760172544e+18
14289.0	1.933736772265573e+18
14290.0	1.9341299563888635e+18
14291.0	1.933755651666739e+18
14292.0	1.9333588419870715e+18
14293.0	1.9329829467848704e+18
14294.0	1.932519618799206e+18
14295.0	1.9322224607494141e+18
14296.0	1.9313201871060995e+18
14297.0	1.9314669323812861e+18
14298.0	1.930593522260377e+18
14299.0	1.9307397709299707e+18
14300.0	1.9304383581782016e+18
14301.0	1.9300790556426235e+18
14302.0	1.9296792042536955e+18
14303.0	1.9292294054150141e+18
14304.0	1.9288754128683003e+18
14305.0	1.9285090353807352e+18
14306.0	1.928112787737805e+18
14307.0	1.9277338608926712e+18
14308.0	1.9273673273769981e+18
14309.0	1.9269766380257275e+18
14310.0	1.926558863536947e+18
14311.0	1.9261257227960315e+18
14312.0	1.9257993052815355e+18
14313.0	1.925431417844531e+18
14314.0	1.9251457672871933e+18
14315.0	1.9247947443077117e+18
14316.0	1.9243858466439163e+18
14317.0	1.9239657149562875e+18
14318.0	1.923640223544115e+18
14319.0	1.9232861789880317e+18
14320.0	1.9229258127769592e+18
14321.0	1.9225823831654397e+18
14322.0	1.922194983826227e+18
14323.0	1.9218557585850365e+18
14324.0	1.9215312050192381e+18
14325.0	1.9211529979166717e+18
14326.0	1.9207947640897533e+18
14327.0	1.920420939196006e+18
14328.0	1.920056105212313e+18
14329.0	1.919692908684902e+18
14330.0	1.9192741829279744e+18
14331.0	1.9188754321244155e+18
14332.0	1.9185105830412283e+18
14333.0	1.9181421939654653e+18
14334.0	1.9177709829619707e+18
14335.0	1.9173733914640381e+18
14336.0	1.9168182132539387e+18
14337.0	1.9166571956011005e+18
14338.0	1.9162984081260541e+18
14339.0	1.915922432393216e+18
14340.0	1.9155632892411904e+18
14341.0	1.915196128257638e+18
14342.0	1.9148340927135741e+18
14343.0	1.9144705287651325e+18
14344.0	1.9140694710943741e+18
14345.0	1.9136739331276797e+18
14346.0	1.913300989037772e+18
14347.0	1.912908306553241e+18
14348.0	1.912563710925209e+18
14349.0	1.9122053797904381e+18
14350.0	1.911651585700659e+18
14351.0	1.9112827352514555e+18
14352.0	1.9111007225905152e+18
14353.0	1.9107435809603581e+18
14354.0	1.9103580304703483e+18
14355.0	1.9099712267223037e+18
14356.0	1.9096405075296253e+18
14357.0	1.9093283204497405e+18
14358.0	1.9089709120618493e+18
14359.0	1.9085908477214715e+18
14360.0	1.9082264264572925e+18
14361.0	1.9078624313343997e+18
14362.0	1.9074508526714877e+18
14363.0	1.907025343886131e+18
14364.0	1.906170256162816e+18
14365.0	1.9060351039438843e+18
14366.0	1.9058356396228603e+18
14367.0	1.9055907711221755e+18
14368.0	1.90523208934359e+18
14369.0	1.9048704094765053e+18
14370.0	1.904507880682291e+18
14371.0	1.9041423185674237e+18
14372.0	1.9037717836857344e+18
14373.0	1.903407600658022e+18
14374.0	1.9030468720590843e+18
14375.0	1.9026805063155712e+18
14376.0	1.9022978498953213e+18
14377.0	1.9018947051388925e+18
14378.0	1.901531901198336e+18
14379.0	1.901171013215846e+18
14380.0	1.9008116720926717e+18
14381.0	1.9004615500496893e+18
14382.0	1.9001061616386043e+18
14383.0	1.8997419198906365e+18
14384.0	1.8993601828618237e+18
14385.0	1.8989968437280765e+18
14386.0	1.8986076123168765e+18
14387.0	1.8982599179370493e+18
14388.0	1.8978939464581115e+18
14389.0	1.8975315770474493e+18
14390.0	1.8971671322951675e+18
14391.0	1.8968047192637437e+18
14392.0	1.896476392502067e+18
14393.0	1.896126444942131e+18
14394.0	1.8957261221134333e+18
14395.0	1.895387767609753e+18
14396.0	1.8950334227415037e+18
14397.0	1.894670862070579e+18
14398.0	1.8943063518871547e+18
14399.0	1.893865480205107e+18
14400.0	1.893475107943219e+18
14401.0	1.8931128844943355e+18
14402.0	1.8927348300644347e+18
14403.0	1.8920289974878203e+18
14404.0	1.8897809210081267e+18
14405.0	1.8901288553021422e+18
14406.0	1.891241966541209e+18
14407.0	1.8905674268278781e+18
14408.0	1.8905240845680635e+18
14409.0	1.8901993615523837e+18
14410.0	1.889818458351206e+18
14411.0	1.8894874472349693e+18
14412.0	1.8891305807511547e+18
14413.0	1.888736235644518e+18
14414.0	1.8883469656457216e+18
14415.0	1.887983311100313e+18
14416.0	1.8876125564370944e+18
14417.0	1.8872387751641083e+18
14418.0	1.8868921327157243e+18
14419.0	1.8865564155903997e+18
14420.0	1.886194567951155e+18
14421.0	1.8858268566749184e+18
14422.0	1.885435536500326e+18
14423.0	1.884970010699366e+18
14424.0	1.883187728456089e+18
14425.0	1.8842596784734203e+18
14426.0	1.883987298693939e+18
14427.0	1.8836363713445883e+18
14428.0	1.8832567583113213e+18
14429.0	1.882907347622297e+18
14430.0	1.8824645297831933e+18
14431.0	1.8812261397168125e+18
14432.0	1.881775494555238e+18
14433.0	1.881213135696691e+18
14434.0	1.8811199432949752e+18
14435.0	1.8807358591336443e+18
14436.0	1.8804277052964856e+18
14437.0	1.8800787828244477e+18
14438.0	1.8796274589368317e+18
14439.0	1.8793301163376637e+18
14440.0	1.8789228158648315e+18
14441.0	1.8785511283884024e+18
14442.0	1.8781862474285053e+18
14443.0	1.8777939407536125e+18
14444.0	1.8774633977217021e+18
14445.0	1.8770922722820093e+18
14446.0	1.8759244975177728e+18
14447.0	1.8763150375518205e+18
14448.0	1.8760241004937213e+18
14449.0	1.8756677843025915e+18
14450.0	1.875303054337638e+18
14451.0	1.87494388769751e+18
14452.0	1.8745845700624381e+18
14453.0	1.8742205833281533e+18
14454.0	1.8738169537101821e+18
14455.0	1.8734270679875581e+18
14456.0	1.8730569273704443e+18
14457.0	1.872700653122355e+18
14458.0	1.872343925889433e+18
14459.0	1.8719851317035003e+18
14460.0	1.8715987943620605e+18
14461.0	1.871177273520947e+18
14462.0	1.8707567677014013e+18
14463.0	1.870476069778227e+18
14464.0	1.8701614248361981e+18
14465.0	1.8698086805143547e+18
14466.0	1.869476681220096e+18
14467.0	1.8691115251138555e+18
14468.0	1.8687657852796918e+18
14469.0	1.8683637813739515e+18
14470.0	1.8680287034605565e+18
14471.0	1.867707439906816e+18
14472.0	1.8673544019836925e+18
14473.0	1.8670032263315453e+18
14474.0	1.8666511212216315e+18
14475.0	1.8662861848969213e+18
14476.0	1.8659000404934653e+18
14477.0	1.865554095977267e+18
14478.0	1.8651994390527997e+18
14479.0	1.864839587902259e+18
14480.0	1.8644690278547453e+18
14481.0	1.86412892684288e+18
14482.0	1.8637872538058747e+18
14483.0	1.863458084827955e+18
14484.0	1.8630901118271488e+18
14485.0	1.862700466018713e+18
14486.0	1.8621612983058424e+18
14487.0	1.862020814287667e+18
14488.0	1.8616338176016381e+18
14489.0	1.861186743382835e+18
14490.0	1.8608425202089984e+18
14491.0	1.860511535936307e+18
14492.0	1.860155660985958e+18
14493.0	1.859773705853337e+18
14494.0	1.8594181563809787e+18
14495.0	1.8590688144785405e+18
14496.0	1.8586250202054653e+18
14497.0	1.8583625775710203e+18
14498.0	1.858011163682406e+18
14499.0	1.857653738517299e+18
14500.0	1.8572948688338936e+18
14501.0	1.8569131804590075e+18
14502.0	1.856396177126195e+18
14503.0	1.8561935922429947e+18
14504.0	1.8557955913809917e+18
14505.0	1.8554350943076347e+18
14506.0	1.855056623802777e+18
14507.0	1.8545417964748797e+18
14508.0	1.8543968849494008e+18
14509.0	1.8540503431643128e+18
14510.0	1.853692059005747e+18
14511.0	1.8533359156199421e+18
14512.0	1.8529639446085627e+18
14513.0	1.8526097155031037e+18
14514.0	1.852228865989017e+18
14515.0	1.851853203990118e+18
14516.0	1.8495322909048837e+18
14517.0	1.8510577374593021e+18
14518.0	1.850818541335347e+18
14519.0	1.8504668153905147e+18
14520.0	1.8501188676747261e+18
14521.0	1.849761697523302e+18
14522.0	1.849394917382553e+18
14523.0	1.8489861338038272e+18
14524.0	1.8486630750879744e+18
14525.0	1.8483378420449277e+18
14526.0	1.847983066002227e+18
14527.0	1.84759815807959e+18
14528.0	1.8471795648626683e+18
14529.0	1.8469130252320765e+18
14530.0	1.8465543115767805e+18
14531.0	1.8462083033071613e+18
14532.0	1.8458194359615488e+18
14533.0	1.8454795715084283e+18
14534.0	1.8451275939053563e+18
14535.0	1.8447620317904893e+18
14536.0	1.8444124415852544e+18
14537.0	1.8440499278905344e+18
14538.0	1.8437149623844861e+18
14539.0	1.8434049043333117e+18
14540.0	1.8430491401125888e+18
14541.0	1.8426703726510077e+18
14542.0	1.8423335868170237e+18
14543.0	1.841958367736627e+18
14544.0	1.8416170788978683e+18
14545.0	1.8412035574333437e+18
14546.0	1.8388251119190006e+18
14547.0	1.8385125356077043e+18
14548.0	1.8400551284768765e+18
14549.0	1.8396537839157245e+18
14550.0	1.8393852796731387e+18
14551.0	1.8390497437417464e+18
14552.0	1.8386949458886656e+18
14553.0	1.8383370761273341e+18
14554.0	1.8379883465932797e+18
14555.0	1.8376327669219325e+18
14556.0	1.837276214172057e+18
14557.0	1.8369142625140733e+18
14558.0	1.83651215123415e+18
14559.0	1.8347062634479603e+18
14560.0	1.8357414881394688e+18
14561.0	1.8354206440161277e+18
14562.0	1.8350421785444347e+18
14563.0	1.8346995240402941e+18
14564.0	1.834343607146905e+18
14565.0	1.8340467863191547e+18
14566.0	1.8336986272104443e+18
14567.0	1.8333422556545016e+18
14568.0	1.8329689978306555e+18
14569.0	1.832603655497318e+18
14570.0	1.8318514976718845e+18
14571.0	1.8318982171852797e+18
14572.0	1.831519666149785e+18
14573.0	1.8311402225663992e+18
14574.0	1.8307788899876861e+18
14575.0	1.8304575962349565e+18
14576.0	1.8300860161327104e+18
14577.0	1.8297876903886845e+18
14578.0	1.8294399825870845e+18
14579.0	1.8290931488784381e+18
14580.0	1.8287372386959355e+18
14581.0	1.8283784428322813e+18
14582.0	1.8280082233622525e+18
14583.0	1.8276770209857528e+18
14584.0	1.8272879791570936e+18
14585.0	1.8269623015178237e+18
14586.0	1.8266191487303675e+18
14587.0	1.8262688555597821e+18
14588.0	1.825916144792371e+18
14589.0	1.8255665009000443e+18
14590.0	1.8252181874409464e+18
14591.0	1.824860089509478e+18
14592.0	1.824493535861145e+18
14593.0	1.824068792116838e+18
14594.0	1.8237953134297085e+18
14595.0	1.8234290953256955e+18
14596.0	1.8225116752117752e+18
14597.0	1.8220375678648315e+18
14598.0	1.822277274016153e+18
14599.0	1.8220145226809344e+18
14600.0	1.8216649945513981e+18
14601.0	1.821313825610137e+18
14602.0	1.8209522229182461e+18
14603.0	1.8206186650206203e+18
14604.0	1.8202610133630976e+18
14605.0	1.819896939387289e+18
14606.0	1.8195243459411965e+18
14607.0	1.8192487315144704e+18
14608.0	1.8188948094320635e+18
14609.0	1.8185320088469504e+18
14610.0	1.8181275839889408e+18
14611.0	1.8177281167982587e+18
14612.0	1.8174126346731517e+18
14613.0	1.8170692302274555e+18
14614.0	1.8167096106024952e+18
14615.0	1.8163641996017656e+18
14616.0	1.816017595740979e+18
14617.0	1.8156334243381243e+18
14618.0	1.8152196126277632e+18
14619.0	1.8141703705722872e+18
14620.0	1.81332167664599e+18
14621.0	1.8141851026456576e+18
14622.0	1.813898874952089e+18
14623.0	1.8135653975851003e+18
14624.0	1.8131820432326653e+18
14625.0	1.8128154644185085e+18
14626.0	1.812454828094259e+18
14627.0	1.8121065683222523e+18
14628.0	1.811766349869875e+18
14629.0	1.8114346542432253e+18
14630.0	1.811084966730137e+18
14631.0	1.810737317648793e+18
14632.0	1.8102627724165115e+18
14633.0	1.809995056703078e+18
14634.0	1.8096746051665915e+18
14635.0	1.8092605585752056e+18
14636.0	1.8087488685867003e+18
14637.0	1.808637340365619e+18
14638.0	1.8082532058726397e+18
14639.0	1.807893123196518e+18
14640.0	1.8075563071635456e+18
14641.0	1.8067648956858363e+18
14642.0	1.8068499729481718e+18
14643.0	1.8065186967519232e+18
14644.0	1.80615483752448e+18
14645.0	1.8057983720161277e+18
14646.0	1.8054274881683453e+18
14647.0	1.8050582400991227e+18
