# Flux units: erg / (cm m2 s)
# Wavelength units: Angstrom
wave	flux
14000.0	2.0131437617348603e+18
14001.0	2.0126569053814781e+18
14002.0	2.012193892807475e+18
14003.0	2.0117194079731707e+18
14004.0	2.0112450707783677e+18
14005.0	2.0107706614415355e+18
14006.0	2.0102949267046397e+18
14007.0	2.009821148191129e+18
14008.0	2.0093274266009597e+18
14009.0	2.0088742488309755e+18
14010.0	2.0083975913471992e+18
14011.0	2.0078106589003773e+18
14012.0	2.007453320976793e+18
14013.0	2.0069800558460925e+18
14014.0	2.0065068225921021e+18
14015.0	2.006033245405184e+18
14016.0	2.0055608191352827e+18
14017.0	2.005088006989414e+18
14018.0	2.004614978417459e+18
14019.0	2.0041427987726333e+18
14020.0	2.003670228218675e+18
14021.0	2.0031978254368765e+18
14022.0	2.0027182621392893e+18
14023.0	2.002238047885721e+18
14024.0	2.0017658682408955e+18
14025.0	2.00129785102336e+18
14026.0	2.0008258710274043e+18
14027.0	2.0003548020342781e+18
14028.0	1.9998834713165821e+18
14029.0	1.9994118906183677e+18
14030.0	1.9988176047177725e+18
14031.0	1.998465617048371e+18
14032.0	1.997999173533696e+18
14033.0	1.9975184928735232e+18
14034.0	1.9970579582943227e+18
14035.0	1.9965877281619963e+18
14036.0	1.9961174493757437e+18
14037.0	1.9956473064849405e+18
14038.0	1.995177294456422e+18
14039.0	1.9947074669772792e+18
14040.0	1.994225486082867e+18
14041.0	1.993754858330521e+18
14042.0	1.9932841013936125e+18
14043.0	1.9928089639256061e+18
14044.0	1.9923455939969021e+18
14045.0	1.99187803144192e+18
14046.0	1.991408413677977e+18
14047.0	1.9909389955629048e+18
14048.0	1.9904716863438843e+18
14049.0	1.9900034711551997e+18
14050.0	1.9895350378627064e+18
14051.0	1.989064881550131e+18
14052.0	1.988598533665587e+18
14053.0	1.9881303839080445e+18
14054.0	1.9876626082824187e+18
14055.0	1.9871943914160125e+18
14056.0	1.9867271878934525e+18
14057.0	1.986259642115686e+18
14058.0	1.985792307730841e+18
14059.0	1.9853227772084221e+18
14060.0	1.984845863033241e+18
14061.0	1.9843775924797437e+18
14062.0	1.983911986148147e+18
14063.0	1.9834419120439293e+18
14064.0	1.9829613907673088e+18
14065.0	1.9825105215422461e+18
14066.0	1.982045700384358e+18
14067.0	1.9815762017386496e+18
14068.0	1.9811135297421307e+18
14069.0	1.9806471315259384e+18
14070.0	1.9801817097437181e+18
14071.0	1.9797155363422203e+18
14072.0	1.9792505138577405e+18
14073.0	1.9787851004641277e+18
14074.0	1.9783198330322944e+18
14075.0	1.9778508528025597e+18
14076.0	1.9773858017968128e+18
14077.0	1.9768954356498432e+18
14078.0	1.9764577986150397e+18
14079.0	1.9759939975118845e+18
14080.0	1.9755308976963581e+18
14081.0	1.975066534556467e+18
14082.0	1.9745904273653755e+18
14083.0	1.9741259132305403e+18
14084.0	1.9736622161461243e+18
14085.0	1.9731335878803453e+18
14086.0	1.9727323506933755e+18
14087.0	1.9722710326181883e+18
14088.0	1.971804996789862e+18
14089.0	1.9713408534315003e+18
14090.0	1.9708804933353464e+18
14091.0	1.970417930390732e+18
14092.0	1.9699549949919227e+18
14093.0	1.9694921736781821e+18
14094.0	1.9690244097966075e+18
14095.0	1.9685606791577597e+18
14096.0	1.9680917559705597e+18
14097.0	1.9676329058238461e+18
14098.0	1.967170525750886e+18
14099.0	1.9667117376798712e+18
14100.0	1.9662476614303736e+18
14101.0	1.9657881670385661e+18
14102.0	1.9653264127557627e+18
14103.0	1.9648623818047488e+18
14104.0	1.9644036289658875e+18
14105.0	1.9639415760486397e+18
14106.0	1.963481288094515e+18
14107.0	1.963008923900313e+18
14108.0	1.9625450993090555e+18
14109.0	1.9620858515423224e+18
14110.0	1.9616210236735488e+18
14111.0	1.961143532362137e+18
14112.0	1.9606926027390973e+18
14113.0	1.9602327006609405e+18
14114.0	1.9597696125894648e+18
14115.0	1.959312381444096e+18
14116.0	1.9588370426494973e+18
14117.0	1.95819499201495e+18
14118.0	1.9579332741562365e+18
14119.0	1.9574708252966902e+18
14120.0	1.9570116245061627e+18
14121.0	1.9565510043631608e+18
14122.0	1.9560920216764416e+18
14123.0	1.955630975392153e+18
14124.0	1.9551716621942781e+18
14125.0	1.954625734941081e+18
14126.0	1.9542616878088187e+18
14127.0	1.9538033225236475e+18
14128.0	1.95334478275543e+18
14129.0	1.9528844293701624e+18
14130.0	1.9524256530431992e+18
14131.0	1.951971019010867e+18
14132.0	1.9515132442836987e+18
14133.0	1.9509452768018424e+18
14134.0	1.9505939971309565e+18
14135.0	1.950125736643788e+18
14136.0	1.9496575097110528e+18
14137.0	1.9492144184033277e+18
14138.0	1.9487547931492347e+18
14139.0	1.948300701020979e+18
14140.0	1.9478358228205565e+18
14141.0	1.9473869467287547e+18
14142.0	1.9469097691512832e+18
14143.0	1.9464640639533053e+18
14144.0	1.9460183503667197e+18
14145.0	1.9455622449725437e+18
14146.0	1.9451058812092408e+18
14147.0	1.9446500727717883e+18
14148.0	1.9441935479472125e+18
14149.0	1.9437374559748093e+18
14150.0	1.9432835148414973e+18
14151.0	1.9428254666457083e+18
14152.0	1.94237307069399e+18
14153.0	1.941917943411507e+18
14154.0	1.9414575648604155e+18
14155.0	1.9409605046042621e+18
14156.0	1.940550390592307e+18
14157.0	1.94009879323607e+18
14158.0	1.9396431894806525e+18
14159.0	1.9391899043364861e+18
14160.0	1.9387353793560573e+18
14161.0	1.9382689140310016e+18
14162.0	1.9378061178830845e+18
14163.0	1.9373738092920824e+18
14164.0	1.936911293323673e+18
14165.0	1.9363827741097981e+18
14166.0	1.9360039395393533e+18
14167.0	1.935545577609625e+18
14168.0	1.9350938762346496e+18
14169.0	1.9346423292100605e+18
14170.0	1.9341881095749627e+18
14171.0	1.9337360575561725e+18
14172.0	1.9332838880968704e+18
14173.0	1.9327928810602496e+18
14174.0	1.932377826158182e+18
14175.0	1.9319265559576573e+18
14176.0	1.9314737204428797e+18
14177.0	1.9310220090015744e+18
14178.0	1.9305693328703483e+18
14179.0	1.9301103988375547e+18
14180.0	1.9296668713222136e+18
14181.0	1.9292153175867387e+18
14182.0	1.9287637185527805e+18
14183.0	1.9283125725036541e+18
14184.0	1.927860339290931e+18
14185.0	1.9274103223484416e+18
14186.0	1.9269177785188347e+18
14187.0	1.9265036463636477e+18
14188.0	1.9260577029292032e+18
14189.0	1.9256061106061307e+18
14190.0	1.9251565684588536e+18
14191.0	1.9247061488631808e+18
14192.0	1.924254717601382e+18
14193.0	1.9237999795503104e+18
14194.0	1.9233559201972221e+18
14195.0	1.9229066850729984e+18
14196.0	1.9224569449545725e+18
14197.0	1.922007396096409e+18
14198.0	1.9215569681121275e+18
14199.0	1.9211072665812987e+18
14200.0	1.9206369844396032e+18
14201.0	1.9202100512686077e+18
14202.0	1.919755823244902e+18
14203.0	1.9192923123875837e+18
14204.0	1.9188520966946816e+18
14205.0	1.918403599767961e+18
14206.0	1.917931307715788e+18
14207.0	1.917507364244685e+18
14208.0	1.9170592297058304e+18
14209.0	1.916583691262361e+18
14210.0	1.9161455039348733e+18
14211.0	1.9157152320978941e+18
14212.0	1.9152674599469053e+18
14213.0	1.914819399227801e+18
14214.0	1.9143724776816635e+18
14215.0	1.9139226050232315e+18
14216.0	1.9134781161734141e+18
14217.0	1.9130310402768896e+18
14218.0	1.9125815383949307e+18
14219.0	1.9121372340944893e+18
14220.0	1.9116905642065915e+18
14221.0	1.9112430873346045e+18
14222.0	1.9107904917340155e+18
14223.0	1.9103511065133056e+18
14224.0	1.9099049701408765e+18
14225.0	1.9093958185451517e+18
14226.0	1.909012881945395e+18
14227.0	1.908567111316275e+18
14228.0	1.9079752564342784e+18
14229.0	1.9076551572193275e+18
14230.0	1.9072303430107136e+18
14231.0	1.906779779130982e+18
14232.0	1.9063397513428987e+18
14233.0	1.9058931049431037e+18
14234.0	1.9054496915128317e+18
14235.0	1.90500433863639e+18
14236.0	1.904559814554419e+18
14237.0	1.9041152149749755e+18
14238.0	1.9036709056413693e+18
14239.0	1.903225302784409e+18
14240.0	1.902498856042496e+18
14241.0	1.9023382561423355e+18
14242.0	1.901892665029427e+18
14243.0	1.9014077833543677e+18
14244.0	1.900995605744844e+18
14245.0	1.9005484174409728e+18
14246.0	1.9001016536006653e+18
14247.0	1.8996648940142587e+18
14248.0	1.899218922058547e+18
14249.0	1.8987781124521981e+18
14250.0	1.8983350094004224e+18
14251.0	1.8978926076362747e+18
14252.0	1.897449798185779e+18
14253.0	1.89700698537984e+18
14254.0	1.8965640685551613e+18
14255.0	1.8961160783003645e+18
14256.0	1.8956214775840765e+18
14257.0	1.8952368817176573e+18
14258.0	1.8947955855720443e+18
14259.0	1.8943504055009277e+18
14260.0	1.8939102065852408e+18
14261.0	1.8934656455933947e+18
14262.0	1.8930344258437117e+18
14263.0	1.8925064099463165e+18
14264.0	1.8921378598092797e+18
14265.0	1.891709524063027e+18
14266.0	1.8912693251473405e+18
14267.0	1.8908282101956605e+18
14268.0	1.8903874911862781e+18
14269.0	1.889946280604467e+18
14270.0	1.8895061689303037e+18
14271.0	1.8890643191365627e+18
14272.0	1.8886252208062461e+18
14273.0	1.8881848776065016e+18
14274.0	1.8876180627193853e+18
14275.0	1.8872936047837181e+18
14276.0	1.8868557194461181e+18
14277.0	1.8864194950529021e+18
14278.0	1.8859855523610621e+18
14279.0	1.8855459154821115e+18
14280.0	1.885105037089177e+18
14281.0	1.8846673413341184e+18
14282.0	1.8842282329374715e+18
14283.0	1.8837891866165243e+18
14284.0	1.8833502527029243e+18
14285.0	1.882911421130342e+18
14286.0	1.8824724167524347e+18
14287.0	1.8820342042591232e+18
14288.0	1.881595693131366e+18
14289.0	1.880976239729049e+18
14290.0	1.880717370641612e+18
14291.0	1.8802768630251517e+18
14292.0	1.879832239957606e+18
14293.0	1.8793939351896061e+18
14294.0	1.8789286576914432e+18
14295.0	1.8785162015801344e+18
14296.0	1.877934465037107e+18
14297.0	1.877644051428147e+18
14298.0	1.8771637432221696e+18
14299.0	1.8767662121222141e+18
14300.0	1.8763308349784061e+18
14301.0	1.8758947095707643e+18
14302.0	1.8754582268084221e+18
14303.0	1.8750147378806781e+18
14304.0	1.8745830366248955e+18
14305.0	1.8741480319352827e+18
14306.0	1.8736928962641915e+18
14307.0	1.873271395555737e+18
14308.0	1.8728400969531387e+18
14309.0	1.8724029129031675e+18
14310.0	1.871880305980211e+18
14311.0	1.8714993474142205e+18
14312.0	1.8710874399178747e+18
14313.0	1.8706482610569216e+18
14314.0	1.8702251765792765e+18
14315.0	1.8697909386084347e+18
14316.0	1.8693452971638781e+18
14317.0	1.868910641440358e+18
14318.0	1.8684859966816253e+18
14319.0	1.8680513292140541e+18
14320.0	1.867616542628249e+18
14321.0	1.8671821066862587e+18
14322.0	1.8667386966114296e+18
14323.0	1.8663101494722555e+18
14324.0	1.8658788475142144e+18
14325.0	1.865442904978227e+18
14326.0	1.865011113125478e+18
14327.0	1.8645757393371133e+18
14328.0	1.8641422261420027e+18
14329.0	1.8637098940628987e+18
14330.0	1.8632763842232317e+18
14331.0	1.862842855928627e+18
14332.0	1.862409705121382e+18
14333.0	1.8619765509586944e+18
14334.0	1.8615435125587963e+18
14335.0	1.8611059225001981e+18
14336.0	1.8606677855043581e+18
14337.0	1.8602449526849533e+18
14338.0	1.8598120820572155e+18
14339.0	1.8593775068643325e+18
14340.0	1.8589476762681336e+18
14341.0	1.8585148660383741e+18
14342.0	1.8580833275215872e+18
14343.0	1.8576475678572541e+18
14344.0	1.857217445337497e+18
14345.0	1.856787790902067e+18
14346.0	1.8563555477422077e+18
14347.0	1.855910458268057e+18
14348.0	1.8554823691468797e+18
14349.0	1.855051171207577e+18
14350.0	1.8546148377624568e+18
14351.0	1.854183445207449e+18
14352.0	1.853756550624051e+18
14353.0	1.8533270253731837e+18
14354.0	1.8528954566574075e+18
14355.0	1.8524638174773243e+18
14356.0	1.8520338845401083e+18
14357.0	1.851604679734067e+18
14358.0	1.8511743793758205e+18
14359.0	1.8507407890055163e+18
14360.0	1.8503135941099515e+18
14361.0	1.8498840353046523e+18
14362.0	1.8494543305375747e+18
14363.0	1.8490245318180861e+18
14364.0	1.8485765751177213e+18
14365.0	1.8481629731225597e+18
14366.0	1.8477332096352253e+18
14367.0	1.8473068334678013e+18
14368.0	1.8468775749746683e+18
14369.0	1.846448630215475e+18
14370.0	1.846019712299827e+18
14371.0	1.8455909235687421e+18
14372.0	1.8451620408852475e+18
14373.0	1.844733549110886e+18
14374.0	1.8443051311562747e+18
14375.0	1.8438767568224253e+18
14376.0	1.8434484865073147e+18
14377.0	1.8430202195476477e+18
14378.0	1.8425917680386043e+18
14379.0	1.8421643449729021e+18
14380.0	1.8417364387233787e+18
14381.0	1.8413062574833667e+18
14382.0	1.8408809030483965e+18
14383.0	1.8404479653117947e+18
14384.0	1.8400217804046333e+18
14385.0	1.839599187499417e+18
14386.0	1.8391688384872443e+18
14387.0	1.8387449587695613e+18
14388.0	1.8383175793246203e+18
14389.0	1.83789119644631e+18
14390.0	1.8374641357684733e+18
14391.0	1.8370377780559872e+18
14392.0	1.836609170518835e+18
14393.0	1.836185185104691e+18
14394.0	1.8357510243090427e+18
14395.0	1.8353263560622077e+18
14396.0	1.834906526364467e+18
14397.0	1.8344808363851776e+18
14398.0	1.8340534133194747e+18
14399.0	1.83362916450304e+18
14400.0	1.8331977853698045e+18
14401.0	1.832776950716825e+18
14402.0	1.8323526750568445e+18
14403.0	1.8305934765850596e+18
14404.0	1.828015588560076e+18
14405.0	1.8308066780905457e+18
14406.0	1.8306523662909437e+18
14407.0	1.8282484898725896e+18
14408.0	1.829795329055129e+18
14409.0	1.8293744893689853e+18
14410.0	1.8289521061789693e+18
14411.0	1.828514415457075e+18
14412.0	1.8280874000777213e+18
14413.0	1.827663911269171e+18
14414.0	1.8272392967094272e+18
14415.0	1.8268155646312445e+18
14416.0	1.8263909920145405e+18
14417.0	1.8259619314925565e+18
14418.0	1.8255338373382144e+18
14419.0	1.825120648062566e+18
14420.0	1.8246964931985403e+18
14421.0	1.8242740361887744e+18
14422.0	1.823850864469606e+18
14423.0	1.8234262230663165e+18
14424.0	1.81498359075307e+18
14425.0	1.822580495351808e+18
14426.0	1.8221591372496893e+18
14427.0	1.8217365611216896e+18
14428.0	1.8213079451959293e+18
14429.0	1.8208908099190781e+18
14430.0	1.8204691833815035e+18
14431.0	1.8200180490764285e+18
14432.0	1.8196182698295293e+18
14433.0	1.817723935916031e+18
14434.0	1.818778191003648e+18
14435.0	1.8183529791750147e+18
14436.0	1.8179372078858237e+18
14437.0	1.817515577992806e+18
14438.0	1.8170500740022272e+18
14439.0	1.8166624817250296e+18
14440.0	1.81625111445504e+18
14441.0	1.8158289191698427e+18
14442.0	1.815406777571737e+18
14443.0	1.8149781230583805e+18
14444.0	1.8145661299982333e+18
14445.0	1.8141461795045376e+18
14446.0	1.8121364049231877e+18
14447.0	1.8133018073890816e+18
14448.0	1.8128845664157693e+18
14449.0	1.8124642048802813e+18
14450.0	1.8120426387406843e+18
14451.0	1.8116235237523456e+18
14452.0	1.8112027411087355e+18
14453.0	1.8107547323990013e+18
14454.0	1.810363744413286e+18
14455.0	1.8099430875987965e+18
14456.0	1.809518192859545e+18
14457.0	1.8090952878981117e+18
14458.0	1.8086822647169021e+18
14459.0	1.8082618478166016e+18
14460.0	1.8078459725086715e+18
14461.0	1.8074206650499064e+18
14462.0	1.8069782465085437e+18
14463.0	1.8065874380390397e+18
14464.0	1.8061704319467515e+18
14465.0	1.8057478574964733e+18
14466.0	1.8053332119584768e+18
14467.0	1.8048926171004923e+18
14468.0	1.8044942790164475e+18
14469.0	1.8040726810001405e+18
14470.0	1.8036536331206653e+18
14471.0	1.8032376957370365e+18
14472.0	1.802821013445017e+18
14473.0	1.8024057572163581e+18
14474.0	1.8019879558840323e+18
14475.0	1.8015688425734141e+18
14476.0	1.8010564445863939e+18
14477.0	1.8007347783794688e+18
14478.0	1.8003170106015741e+18
14479.0	1.7998991220277243e+18
14480.0	1.7994791648231421e+18
14481.0	1.7990656735576061e+18
14482.0	1.798647883969331e+18
14483.0	1.798229300818739e+18
14484.0	1.7978132862599165e+18
14485.0	1.7973891330736128e+18
14486.0	1.796919543830937e+18
14487.0	1.7965642846044155e+18
14488.0	1.796139185183129e+18
14489.0	1.7957189578653693e+18
14490.0	1.7953035774853117e+18
14491.0	1.794888666867302e+18
14492.0	1.7944726338535424e+18
14493.0	1.7940562954944507e+18
14494.0	1.7936362023944184e+18
14495.0	1.7932249139773437e+18
14496.0	1.7927809938751485e+18
14497.0	1.7923934066311168e+18
14498.0	1.7919775464226816e+18
14499.0	1.7915624915206141e+18
14500.0	1.791146995377766e+18
14501.0	1.790686796342886e+18
14502.0	1.790229711159296e+18
14503.0	1.7898966716776443e+18
14504.0	1.7894851735453693e+18
14505.0	1.7890293483307003e+18
14506.0	1.788560564394393e+18
14507.0	1.7881911552638968e+18
14508.0	1.7878270645108733e+18
14509.0	1.7874124625936381e+18
14510.0	1.7869979428847616e+18
14511.0	1.7865835171282936e+18
14512.0	1.786165717473689e+18
14513.0	1.7857548870746112e+18
14514.0	1.7853276267479037e+18
14515.0	1.7849257520267261e+18
14516.0	1.7840674380447747e+18
14517.0	1.784098647021977e+18
14518.0	1.783684813501235e+18
14519.0	1.7832711326531581e+18
14520.0	1.7828574685822968e+18
14521.0	1.782443104901529e+18
14522.0	1.7820303384117243e+18
14523.0	1.7815174589186043e+18
14524.0	1.7810985100247032e+18
14525.0	1.7807892069482493e+18
14526.0	1.7803771887222781e+18
14527.0	1.7799573204369403e+18
14528.0	1.779522300647833e+18
14529.0	1.7791359163301885e+18
14530.0	1.7787219653689336e+18
14531.0	1.7783122472992763e+18
14532.0	1.7777482979606525e+18
14533.0	1.777486999532339e+18
14534.0	1.7770748387000317e+18
14535.0	1.7766597821202432e+18
14536.0	1.7762479283109885e+18
14537.0	1.7758322912395267e+18
14538.0	1.7754225278713856e+18
14539.0	1.7750106421854205e+18
14540.0	1.7745985803386877e+18
14541.0	1.7741820574302205e+18
14542.0	1.7737747603128315e+18
14543.0	1.773297990421708e+18
14544.0	1.7729511902674944e+18
14545.0	1.7725385361850365e+18
14546.0	1.7631276773146565e+18
14547.0	1.7637317007114166e+18
14548.0	1.7713022147493885e+18
14549.0	1.7708687502082043e+18
14550.0	1.7704809851256827e+18
14551.0	1.770071149615513e+18
14552.0	1.769658998849536e+18
14553.0	1.7692466467569667e+18
14554.0	1.7688378212351995e+18
14555.0	1.768426586505216e+18
14556.0	1.768013279789056e+18
14557.0	1.7676051270336507e+18
14558.0	1.7671942731464704e+18
14559.0	1.7664493127466998e+18
14560.0	1.7663647891324925e+18
14561.0	1.765961067239833e+18
14562.0	1.7655463344603133e+18
14563.0	1.765141443195699e+18
14564.0	1.764727978773708e+18
14565.0	1.7643207890305021e+18
14566.0	1.7639105072463864e+18
14567.0	1.7635001516425213e+18
14568.0	1.763081838605107e+18
14569.0	1.7626799236186107e+18
14570.0	1.762174899218022e+18
14571.0	1.7618591587237885e+18
14572.0	1.7614391964860416e+18
14573.0	1.7610302770118653e+18
14574.0	1.7606214330351608e+18
14575.0	1.7602194828165115e+18
14576.0	1.7598103167172603e+18
14577.0	1.759399511484006e+18
14578.0	1.7589909678194688e+18
14579.0	1.7585739499831293e+18
14580.0	1.758162695120486e+18
14581.0	1.7577494370582525e+18
14582.0	1.7573284295999485e+18
14583.0	1.7569191192166397e+18
14584.0	1.756507048981299e+18
14585.0	1.7561004095307776e+18
14586.0	1.7556903911489533e+18
14587.0	1.7552799097159677e+18
14588.0	1.75487245657047e+18
14589.0	1.7544713586343933e+18
14590.0	1.7540790737698816e+18
14591.0	1.753686179892428e+18
14592.0	1.7532938128195581e+18
14593.0	1.7528774006407165e+18
14594.0	1.752509191081165e+18
14595.0	1.7521156026269693e+18
14596.0	1.7517031968473085e+18
14597.0	1.7513153160019965e+18
14598.0	1.750938521541017e+18
14599.0	1.7505476040196096e+18
14600.0	1.7501547554406397e+18
14601.0	1.7497627759214587e+18
14602.0	1.7493670399836157e+18
14603.0	1.7489776709992443e+18
14604.0	1.7485757090365435e+18
14605.0	1.7481887844925437e+18
14606.0	1.7477864265875453e+18
14607.0	1.7474076322824187e+18
14608.0	1.7470154447257595e+18
14609.0	1.7466143115575293e+18
14610.0	1.7462232799510528e+18
14611.0	1.7458376422195197e+18
14612.0	1.7454467163095037e+18
14613.0	1.7450545186865147e+18
14614.0	1.744661398316646e+18
14615.0	1.7442684457189376e+18
14616.0	1.743877348681318e+18
14617.0	1.7434848826228733e+18
14618.0	1.7430882910470141e+18
14619.0	1.7426910585815037e+18
14620.0	1.7422650867449853e+18
14621.0	1.7419151274409981e+18
14622.0	1.741522612728627e+18
14623.0	1.741130074528153e+18
14624.0	1.740725159775436e+18
14625.0	1.7403448639094781e+18
14626.0	1.739949617866342e+18
14627.0	1.7395537309335547e+18
14628.0	1.7391668701429757e+18
14629.0	1.738774115516416e+18
14630.0	1.7383809666252797e+18
14631.0	1.737987978795417e+18
14632.0	1.7369459928858624e+18
14633.0	1.737134219827609e+18
14634.0	1.7368081378574333e+18
14635.0	1.736367363483238e+18
14636.0	1.7358671524659197e+18
14637.0	1.7356309175205885e+18
14638.0	1.735236926413209e+18
14639.0	1.7348420914118653e+18
14640.0	1.7344502477881341e+18
14641.0	1.731561056842545e+18
14642.0	1.7336631732207608e+18
14643.0	1.7332705813331963e+18
14644.0	1.732874417576345e+18
14645.0	1.7324782773075963e+18
14646.0	1.7320843751194621e+18
14647.0	1.731690451120947e+18
