# Flux units: erg / (cm m2 s)
# Wavelength units: Angstrom
wave	flux
14000.0	1.7275922939903997e+18
14001.0	1.727272221618995e+18
14002.0	1.7269899768365053e+18
14003.0	1.7266879181619197e+18
14004.0	1.7263858963972093e+18
14005.0	1.7260837706137597e+18
14006.0	1.725780849590272e+18
14007.0	1.725479398250905e+18
14008.0	1.7251660048891904e+18
14009.0	1.7248760258101243e+18
14010.0	1.7245745140727803e+18
14011.0	1.724186505720627e+18
14012.0	1.7239712020299776e+18
14013.0	1.723670139922022e+18
14014.0	1.723368765757849e+18
14015.0	1.7230671567126525e+18
14016.0	1.7227661852016637e+18
14017.0	1.722465000620032e+18
14018.0	1.7221638596591613e+18
14019.0	1.721862797551206e+18
14020.0	1.7215617069219835e+18
14021.0	1.7212606834016253e+18
14022.0	1.720959819264819e+18
14023.0	1.7206589668720637e+18
14024.0	1.720357280651673e+18
14025.0	1.7200577503035387e+18
14026.0	1.7197569583087613e+18
14027.0	1.7194566494978043e+18
14028.0	1.719156184658739e+18
14029.0	1.7188556829097981e+18
14030.0	1.718514117246976e+18
14031.0	1.7182539328258048e+18
14032.0	1.7179549175382013e+18
14033.0	1.717649682936627e+18
14034.0	1.7173547126358013e+18
14035.0	1.7170548198998008e+18
14036.0	1.7167549053534205e+18
14037.0	1.7164550562381821e+18
14038.0	1.716155260810035e+18
14039.0	1.7158555408793595e+18
14040.0	1.715555876313497e+18
14041.0	1.7152562721456123e+18
14042.0	1.714955371098931e+18
14043.0	1.7146519098490877e+18
14044.0	1.7143561459859453e+18
14045.0	1.714058566828032e+18
14046.0	1.7137593032376315e+18
14047.0	1.7134599524057088e+18
14048.0	1.7131609354403835e+18
14049.0	1.7128619201527803e+18
14050.0	1.7125629266755581e+18
14051.0	1.7122628879777787e+18
14052.0	1.711965100782387e+18
14053.0	1.711666338830745e+18
14054.0	1.711367612111257e+18
14055.0	1.711068937401139e+18
14056.0	1.7107703432216576e+18
14057.0	1.7104718178287613e+18
14058.0	1.710173347800678e+18
14059.0	1.7098749499146235e+18
14060.0	1.709576610748825e+18
14061.0	1.7092773790351357e+18
14062.0	1.7089801001893885e+18
14063.0	1.7086799927050237e+18
14064.0	1.708375397315379e+18
14065.0	1.7080847303704576e+18
14066.0	1.7077879699406848e+18
14067.0	1.70749012738048e+18
14068.0	1.7071923301187581e+18
14069.0	1.7068944120610816e+18
14070.0	1.7065968580689915e+18
14071.0	1.7062988695470077e+18
14072.0	1.7060017249189885e+18
14073.0	1.7057042548129787e+18
14074.0	1.70540684846039e+18
14075.0	1.7051094639181821e+18
14076.0	1.7048121901055997e+18
14077.0	1.7045060562452475e+18
14078.0	1.7042171391639547e+18
14079.0	1.7039199609815037e+18
14080.0	1.7036237424558075e+18
14081.0	1.7033267991543805e+18
14082.0	1.7030297619005437e+18
14083.0	1.7027328773193725e+18
14084.0	1.7024361588326397e+18
14085.0	1.7021071391719421e+18
14086.0	1.7018419417186304e+18
14087.0	1.701546416091955e+18
14088.0	1.7012498569887741e+18
14089.0	1.700953532766617e+18
14090.0	1.7006570541940733e+18
14091.0	1.7003608893554688e+18
14092.0	1.7000646674743293e+18
14093.0	1.6997685009580027e+18
14094.0	1.6994723931619325e+18
14095.0	1.6991763273089024e+18
14096.0	1.6988787431178235e+18
14097.0	1.6985842107023357e+18
14098.0	1.698287852925747e+18
14099.0	1.6979928171937787e+18
14100.0	1.6976954628505597e+18
14101.0	1.6974015025381376e+18
14102.0	1.697105887992217e+18
14103.0	1.6968082501140475e+18
14104.0	1.6965149558571003e+18
14105.0	1.696219552704102e+18
14106.0	1.6959242317594621e+18
14107.0	1.6956289343029243e+18
14108.0	1.6953337945522176e+18
14109.0	1.695038039077683e+18
14110.0	1.6947433539895293e+18
14111.0	1.6944478870831096e+18
14112.0	1.694153389899776e+18
14113.0	1.6938587601764347e+18
14114.0	1.6935639475814397e+18
14115.0	1.693268937015296e+18
14116.0	1.692973191607091e+18
14117.0	1.6926060373344253e+18
14118.0	1.6923849958359035e+18
14119.0	1.6920897638105085e+18
14120.0	1.691795531707187e+18
14121.0	1.6915017777545213e+18
14122.0	1.6912064920420352e+18
14123.0	1.6909128370749437e+18
14124.0	1.6906182207733757e+18
14125.0	1.6902647466426363e+18
14126.0	1.6900309628485632e+18
14127.0	1.6897373045260285e+18
14128.0	1.6894432586498043e+18
14129.0	1.6891481088327675e+18
14130.0	1.6888539136393213e+18
14131.0	1.6885620823556093e+18
14132.0	1.688268001247232e+18
14133.0	1.687903974247628e+18
14134.0	1.6876808758624253e+18
14135.0	1.687386205873766e+18
14136.0	1.6870938830176256e+18
14137.0	1.6868010031579133e+18
14138.0	1.686507244172083e+18
14139.0	1.6862146864349181e+18
14140.0	1.6859213049364477e+18
14141.0	1.685627772443033e+18
14142.0	1.6853306815021053e+18
14143.0	1.6850423214243837e+18
14144.0	1.6847497536208893e+18
14145.0	1.684456950936371e+18
14146.0	1.6841639821574141e+18
14147.0	1.6838713757663232e+18
14148.0	1.6835788129959933e+18
14149.0	1.6832863525666813e+18
14150.0	1.682993850194329e+18
14151.0	1.6827010911305725e+18
14152.0	1.6824090585202685e+18
14153.0	1.682116739019571e+18
14154.0	1.681821325800243e+18
14155.0	1.681529979378073e+18
14156.0	1.6812399214460925e+18
14157.0	1.6809481421717504e+18
14158.0	1.6806556263776253e+18
14159.0	1.6803642128465915e+18
14160.0	1.680071410162073e+18
14161.0	1.679772769006387e+18
14162.0	1.6794750338203643e+18
14163.0	1.6791967467831293e+18
14164.0	1.6789034558816253e+18
14165.0	1.678609956942643e+18
14166.0	1.6783223468064765e+18
14167.0	1.678031101047603e+18
14168.0	1.6777395818201085e+18
14169.0	1.6774484669235197e+18
14170.0	1.6771568419995643e+18
14171.0	1.6768656516055035e+18
14172.0	1.6765749494284285e+18
14173.0	1.676280381780787e+18
14174.0	1.6759923018825725e+18
14175.0	1.6757020141027325e+18
14176.0	1.6754111827410941e+18
14177.0	1.6751203983556603e+18
14178.0	1.6748296072593403e+18
14179.0	1.6745383061356541e+18
14180.0	1.6742484042317821e+18
14181.0	1.6739578715045888e+18
14182.0	1.673667285090304e+18
14183.0	1.6733769654337533e+18
14184.0	1.6730859495227387e+18
14185.0	1.672796215391027e+18
14186.0	1.672490932135526e+18
14187.0	1.672212468937523e+18
14188.0	1.6719256674631677e+18
14189.0	1.6716356581851133e+18
14190.0	1.6713456723951613e+18
14191.0	1.6710557503586304e+18
14192.0	1.6707649542291456e+18
14193.0	1.6704741547442176e+18
14194.0	1.6701863197933563e+18
14195.0	1.669896891006976e+18
14196.0	1.6696072558608381e+18
14197.0	1.669317718022553e+18
14198.0	1.6690275292282875e+18
14199.0	1.668736649212723e+18
14200.0	1.668413426080153e+18
14201.0	1.66813191110656e+18
14202.0	1.6678431383093243e+18
14203.0	1.6675532280168448e+18
14204.0	1.6672644602527744e+18
14205.0	1.6669753602998272e+18
14206.0	1.666671046767411e+18
14207.0	1.666397673776742e+18
14208.0	1.6661089378893821e+18
14209.0	1.6658030221328381e+18
14210.0	1.6655191583490043e+18
14211.0	1.6652426429857787e+18
14212.0	1.66495405473792e+18
14213.0	1.6646656325844987e+18
14214.0	1.6643770225262592e+18
14215.0	1.6640870132482048e+18
14216.0	1.6638003896123392e+18
14217.0	1.663512089932595e+18
14218.0	1.6632238288404475e+18
14219.0	1.6629356298239997e+18
14220.0	1.6626475247599613e+18
14221.0	1.662359392852377e+18
14222.0	1.662071422006067e+18
14223.0	1.6617834712924157e+18
14224.0	1.6614955709104125e+18
14225.0	1.661181590346137e+18
14226.0	1.6609196879380477e+18
14227.0	1.6606322690621437e+18
14228.0	1.660271342492057e+18
14229.0	1.66004477961175e+18
14230.0	1.6597696148144128e+18
14231.0	1.6594822278152187e+18
14232.0	1.6591945371484157e+18
14233.0	1.6588759898259453e+18
14234.0	1.6585886061821947e+18
14235.0	1.6583009390034941e+18
14236.0	1.6580139999559677e+18
14237.0	1.6577265928241152e+18
14238.0	1.657439501103923e+18
14239.0	1.6571513272532992e+18
14240.0	1.6566360939167741e+18
14241.0	1.6565773971488765e+18
14242.0	1.6562912298532861e+18
14243.0	1.6559844702027776e+18
14244.0	1.6557179926478848e+18
14245.0	1.6554305603502075e+18
14246.0	1.6551432454930432e+18
14247.0	1.6548581502615547e+18
14248.0	1.6545691945926653e+18
14249.0	1.6542848560136192e+18
14250.0	1.6539984236380157e+18
14251.0	1.6536825539592192e+18
14252.0	1.6533945512361984e+18
14253.0	1.6531080668512256e+18
14254.0	1.6528215120019456e+18
14255.0	1.6525307980808187e+18
14256.0	1.6522224747937787e+18
14257.0	1.6519612082421757e+18
14258.0	1.6516771766861821e+18
14259.0	1.6513912325275648e+18
14260.0	1.6511044511858685e+18
14261.0	1.650820250179993e+18
14262.0	1.650558148123033e+18
14263.0	1.6502327053647872e+18
14264.0	1.6499770507919357e+18
14265.0	1.649701097465446e+18
14266.0	1.6494156281020413e+18
14267.0	1.6491301285396475e+18
14268.0	1.6488446826643453e+18
14269.0	1.6485588945338368e+18
14270.0	1.6482723514286075e+18
14271.0	1.647957587368345e+18
14272.0	1.6476721817583616e+18
14273.0	1.6473862879313923e+18
14274.0	1.6470406235947003e+18
14275.0	1.6468098395668477e+18
14276.0	1.6465308512419837e+18
14277.0	1.6462456217927677e+18
14278.0	1.6459611120861181e+18
14279.0	1.6456759749115904e+18
14280.0	1.6453902840889341e+18
14281.0	1.6451063565516797e+18
14282.0	1.6448216018976763e+18
14283.0	1.644536842210508e+18
14284.0	1.6442521362104315e+18
14285.0	1.643967470475673e+18
14286.0	1.6436827997077504e+18
14287.0	1.6433982883233787e+18
14288.0	1.6431133507977213e+18
14289.0	1.6426822250004475e+18
14290.0	1.64254455955456e+18
14291.0	1.6422606118846461e+18
14292.0	1.6419765467742205e+18
14293.0	1.6416868260642813e+18
14294.0	1.6413594589593595e+18
14295.0	1.6410930032148477e+18
14296.0	1.6406910144086016e+18
14297.0	1.6405240626544635e+18
14298.0	1.640217928794112e+18
14299.0	1.6399568098820093e+18
14300.0	1.6396734695473147e+18
14301.0	1.6393896242184192e+18
14302.0	1.639105409790771e+18
14303.0	1.6388174473330685e+18
14304.0	1.638536444064563e+18
14305.0	1.6382544509403139e+18
14306.0	1.637970006664806e+18
14307.0	1.6376867686711293e+18
14308.0	1.6374038645440507e+18
14309.0	1.63712005612503e+18
14310.0	1.6368320601128957e+18
14311.0	1.6365473289469947e+18
14312.0	1.6362668239618048e+18
14313.0	1.6359676509683712e+18
14314.0	1.6357040456728568e+18
14315.0	1.635421212010086e+18
14316.0	1.6351315097550848e+18
14317.0	1.6348545380515837e+18
14318.0	1.63457256170455e+18
14319.0	1.634256331315609e+18
14320.0	1.6339700566458363e+18
14321.0	1.6336872431157243e+18
14322.0	1.6333991783170043e+18
14323.0	1.633119168259686e+18
14324.0	1.6328390038519805e+18
14325.0	1.6325563698380797e+18
14326.0	1.6322737828003835e+18
14327.0	1.631991215895347e+18
14328.0	1.6317078151626744e+18
14329.0	1.6314262699900925e+18
14330.0	1.6311438658240512e+18
14331.0	1.630861475079782e+18
14332.0	1.630579211842355e+18
14333.0	1.630296967059865e+18
14334.0	1.6300147675758587e+18
14335.0	1.6297310078107643e+18
14336.0	1.629447873835827e+18
14337.0	1.6291684174266363e+18
14338.0	1.628886239753011e+18
14339.0	1.6286043003158523e+18
14340.0	1.6283226830012413e+18
14341.0	1.628040731820032e+18
14342.0	1.6277591128276987e+18
14343.0	1.627477287475609e+18
14344.0	1.6271956550615037e+18
14345.0	1.6269141149220856e+18
14346.0	1.62662482706432e+18
14347.0	1.6262824879718397e+18
14348.0	1.6260026893074432e+18
14349.0	1.6257212800303107e+18
14350.0	1.6254377182363643e+18
14351.0	1.6251562418503677e+18
14352.0	1.6248770807201787e+18
14353.0	1.624595785528115e+18
14354.0	1.6243141094932475e+18
14355.0	1.624032512311296e+18
14356.0	1.623751542597222e+18
14357.0	1.62347108794368e+18
14358.0	1.6231900695756795e+18
14359.0	1.6229089773879293e+18
14360.0	1.6226278399016957e+18
14361.0	1.622347103390925e+18
14362.0	1.6220663333257216e+18
14363.0	1.6217854760189944e+18
14364.0	1.6214981510955005e+18
14365.0	1.6212226356543485e+18
14366.0	1.62094221623296e+18
14367.0	1.6206629024301053e+18
14368.0	1.620382300137062e+18
14369.0	1.6201018891042813e+18
14370.0	1.6198214529056763e+18
14371.0	1.6195410821382141e+18
14372.0	1.619260723114803e+18
14373.0	1.6189804228116475e+18
14374.0	1.618700229882675e+18
14375.0	1.618420047020032e+18
14376.0	1.618139912811315e+18
14377.0	1.6178597333041147e+18
14378.0	1.6175791209447424e+18
14379.0	1.617270433592115e+18
14380.0	1.6169903446818813e+18
14381.0	1.616709990691635e+18
14382.0	1.616430212159897e+18
14383.0	1.6161501735813115e+18
14384.0	1.6158706081202176e+18
14385.0	1.6155908312662013e+18
14386.0	1.6153110477012987e+18
14387.0	1.615031262458675e+18
14388.0	1.614751351386931e+18
14389.0	1.6144719000109053e+18
14390.0	1.614192047659417e+18
14391.0	1.6139128076763133e+18
14392.0	1.613633171750912e+18
14393.0	1.613353856270336e+18
14394.0	1.6130693834735613e+18
14395.0	1.6127936650280957e+18
14396.0	1.6125157001134077e+18
14397.0	1.612236411476377e+18
14398.0	1.6119571194839037e+18
14399.0	1.6116779214438397e+18
14400.0	1.6113960071725053e+18
14401.0	1.611118671403417e+18
14402.0	1.610839976679833e+18
14403.0	1.6104938811686907e+18
14404.0	1.6098019971694587e+18
14405.0	1.609761079217356e+18
14406.0	1.6097236056276987e+18
14407.0	1.6093498226769915e+18
14408.0	1.6091657648734203e+18
14409.0	1.608885551811788e+18
14410.0	1.608609271329587e+18
14411.0	1.6083310966996995e+18
14412.0	1.608052150317875e+18
14413.0	1.6077741988249597e+18
14414.0	1.607495354784153e+18
14415.0	1.607209836766822e+18
14416.0	1.6069099037655035e+18
14417.0	1.6066312274968576e+18
14418.0	1.6063518885281792e+18
14419.0	1.6060742860013563e+18
14420.0	1.6057954100838395e+18
14421.0	1.6055177052159997e+18
14422.0	1.6052392369848315e+18
14423.0	1.6049585105403904e+18
14424.0	1.604291820886425e+18
14425.0	1.6044022736879613e+18
14426.0	1.6041267448250365e+18
14427.0	1.6038489913032704e+18
14428.0	1.603568013200588e+18
14429.0	1.6032926235885565e+18
14430.0	1.6030151636680696e+18
14431.0	1.6027256191188992e+18
14432.0	1.602458911716147e+18
14433.0	1.6021083652095997e+18
14434.0	1.601901812514816e+18
14435.0	1.601623748614553e+18
14436.0	1.601348746556211e+18
14437.0	1.601071192683315e+18
14438.0	1.6007909645221888e+18
14439.0	1.6005154625028096e+18
14440.0	1.6002385109319677e+18
14441.0	1.5999597289668603e+18
14442.0	1.5996812708020221e+18
14443.0	1.5993980948840443e+18
14444.0	1.599128177999872e+18
14445.0	1.5988512868270075e+18
14446.0	1.5983964044918781e+18
14447.0	1.5982946020229112e+18
14448.0	1.5980199254425597e+18
14449.0	1.5977429000519675e+18
14450.0	1.597465777353523e+18
14451.0	1.5971887066644477e+18
14452.0	1.5969115671887872e+18
14453.0	1.5966335955632123e+18
14454.0	1.5963576405590013e+18
14455.0	1.5960799927336957e+18
14456.0	1.5957959695663101e+18
14457.0	1.595498286389657e+18
14458.0	1.5952215109795835e+18
14459.0	1.5949443580821496e+18
14460.0	1.5946673226252285e+18
14461.0	1.594387299146137e+18
14462.0	1.5941079266230272e+18
14463.0	1.5938361508233213e+18
14464.0	1.5935605414297597e+18
14465.0	1.5932803250126848e+18
14466.0	1.5930075224473597e+18
14467.0	1.5927289418088443e+18
14468.0	1.5924541578543104e+18
14469.0	1.5921743038251005e+18
14470.0	1.5918967952506877e+18
14471.0	1.5916232930754557e+18
14472.0	1.5913485074432e+18
14473.0	1.5910721430749181e+18
14474.0	1.590795827360563e+18
14475.0	1.5905193623289856e+18
14476.0	1.590238553676185e+18
14477.0	1.589966880217497e+18
14478.0	1.5896907389861885e+18
14479.0	1.5894145038024701e+18
14480.0	1.5891370153607165e+18
14481.0	1.5888622934818813e+18
14482.0	1.5885856606781437e+18
14483.0	1.5883086503870464e+18
14484.0	1.588032524255232e+18
14485.0	1.5877524521222141e+18
14486.0	1.5874389278982144e+18
14487.0	1.5872060987277307e+18
14488.0	1.586930400414924e+18
14489.0	1.586653499175731e+18
14490.0	1.5863783293452285e+18
14491.0	1.586102724984832e+18
14492.0	1.585827192766464e+18
14493.0	1.5855513988235264e+18
14494.0	1.5852727829528576e+18
14495.0	1.5849997891272701e+18
14496.0	1.584705050352025e+18
14497.0	1.584448548529766e+18
14498.0	1.5841732226711555e+18
14499.0	1.583897690452787e+18
14500.0	1.583622119646822e+18
14501.0	1.5833446010060795e+18
14502.0	1.5830380594593787e+18
14503.0	1.582793707696947e+18
14504.0	1.5825194606133248e+18
14505.0	1.5822429217619963e+18
14506.0	1.5819443561037821e+18
14507.0	1.5816304728473597e+18
14508.0	1.5813905787912187e+18
14509.0	1.581115315008307e+18
14510.0	1.58083993042944e+18
14511.0	1.5805645072629757e+18
14512.0	1.5802869970108413e+18
14513.0	1.5800137196503037e+18
14514.0	1.5797338622656507e+18
14515.0	1.5794623263801344e+18
14516.0	1.5788028442181635e+18
14517.0	1.578910290542592e+18
14518.0	1.578637422546124e+18
14519.0	1.5783624959852541e+18
14520.0	1.5780874284957696e+18
14521.0	1.5778123408736253e+18
14522.0	1.577537221374771e+18
14523.0	1.577257166018969e+18
14524.0	1.5769824693059581e+18
14525.0	1.5767113595617272e+18
14526.0	1.576437186297856e+18
14527.0	1.5761591123312635e+18
14528.0	1.5758666300915707e+18
14529.0	1.5756107607703547e+18
14530.0	1.5753352805613563e+18
14531.0	1.5750623941099515e+18
14532.0	1.5747816039120893e+18
14533.0	1.5745127909687293e+18
14534.0	1.5742381949190141e+18
14535.0	1.5739633103011837e+18
14536.0	1.5736885531901947e+18
14537.0	1.5734121217130496e+18
14538.0	1.573139114465689e+18
14539.0	1.572864407686348e+18
14540.0	1.5725897126510592e+18
14541.0	1.572314301228646e+18
14542.0	1.5720402034622464e+18
14543.0	1.5717628123283453e+18
14544.0	1.5714905365676032e+18
14545.0	1.571215121789747e+18
14546.0	1.5703748399595515e+18
14547.0	1.5701390881980403e+18
14548.0	1.5703896508858365e+18
14549.0	1.5701004922126333e+18
14550.0	1.5698427287437312e+18
14551.0	1.5695684346839037e+18
14552.0	1.5692937396486144e+18
14553.0	1.5690179339616253e+18
14554.0	1.568699176923955e+18
14555.0	1.5684189873504248e+18
14556.0	1.568144362779443e+18
14557.0	1.567869857326694e+18
14558.0	1.5675944912027643e+18
14559.0	1.5670370631679995e+18
14560.0	1.5670453628567547e+18
14561.0	1.5667709765222397e+18
14562.0	1.5664819839434747e+18
14563.0	1.5661958250364925e+18
14564.0	1.5659205830639613e+18
14565.0	1.565646948348723e+18
14566.0	1.565372421085593e+18
14567.0	1.5650978183249915e+18
14568.0	1.564823019270963e+18
14569.0	1.564548409799475e+18
14570.0	1.5641961184624637e+18
14571.0	1.5639990264397821e+18
14572.0	1.5637196941819904e+18
14573.0	1.563445604804198e+18
14574.0	1.5631743776194557e+18
14575.0	1.5629014072819712e+18
14576.0	1.562627009203404e+18
14577.0	1.5623528225177595e+18
14578.0	1.5620780083642365e+18
14579.0	1.5618038871097341e+18
14580.0	1.5615293984342013e+18
14581.0	1.5612544081199101e+18
14582.0	1.560980265055027e+18
14583.0	1.560705754569113e+18
14584.0	1.5604295428734976e+18
14585.0	1.5601566262231037e+18
14586.0	1.5598816124207107e+18
14587.0	1.5596074123132925e+18
14588.0	1.5593332155613181e+18
14589.0	1.5590609632886781e+18
14590.0	1.5587890482380797e+18
14591.0	1.5585169939365885e+18
14592.0	1.5582448087728125e+18
14593.0	1.557956086307225e+18
14594.0	1.5577011045007352e+18
14595.0	1.5574284327976957e+18
14596.0	1.5571506457214973e+18
14597.0	1.556877458957926e+18
14598.0	1.5566124393431037e+18
14599.0	1.5563413665087485e+18
14600.0	1.5560692417429501e+18
14601.0	1.5557972075741181e+18
14602.0	1.5555248026288125e+18
14603.0	1.555252947976192e+18
14604.0	1.5549746592612347e+18
14605.0	1.5547074669969405e+18
14606.0	1.5544250460536832e+18
14607.0	1.5541633382612987e+18
14608.0	1.5538922905927675e+18
14609.0	1.553619697742643e+18
14610.0	1.553346212344627e+18
14611.0	1.553074891207475e+18
14612.0	1.5528034660515837e+18
14613.0	1.552531342963507e+18
14614.0	1.5522585152323581e+18
14615.0	1.5519867679539197e+18
14616.0	1.5517145240698877e+18
14617.0	1.551442164423065e+18
14618.0	1.5511698332975101e+18
14619.0	1.550892623357542e+18
14620.0	1.5506086589104125e+18
14621.0	1.550352574840832e+18
14622.0	1.5500800792985595e+18
14623.0	1.5498074277281792e+18
14624.0	1.549526400971571e+18
14625.0	1.5492620423790587e+18
14626.0	1.5489892750458872e+18
14627.0	1.5487036832088064e+18
14628.0	1.5484173212975101e+18
14629.0	1.5481444214243323e+18
14630.0	1.5478713017696253e+18
14631.0	1.547598344853913e+18
14632.0	1.5472923066236925e+18
14633.0	1.5470480337141757e+18
14634.0	1.5467787476533243e+18
14635.0	1.546502993975705e+18
14636.0	1.5462241230913533e+18
14637.0	1.5459593450684416e+18
14638.0	1.545685616400793e+18
14639.0	1.5454108358017021e+18
14640.0	1.5451380365918203e+18
14641.0	1.5447402538336253e+18
14642.0	1.5445907050856448e+18
14643.0	1.5443182279983101e+18
14644.0	1.5440445530177533e+18
14645.0	1.5437677104988157e+18
14646.0	1.5434963155419133e+18
14647.0	1.543222375481344e+18
14648.0	1.5429010548850685e+18
