# Flux units: erg / (cm m2 s)
# Wavelength units: Angstrom
wave	flux
14000.0	1.648867038304665e+18
14001.0	1.6484467942096893e+18
14002.0	1.6483802641596413e+18
14003.0	1.6480975546482685e+18
14004.0	1.647813450950246e+18
14005.0	1.6475282332450816e+18
14006.0	1.6472350128078848e+18
14007.0	1.6469466963509243e+18
14008.0	1.6465914119585787e+18
14009.0	1.6463648759218176e+18
14010.0	1.6460674477588475e+18
14011.0	1.6451271418445824e+18
14012.0	1.6454950561251325e+18
14013.0	1.6452495618342907e+18
14014.0	1.6449639515422715e+18
14015.0	1.6446860654804987e+18
14016.0	1.6444041663086592e+18
14017.0	1.6441213678780413e+18
14018.0	1.6438319088926715e+18
14019.0	1.6435544355504128e+18
14020.0	1.6432702597103608e+18
14021.0	1.6429863506280443e+18
14022.0	1.642703527031603e+18
14023.0	1.6424088234885115e+18
14024.0	1.6421269712928763e+18
14025.0	1.6418536536670205e+18
14026.0	1.6415696439214077e+18
14027.0	1.6412871525138432e+18
14028.0	1.6409970341838848e+18
14029.0	1.640712636884582e+18
14030.0	1.640288267272192e+18
14031.0	1.6401017834831867e+18
14032.0	1.6398689710899195e+18
14033.0	1.639548591695462e+18
14034.0	1.6393078537453565e+18
14035.0	1.639025902564147e+18
14036.0	1.6387436661702656e+18
14037.0	1.6384596144816128e+18
14038.0	1.6381790776197115e+18
14039.0	1.637892386874982e+18
14040.0	1.637612697262489e+18
14041.0	1.6373308920430587e+18
14042.0	1.6370384416800765e+18
14043.0	1.6367277712605181e+18
14044.0	1.636468526363443e+18
14045.0	1.6361958345277437e+18
14046.0	1.6359179165892605e+18
14047.0	1.635633507545907e+18
14048.0	1.6353586061508605e+18
14049.0	1.6350774686646272e+18
14050.0	1.6347956349239293e+18
14051.0	1.634505365599027e+18
14052.0	1.6342272295567357e+18
14053.0	1.6339514020593661e+18
14054.0	1.6336702763171835e+18
14055.0	1.633389038167654e+18
14056.0	1.6331078184730624e+18
14057.0	1.6328266944086013e+18
14058.0	1.6325455703441403e+18
14059.0	1.6322590339497981e+18
14060.0	1.6319832366514176e+18
14061.0	1.631695123198771e+18
14062.0	1.6314197939847163e+18
14063.0	1.6311265685143547e+18
14064.0	1.630817960014643e+18
14065.0	1.6305698249900032e+18
14066.0	1.6302964218003453e+18
14067.0	1.6300185038618621e+18
14068.0	1.6297380089430008e+18
14069.0	1.629457191901593e+18
14070.0	1.6291772539863037e+18
14071.0	1.6288939841159163e+18
14072.0	1.6286168177967096e+18
14073.0	1.6283367708295168e+18
14074.0	1.6280566718529533e+18
14075.0	1.6277578495033344e+18
14076.0	1.6274950495141885e+18
14077.0	1.627181070627635e+18
14078.0	1.6269295382167547e+18
14079.0	1.6266475417370616e+18
14080.0	1.6263764806467581e+18
14081.0	1.6260970779246595e+18
14082.0	1.62581671051264e+18
14083.0	1.625534054688358e+18
14084.0	1.625244278613606e+18
14085.0	1.6247638009577467e+18
14086.0	1.624667139027763e+18
14087.0	1.6244126487937021e+18
14088.0	1.6241285685837821e+18
14089.0	1.6238623846301693e+18
14090.0	1.6235836378972157e+18
14091.0	1.6233050203488256e+18
14092.0	1.623026255160934e+18
14093.0	1.6227474111201277e+18
14094.0	1.6224684748046333e+18
14095.0	1.6221891425468413e+18
14096.0	1.6219061763440637e+18
14097.0	1.6216126069407741e+18
14098.0	1.6213518571274235e+18
14099.0	1.6210738905350141e+18
14100.0	1.620783872868352e+18
14101.0	1.6205183130271741e+18
14102.0	1.620237631881216e+18
14103.0	1.6199441144872957e+18
14104.0	1.619680472281907e+18
14105.0	1.6194059265638397e+18
14106.0	1.6191278643412992e+18
14107.0	1.6188451313418237e+18
14108.0	1.618559376765747e+18
14109.0	1.6182901007712253e+18
14110.0	1.6180143923920893e+18
14111.0	1.617732098955673e+18
14112.0	1.6174508356403197e+18
14113.0	1.617180016141926e+18
14114.0	1.6168889347997693e+18
14115.0	1.6166207979782141e+18
14116.0	1.6163117448822781e+18
14117.0	1.6157800447082493e+18
14118.0	1.6157771221172221e+18
14119.0	1.6155049101099005e+18
14120.0	1.6152352801161219e+18
14121.0	1.6149496228478976e+18
14122.0	1.614679507992576e+18
14123.0	1.6143983319187453e+18
14124.0	1.6140848127279101e+18
14125.0	1.6134289645109243e+18
14126.0	1.6135451333099515e+18
14127.0	1.6132941881016315e+18
14128.0	1.6130203654815741e+18
14129.0	1.6127331546431488e+18
14130.0	1.6124448683851776e+18
14131.0	1.6121864539602941e+18
14132.0	1.611867933481369e+18
14133.0	1.611142600746598e+18
14134.0	1.6113153540620285e+18
14135.0	1.611070782518067e+18
14136.0	1.6108091586117624e+18
14137.0	1.6105352705605624e+18
14138.0	1.610259624257126e+18
14139.0	1.6099845668339712e+18
14140.0	1.6097082343423997e+18
14141.0	1.6094281521430525e+18
14142.0	1.6091483098578941e+18
14143.0	1.6088806142771195e+18
14144.0	1.608606947685171e+18
14145.0	1.6083290347798525e+18
14146.0	1.6080552708800507e+18
14147.0	1.6077806244986877e+18
14148.0	1.6075057348476925e+18
14149.0	1.6072306086379515e+18
14150.0	1.6069549338132475e+18
14151.0	1.6066779084226552e+18
14152.0	1.6064027637579776e+18
14153.0	1.6061296793354235e+18
14154.0	1.6058270418468861e+18
14155.0	1.605573229412352e+18
14156.0	1.6053038997307387e+18
14157.0	1.6050285369622528e+18
14158.0	1.6047507985399803e+18
14159.0	1.6044771957014525e+18
14160.0	1.6041814502932477e+18
14161.0	1.6038743584538621e+18
14162.0	1.6035593209249792e+18
14163.0	1.6033631935922176e+18
14164.0	1.6030873560285184e+18
14165.0	1.6028196134715387e+18
14166.0	1.6025556961198075e+18
14167.0	1.602267844391731e+18
14168.0	1.6020065577074685e+18
14169.0	1.601735593925017e+18
14170.0	1.6014583873404925e+18
14171.0	1.6011815481769981e+18
14172.0	1.600912471831347e+18
14173.0	1.600625697200537e+18
14174.0	1.6003570419630077e+18
14175.0	1.6000914385010685e+18
14176.0	1.5998183423344635e+18
14177.0	1.5995448149934083e+18
14178.0	1.5992708145348605e+18
14179.0	1.59899422031872e+18
14180.0	1.598724056809472e+18
14181.0	1.598450618387661e+18
14182.0	1.5981764686118907e+18
14183.0	1.5979033053364221e+18
14184.0	1.5976253202890747e+18
14185.0	1.5973523918946301e+18
14186.0	1.5970170304462848e+18
14187.0	1.596773930264166e+18
14188.0	1.5965323903631357e+18
14189.0	1.5962642317311997e+18
14190.0	1.5959912915927037e+18
14191.0	1.5957174790389752e+18
14192.0	1.5954363751071741e+18
14193.0	1.5951668122222587e+18
14194.0	1.5948996669341693e+18
14195.0	1.5946284850479104e+18
14196.0	1.5943559576289277e+18
14197.0	1.5940833245134843e+18
14198.0	1.593806097796301e+18
14199.0	1.593532320474726e+18
14200.0	1.593237514590617e+18
14201.0	1.592984801063731e+18
14202.0	1.592718169158451e+18
14203.0	1.592444284462694e+18
14204.0	1.5921728895057915e+18
14205.0	1.5918948356718587e+18
14206.0	1.5915187911524347e+18
14207.0	1.5913445463425024e+18
14208.0	1.5910799813902333e+18
14209.0	1.5906897836113915e+18
14210.0	1.5904377143295997e+18
14211.0	1.5902596074045437e+18
14212.0	1.590000360829747e+18
14213.0	1.5897310294704125e+18
14214.0	1.589458255426355e+18
14215.0	1.5891749587124221e+18
14216.0	1.5889160510373885e+18
14217.0	1.588646931070976e+18
14218.0	1.5883628206620672e+18
14219.0	1.5881045119336443e+18
14220.0	1.5878334273552381e+18
14221.0	1.5875619535454203e+18
14222.0	1.5872826061881341e+18
14223.0	1.5870192475176957e+18
14224.0	1.586745589314355e+18
14225.0	1.5863714339094525e+18
14226.0	1.5861918757552125e+18
14227.0	1.5859280976543741e+18
14228.0	1.5853486109360125e+18
14229.0	1.5852901423382523e+18
14230.0	1.5851211571855357e+18
14231.0	1.5848535236804603e+18
14232.0	1.5845837074595835e+18
14233.0	1.584310987102617e+18
14234.0	1.5840423318650875e+18
14235.0	1.5837694168924163e+18
14236.0	1.583500154319667e+18
14237.0	1.5832257595965437e+18
14238.0	1.582947739317043e+18
14239.0	1.5826228351074304e+18
14240.0	1.5805550046478333e+18
14241.0	1.5820316513140728e+18
14242.0	1.5818401628815357e+18
14243.0	1.5814719751323648e+18
14244.0	1.5813315666116603e+18
14245.0	1.5810634868326395e+18
14246.0	1.580798265891225e+18
14247.0	1.5805279161548797e+18
14248.0	1.58024524187566e+18
14249.0	1.579991063697817e+18
14250.0	1.5797251934781435e+18
14251.0	1.5794579089391613e+18
14252.0	1.5791884215517181e+18
14253.0	1.5789173805940733e+18
14254.0	1.578644458910515e+18
14255.0	1.578325931720704e+18
14256.0	1.5780029115924477e+18
14257.0	1.577784197093785e+18
14258.0	1.5775588958601216e+18
14259.0	1.5772716313346048e+18
14260.0	1.577013789012787e+18
14261.0	1.576732394835148e+18
14262.0	1.5764954485358592e+18
14263.0	1.576092181305753e+18
14264.0	1.575879489827635e+18
14265.0	1.575688219498905e+18
14266.0	1.575432997778227e+18
14267.0	1.5751667450380285e+18
14268.0	1.5748971553095675e+18
14269.0	1.574621381499289e+18
14270.0	1.574361675228774e+18
14271.0	1.574090634271129e+18
14272.0	1.5738200530092032e+18
14273.0	1.5735195495825405e+18
14274.0	1.5730310725500925e+18
14275.0	1.5729389304020992e+18
14276.0	1.5727223583539195e+18
14277.0	1.572468210375065e+18
14278.0	1.5722067005538301e+18
14279.0	1.5719380872593405e+18
14280.0	1.5716681535979515e+18
14281.0	1.5714062243463165e+18
14282.0	1.5711391881101307e+18
14283.0	1.5708715378278397e+18
14284.0	1.5706036191100923e+18
14285.0	1.5703352021090301e+18
14286.0	1.5700655201058813e+18
14287.0	1.569791613599744e+18
14288.0	1.5694767958523904e+18
14289.0	1.5680670500126707e+18
14290.0	1.568946320415129e+18
14291.0	1.568720931939942e+18
14292.0	1.5684561706942464e+18
14293.0	1.568174425872793e+18
14294.0	1.5677946584891392e+18
14295.0	1.5675887148072957e+18
14296.0	1.5664630240116739e+18
14297.0	1.5670046495866875e+18
14298.0	1.5666779871248381e+18
14299.0	1.5665536914423803e+18
14300.0	1.5663091400310781e+18
14301.0	1.5660496233431035e+18
14302.0	1.5657841322885115e+18
14303.0	1.5654810434928635e+18
14304.0	1.5652378007044093e+18
14305.0	1.5649879057498107e+18
14306.0	1.5647216379101181e+18
14307.0	1.5644540060827643e+18
14308.0	1.5641895485046781e+18
14309.0	1.5639215257681915e+18
14310.0	1.563648312161075e+18
14311.0	1.5633753284018176e+18
14312.0	1.5630882836578304e+18
14313.0	1.562674128014541e+18
14314.0	1.5625918340923392e+18
14315.0	1.5623189627404285e+18
14316.0	1.5620094734368765e+18
14317.0	1.5617832628781053e+18
14318.0	1.5615227529789437e+18
14319.0	1.5612585135046656e+18
14320.0	1.560992873132851e+18
14321.0	1.5607228320972797e+18
14322.0	1.5604287543443456e+18
14323.0	1.560172663563878e+18
14324.0	1.5599311840608253e+18
14325.0	1.559657519146598e+18
14326.0	1.559403044012032e+18
14327.0	1.5591300619304952e+18
14328.0	1.5588646010748925e+18
14329.0	1.5586083039346685e+18
14330.0	1.5583436651626493e+18
14331.0	1.5580786338037757e+18
14332.0	1.5578140621406205e+18
14333.0	1.5575493109612541e+18
14334.0	1.557284328256307e+18
14335.0	1.5570066351325181e+18
14336.0	1.5567435063099392e+18
14337.0	1.5564870464307195e+18
14338.0	1.5562235350876157e+18
14339.0	1.5559499557371901e+18
14340.0	1.5556972505989115e+18
14341.0	1.555422790444646e+18
14342.0	1.5551556703223805e+18
14343.0	1.5548933954600957e+18
14344.0	1.5546232839602173e+18
14345.0	1.5543640474517504e+18
14346.0	1.5540991503106048e+18
14347.0	1.553829584070246e+18
14348.0	1.5535723457282048e+18
14349.0	1.5533092454268928e+18
14350.0	1.5530368673251325e+18
14351.0	1.552767025938432e+18
14352.0	1.552505053066035e+18
14353.0	1.5522518680993787e+18
14354.0	1.5519892979580925e+18
14355.0	1.551724783337472e+18
14356.0	1.551460579095347e+18
14357.0	1.551199651443507e+18
14358.0	1.550937809433395e+18
14359.0	1.5506583580573693e+18
14360.0	1.5504102062555133e+18
14361.0	1.5501473693564925e+18
14362.0	1.549884228789862e+18
14363.0	1.5496195765960701e+18
14364.0	1.5493342280286205e+18
14365.0	1.5490810212515835e+18
14366.0	1.548824089932595e+18
14367.0	1.5485691903344637e+18
14368.0	1.5483064339660797e+18
14369.0	1.548033899836211e+18
14370.0	1.547770900198195e+18
14371.0	1.5475082210050043e+18
14372.0	1.5472393174646781e+18
14373.0	1.5469826310930432e+18
14374.0	1.546719730440601e+18
14375.0	1.5464514795339773e+18
14376.0	1.546195266279833e+18
14377.0	1.5459320636375037e+18
14378.0	1.5456677956419584e+18
14379.0	1.5454077152395264e+18
14380.0	1.5451444521992187e+18
14381.0	1.5448707201761283e+18
14382.0	1.5446193471487997e+18
14383.0	1.5443581242179581e+18
14384.0	1.5440770521628667e+18
14385.0	1.5438351364521981e+18
14386.0	1.5435531802378237e+18
14387.0	1.5433106488033275e+18
14388.0	1.5430459177566205e+18
14389.0	1.5427859833159677e+18
14390.0	1.542523330966323e+18
14391.0	1.5422634686676987e+18
14392.0	1.5420013934542843e+18
14393.0	1.5417401822674941e+18
14394.0	1.5414337581613053e+18
14395.0	1.5412050830295037e+18
14396.0	1.5409545404743675e+18
14397.0	1.540692349498163e+18
14398.0	1.5404296719826941e+18
14399.0	1.5401660280995837e+18
14400.0	1.539882167671193e+18
14401.0	1.5396155324104701e+18
14402.0	1.5393370927005693e+18
14403.0	1.5388577206632443e+18
14404.0	1.5359229778984947e+18
14405.0	1.536229568099121e+18
14406.0	1.5382280583249915e+18
14407.0	1.537844969052569e+18
14408.0	1.5377704933130237e+18
14409.0	1.5375167010111488e+18
14410.0	1.5372797563895803e+18
14411.0	1.5370234726711293e+18
14412.0	1.5367617195802616e+18
14413.0	1.536506269689446e+18
14414.0	1.5362443857362944e+18
14415.0	1.535984956289843e+18
14416.0	1.5357239715954688e+18
14417.0	1.5354648877596667e+18
14418.0	1.5352030054842365e+18
14419.0	1.5349420090458107e+18
14420.0	1.534677254511001e+18
14421.0	1.5344201268985853e+18
14422.0	1.5341490439979005e+18
14423.0	1.5338487200874493e+18
14424.0	1.532881094154649e+18
14425.0	1.533321665524531e+18
14426.0	1.5331143645659133e+18
14427.0	1.532859322361446e+18
14428.0	1.532575314293555e+18
14429.0	1.5323407218376701e+18
14430.0	1.532079631446835e+18
14431.0	1.5317778462408701e+18
14432.0	1.531551686013747e+18
14433.0	1.5311427094970365e+18
14434.0	1.5310189288751101e+18
14435.0	1.5307719548338173e+18
14436.0	1.5305262625718272e+18
14437.0	1.5302684957474813e+18
14438.0	1.5299931547893752e+18
14439.0	1.5297348427055104e+18
14440.0	1.5294795857526781e+18
14441.0	1.5292055483842552e+18
14442.0	1.528937376330547e+18
14443.0	1.528636112896e+18
14444.0	1.528422802338611e+18
14445.0	1.5281521170579453e+18
14446.0	1.5269233537581064e+18
14447.0	1.5275586599518203e+18
14448.0	1.5273963437424637e+18
14449.0	1.527146277660262e+18
14450.0	1.5268830783733757e+18
14451.0	1.5266282844717053e+18
14452.0	1.526373624787763e+18
14453.0	1.5261143228481528e+18
14454.0	1.5258561349156864e+18
14455.0	1.5255892664516603e+18
14456.0	1.5253396449656832e+18
14457.0	1.5250788448206848e+18
14458.0	1.5248215259480064e+18
14459.0	1.5245615243984893e+18
14460.0	1.5243012477026301e+18
14461.0	1.5240289232879613e+18
14462.0	1.5237791071862781e+18
14463.0	1.5235240582709243e+18
14464.0	1.5232657646419963e+18
14465.0	1.5229844610613248e+18
14466.0	1.5227525965807613e+18
14467.0	1.5224771633479677e+18
14468.0	1.522234249392947e+18
14469.0	1.52195355985838e+18
14470.0	1.521692659050086e+18
14471.0	1.5214558234804221e+18
14472.0	1.5212037357436923e+18
14473.0	1.5209512923299835e+18
14474.0	1.5206973054124032e+18
14475.0	1.5204382115102715e+18
14476.0	1.5201739636473856e+18
14477.0	1.519924650862182e+18
14478.0	1.5196644026875904e+18
14479.0	1.5193959001227264e+18
14480.0	1.5191193260392443e+18
14481.0	1.5188825257017341e+18
14482.0	1.5186187190796283e+18
14483.0	1.5183562697342976e+18
14484.0	1.5180846935834627e+18
14485.0	1.5177819034222587e+18
14486.0	1.5172962852274173e+18
14487.0	1.517319177738649e+18
14488.0	1.5170789129060347e+18
14489.0	1.5168213423751165e+18
14490.0	1.5165670215909376e+18
14491.0	1.5163112797765632e+18
14492.0	1.5160564657422336e+18
14493.0	1.5157917749608448e+18
14494.0	1.515515041493811e+18
14495.0	1.5152654049083387e+18
14496.0	1.514901886258381e+18
14497.0	1.5147603670859773e+18
14498.0	1.514513799053312e+18
14499.0	1.5142589162323965e+18
14500.0	1.5140007786315776e+18
14501.0	1.5137116736454656e+18
14502.0	1.5132400510042112e+18
14503.0	1.5132103519764477e+18
14504.0	1.5129645959610365e+18
14505.0	1.512711759960473e+18
14506.0	1.5124266932502525e+18
14507.0	1.5119623787642875e+18
14508.0	1.511935152698163e+18
14509.0	1.5116923192737787e+18
14510.0	1.5114340910759936e+18
14511.0	1.5111798055239677e+18
14512.0	1.5109123314024443e+18
14513.0	1.5106575811215357e+18
14514.0	1.510368529822515e+18
14515.0	1.5100623825403904e+18
14516.0	1.506799932093236e+18
14517.0	1.509397937677926e+18
14518.0	1.50936232132608e+18
14519.0	1.509125791101747e+18
14520.0	1.5088783892414467e+18
14521.0	1.5086273433698304e+18
14522.0	1.5083726098661373e+18
14523.0	1.5081094676217856e+18
14524.0	1.5078540730957821e+18
14525.0	1.507602428277555e+18
14526.0	1.507347179713331e+18
14527.0	1.5070402254471163e+18
14528.0	1.5066957808140283e+18
14529.0	1.5065608752201723e+18
14530.0	1.5063031604051963e+18
14531.0	1.506064393777971e+18
14532.0	1.505803716106649e+18
14533.0	1.5055569400365053e+18
14534.0	1.5053043020070907e+18
14535.0	1.505036591326822e+18
14536.0	1.504788691183206e+18
14537.0	1.5045269011824637e+18
14538.0	1.5042840409145341e+18
14539.0	1.5040286329667581e+18
14540.0	1.5037750520578048e+18
14541.0	1.5034947483992064e+18
14542.0	1.5032607314018301e+18
14543.0	1.502988433830707e+18
14544.0	1.5027458856189947e+18
14545.0	1.5024631710744573e+18
14546.0	1.500894412459212e+18
14547.0	1.5005866495311862e+18
14548.0	1.5016691943604221e+18
14549.0	1.5013470063820797e+18
14550.0	1.5012008382431232e+18
14551.0	1.5009714937004032e+18
14552.0	1.5007170688974843e+18
14553.0	1.5004547705470973e+18
14554.0	1.5002121954918397e+18
14555.0	1.4999567036579837e+18
14556.0	1.4996986365214715e+18
14557.0	1.4994321572888576e+18
14558.0	1.4990909036822525e+18
14559.0	1.4966258944442348e+18
14560.0	1.498575433786982e+18
14561.0	1.4984089283067904e+18
14562.0	1.4981448733818877e+18
14563.0	1.4979235047276541e+18
14564.0	1.4976686537834493e+18
14565.0	1.4974217804054528e+18
14566.0	1.4971686088605693e+18
14567.0	1.4969122177679357e+18
14568.0	1.4966510938226688e+18
14569.0	1.4963703623450621e+18
14570.0	1.4955232974864381e+18
14571.0	1.4958728474263547e+18
14572.0	1.495602257775821e+18
14573.0	1.4953368539627515e+18
14574.0	1.4951374483619837e+18
14575.0	1.4948878285537275e+18
14576.0	1.4946351687139325e+18
14577.0	1.4943736505040893e+18
14578.0	1.4941295873097725e+18
14579.0	1.4938787310206973e+18
14580.0	1.4936262171426816e+18
14581.0	1.4933711128625155e+18
14582.0	1.4931201206779896e+18
14583.0	1.4928663636082685e+18
14584.0	1.4926055567523835e+18
14585.0	1.492349883724595e+18
14586.0	1.4920956149497853e+18
14587.0	1.4918448945561597e+18
14588.0	1.49159302660096e+18
14589.0	1.4913406922391547e+18
14590.0	1.4910879652904957e+18
14591.0	1.4908303561719805e+18
14592.0	1.4905606540361728e+18
14593.0	1.4902152782675965e+18
14594.0	1.4900648990474237e+18
14595.0	1.4898164637106173e+18
14596.0	1.489542124352307e+18
14597.0	1.489287444535705e+18
14598.0	1.4890646582067197e+18
14599.0	1.4888193652424701e+18
14600.0	1.4885682103189501e+18
14601.0	1.4883162668662781e+18
14602.0	1.4880598908731387e+18
14603.0	1.48780942884864e+18
14604.0	1.4875210553491453e+18
14605.0	1.4872955729215485e+18
14606.0	1.486944093601792e+18
14607.0	1.4867993934692347e+18
14608.0	1.486546139715993e+18
14609.0	1.486295696146432e+18
14610.0	1.486042509502054e+18
14611.0	1.485787977324953e+18
14612.0	1.4855487812009984e+18
14613.0	1.485298268844851e+18
14614.0	1.48503900717056e+18
14615.0	1.4847896725749757e+18
14616.0	1.4845444970512381e+18
14617.0	1.4842825057239037e+18
14618.0	1.484028991923814e+18
14619.0	1.4837507904503803e+18
14620.0	1.4834776741511165e+18
14621.0	1.4832837127569403e+18
14622.0	1.483031876678451e+18
14623.0	1.482781235137741e+18
14624.0	1.4824821292531712e+18
14625.0	1.482272325133926e+18
14626.0	1.4820262537068544e+18
14627.0	1.4817770013196285e+18
14628.0	1.4815319214260221e+18
14629.0	1.481281585230643e+18
14630.0	1.4810267426750464e+18
14631.0	1.480773871442329e+18
14632.0	1.4804547151069181e+18
14633.0	1.480255900064153e+18
14634.0	1.4800256831062013e+18
14635.0	1.4797720988418048e+18
14636.0	1.4795094783688704e+18
14637.0	1.4792755704233981e+18
14638.0	1.4790208285310973e+18
14639.0	1.4787613470752765e+18
14640.0	1.4785024377225216e+18
14641.0	1.4780253591306235e+18
14642.0	1.4780007939309563e+18
14643.0	1.4777679412723707e+18
14644.0	1.4775057033199616e+18
14645.0	1.4772457034481664e+18
14646.0	1.4770059570315264e+18
14647.0	1.476761742842265e+18
