# Flux units: erg / (cm m2 s)
# Wavelength units: Angstrom
wave	flux
14000.0	1.745030958442086e+18
14001.0	1.744613185631027e+18
14002.0	1.7444897808187387e+18
14003.0	1.744183982502707e+18
14004.0	1.7438771725205504e+18
14005.0	1.7435698189565947e+18
14006.0	1.7432534409281533e+18
14007.0	1.7429441076527104e+18
14008.0	1.7425454961000443e+18
14009.0	1.7423276338839547e+18
14010.0	1.7420103968620536e+18
14011.0	1.7409716959313917e+18
14012.0	1.7414044726067197e+18
14013.0	1.7411132587245565e+18
14014.0	1.7408018903728125e+18
14015.0	1.7405001940860925e+18
14016.0	1.7401960885911547e+18
14017.0	1.7398902718201853e+18
14018.0	1.7395805409247227e+18
14019.0	1.7392779135025147e+18
14020.0	1.738970960914022e+18
14021.0	1.7386641811308541e+18
14022.0	1.7383585757528061e+18
14023.0	1.7380411894136827e+18
14024.0	1.7377342905122813e+18
14025.0	1.7374415197044733e+18
14026.0	1.7371343624339453e+18
14027.0	1.7368300958777341e+18
14028.0	1.736517121946419e+18
14029.0	1.736211743060787e+18
14030.0	1.7355898888388605e+18
14031.0	1.7355552388546552e+18
14032.0	1.7352998090964987e+18
14033.0	1.7349518680915968e+18
14034.0	1.7346921332998136e+18
14035.0	1.7343879858618365e+18
14036.0	1.734083259609907e+18
14037.0	1.733778424306073e+18
14038.0	1.7334736309452797e+18
14039.0	1.7331641298976765e+18
14040.0	1.7328610461351933e+18
14041.0	1.7325579791499261e+18
14042.0	1.732242929876992e+18
14043.0	1.7319047934771197e+18
14044.0	1.7316287227101181e+18
14045.0	1.731334648312627e+18
14046.0	1.731032104776499e+18
14047.0	1.7307246924922875e+18
14048.0	1.7304279354179581e+18
14049.0	1.7301246436179965e+18
14050.0	1.7298205347676157e+18
14051.0	1.729507701764915e+18
14052.0	1.7292074852286461e+18
14053.0	1.7289088239403005e+18
14054.0	1.72860520834007e+18
14055.0	1.7283015172423677e+18
14056.0	1.7279978496327677e+18
14057.0	1.727694327984947e+18
14058.0	1.7273907979485181e+18
14059.0	1.7270841775489021e+18
14060.0	1.7267838637047803e+18
14061.0	1.7264724668317693e+18
14062.0	1.7261765335187453e+18
14063.0	1.7258568604450813e+18
14064.0	1.7254991819440125e+18
14065.0	1.7252575631900672e+18
14066.0	1.7249627036188667e+18
14067.0	1.7246623025332221e+18
14068.0	1.724359418419609e+18
14069.0	1.724055715577856e+18
14070.0	1.723753799509606e+18
14071.0	1.7234479542173693e+18
14072.0	1.7231488248446968e+18
14073.0	1.7228463568060413e+18
14074.0	1.7225439390990339e+18
14075.0	1.7222216991113213e+18
14076.0	1.7219381574500347e+18
14077.0	1.721563220226867e+18
14078.0	1.7213267218792443e+18
14079.0	1.721021574519193e+18
14080.0	1.7207304160018432e+18
14081.0	1.7204286693834747e+18
14082.0	1.72012597149696e+18
14083.0	1.7198222602665981e+18
14084.0	1.7195165508698107e+18
14085.0	1.7189440837386237e+18
14086.0	1.7188999277838333e+18
14087.0	1.7186142654824443e+18
14088.0	1.7183036084846587e+18
14089.0	1.7180155671740413e+18
14090.0	1.7177138239111163e+18
14091.0	1.7174133204844536e+18
14092.0	1.7171122835423232e+18
14093.0	1.7168111560032253e+18
14094.0	1.716509947933491e+18
14095.0	1.7162082550022141e+18
14096.0	1.7158962222727165e+18
14097.0	1.71558680175575e+18
14098.0	1.7153011780419581e+18
14099.0	1.7150047883886587e+18
14100.0	1.7146905024790525e+18
14101.0	1.7144045214105597e+18
14102.0	1.7141016960172027e+18
14103.0	1.7137846854877181e+18
14104.0	1.7134998989570043e+18
14105.0	1.71320302108672e+18
14106.0	1.7129027475079165e+18
14107.0	1.712599682200371e+18
14108.0	1.7122892533727224e+18
14109.0	1.7119972895490043e+18
14110.0	1.7117005928726528e+18
14111.0	1.711394418746982e+18
14112.0	1.711092433892147e+18
14113.0	1.710801733392793e+18
14114.0	1.7104864593051643e+18
14115.0	1.7101977385172984e+18
14116.0	1.7098711800741888e+18
14117.0	1.7090073296109565e+18
14118.0	1.7092911363522557e+18
14119.0	1.7089882941816824e+18
14120.0	1.7086973353132024e+18
14121.0	1.7083918171766781e+18
14122.0	1.708098363536179e+18
14123.0	1.7077995076321275e+18
14124.0	1.7074849163771904e+18
14125.0	1.7066949796167672e+18
14126.0	1.706896901799936e+18
14127.0	1.7066093319290875e+18
14128.0	1.706310838412902e+18
14129.0	1.706000540447539e+18
14130.0	1.705690465619148e+18
14131.0	1.70541435626455e+18
14132.0	1.705093782254387e+18
14133.0	1.7042179075604472e+18
14134.0	1.704499917461913e+18
14135.0	1.704206972171059e+18
14136.0	1.703921893716787e+18
14137.0	1.7036248279416827e+18
14138.0	1.703324965404672e+18
14139.0	1.7030303289704443e+18
14140.0	1.702731122422579e+18
14141.0	1.7024243275399168e+18
14142.0	1.7021082682785795e+18
14143.0	1.70183711826903e+18
14144.0	1.701542303996313e+18
14145.0	1.701242699828428e+18
14146.0	1.700946082004992e+18
14147.0	1.7006494004281341e+18
14148.0	1.7003525376573437e+18
14149.0	1.7000557956825085e+18
14150.0	1.6997583373205496e+18
14151.0	1.6994585704136696e+18
14152.0	1.6991619173580797e+18
14153.0	1.6988669135028221e+18
14154.0	1.698540776167833e+18
14155.0	1.6982621888184315e+18
14156.0	1.697974639080243e+18
14157.0	1.6976786034262008e+18
14158.0	1.6973778382749693e+18
14159.0	1.6970845255630843e+18
14160.0	1.696771519755059e+18
14161.0	1.696426786553856e+18
14162.0	1.6960784881942523e+18
14163.0	1.695890556531507e+18
14164.0	1.6955762236456957e+18
14165.0	1.6952849057447933e+18
14166.0	1.695007709226598e+18
14167.0	1.6946973089202176e+18
14168.0	1.6944144769351675e+18
14169.0	1.6941220198612987e+18
14170.0	1.6938227176833021e+18
14171.0	1.6935264320487421e+18
14172.0	1.693233750160179e+18
14173.0	1.6929168436494333e+18
14174.0	1.6926343656636408e+18
14175.0	1.6923468662571003e+18
14176.0	1.692051582222336e+18
14177.0	1.691756125382246e+18
14178.0	1.691460205490995e+18
14179.0	1.6911605795127293e+18
14180.0	1.6908698488143872e+18
14181.0	1.6905745547132925e+18
14182.0	1.6902783915524093e+18
14183.0	1.689983820549324e+18
14184.0	1.6896828238725115e+18
14185.0	1.689390056420147e+18
14186.0	1.6889801353461757e+18
14187.0	1.6887662577188856e+18
14188.0	1.6885034996727803e+18
14189.0	1.6882132253147133e+18
14190.0	1.6879184798285821e+18
14191.0	1.6876232293482493e+18
14192.0	1.6873182665375741e+18
14193.0	1.6870199760257021e+18
14194.0	1.6867396002250752e+18
14195.0	1.686447181738803e+18
14196.0	1.686152758375219e+18
14197.0	1.6858584490967035e+18
14198.0	1.6855584775077885e+18
14199.0	1.685264287347507e+18
14200.0	1.6849133314768888e+18
14201.0	1.6846722630156288e+18
14202.0	1.6843853726220288e+18
14203.0	1.6840884091879421e+18
14204.0	1.6837965963591677e+18
14205.0	1.6835004113879037e+18
14206.0	1.683073664444006e+18
14207.0	1.6829118582620157e+18
14208.0	1.6826221509738493e+18
14209.0	1.6821831784726525e+18
14210.0	1.6819233782497275e+18
14211.0	1.6817345607499768e+18
14212.0	1.6814508362170363e+18
14213.0	1.6811592029044733e+18
14214.0	1.6808648097398781e+18
14215.0	1.6805578521182205e+18
14216.0	1.680280482794701e+18
14217.0	1.6799876901765115e+18
14218.0	1.6796810362224635e+18
14219.0	1.6794018163720187e+18
14220.0	1.6791091411943421e+18
14221.0	1.678815892235878e+18
14222.0	1.6785143318446075e+18
14223.0	1.6782302667341821e+18
14224.0	1.6779358920245243e+18
14225.0	1.6774340318068733e+18
14226.0	1.67734134439936e+18
14227.0	1.677056861536256e+18
14228.0	1.676176045952205e+18
14229.0	1.6763449539297275e+18
14230.0	1.6761821780246525e+18
14231.0	1.675890527934873e+18
14232.0	1.6756003877945344e+18
14233.0	1.6753067345051648e+18
14234.0	1.675016460147097e+18
14235.0	1.6747216374857725e+18
14236.0	1.6744322187657213e+18
14237.0	1.6741378759327741e+18
14238.0	1.673843960918835e+18
14239.0	1.673527532558745e+18
14240.0	1.6712615128465413e+18
14241.0	1.6729273763102715e+18
14242.0	1.6726422307471357e+18
14243.0	1.672197960001126e+18
14244.0	1.672073452925747e+18
14245.0	1.6717766186762235e+18
14246.0	1.6714870992928763e+18
14247.0	1.671198475812864e+18
14248.0	1.6708923234975741e+18
14249.0	1.6706170764918781e+18
14250.0	1.6703293019389947e+18
14251.0	1.6700409619939325e+18
14252.0	1.66974988568494e+18
14253.0	1.6694575477293053e+18
14254.0	1.669164010202726e+18
14255.0	1.6688309589770237e+18
14256.0	1.6683787173756925e+18
14257.0	1.6682418085822467e+18
14258.0	1.6680024446861312e+18
14259.0	1.6676913011490813e+18
14260.0	1.6673884052914176e+18
14261.0	1.6670857946464253e+18
14262.0	1.6668349786226688e+18
14263.0	1.6662458198392835e+18
14264.0	1.6661342211538941e+18
14265.0	1.665961546691379e+18
14266.0	1.6656823301963776e+18
14267.0	1.665393788924723e+18
14268.0	1.6651042259206141e+18
14269.0	1.664803950664089e+18
14270.0	1.6645240614027261e+18
14271.0	1.6642334296899581e+18
14272.0	1.663941021270016e+18
14273.0	1.663634167667097e+18
14274.0	1.6628567701979139e+18
14275.0	1.6629890954559485e+18
14276.0	1.6627669785378813e+18
14277.0	1.6624874348871675e+18
14278.0	1.6622069164802043e+18
14279.0	1.6619159374790653e+18
14280.0	1.6615992406835195e+18
14281.0	1.6613175143170048e+18
14282.0	1.6610288455385085e+18
14283.0	1.6607397120311293e+18
14284.0	1.6604504828936187e+18
14285.0	1.6601609987424253e+18
14286.0	1.6598709542322176e+18
14287.0	1.6595798980558843e+18
14288.0	1.6592725327478781e+18
14289.0	1.6577169241145326e+18
14290.0	1.658696458515251e+18
14291.0	1.6584234529456125e+18
14292.0	1.6581348613423104e+18
14293.0	1.6578441021227003e+18
14294.0	1.6574091578310656e+18
14295.0	1.6572354868019197e+18
14296.0	1.6559642771456003e+18
14297.0	1.656648571132313e+18
14298.0	1.6562003678068733e+18
14299.0	1.6560954649083904e+18
14300.0	1.6558224962486272e+18
14301.0	1.6555401323479037e+18
14302.0	1.6552494167490557e+18
14303.0	1.6549029320065021e+18
14304.0	1.6546364829728763e+18
14305.0	1.6543672690540541e+18
14306.0	1.6540759863853053e+18
14307.0	1.65378721358807e+18
14308.0	1.653502760923955e+18
14309.0	1.6532111494217723e+18
14310.0	1.6529018748665853e+18
14311.0	1.6526043225522168e+18
14312.0	1.6523152477650941e+18
14313.0	1.6518912858390525e+18
14314.0	1.6517761001848832e+18
14315.0	1.651488214902374e+18
14316.0	1.6511491876323323e+18
14317.0	1.6509126574079997e+18
14318.0	1.650632232953446e+18
14319.0	1.6503467015143421e+18
14320.0	1.6500595124862968e+18
14321.0	1.6497690351239163e+18
14322.0	1.6494433138638843e+18
14323.0	1.649173601661747e+18
14324.0	1.648912836748902e+18
14325.0	1.648615908546969e+18
14326.0	1.6483405692665853e+18
14327.0	1.6480460267847677e+18
14328.0	1.6477370944847872e+18
14329.0	1.6474571095932925e+18
14330.0	1.6471707644592125e+18
14331.0	1.6468840552595453e+18
14332.0	1.646597975205478e+18
14333.0	1.6463117038911488e+18
14334.0	1.64602531849175e+18
14335.0	1.6457243587248125e+18
14336.0	1.6454311701643261e+18
14337.0	1.6451631625273341e+18
14338.0	1.6448775941783552e+18
14339.0	1.6445818588364797e+18
14340.0	1.644308660328857e+18
14341.0	1.6440204562792443e+18
14342.0	1.6437344466894843e+18
14343.0	1.643450270849433e+18
14344.0	1.6431597683212285e+18
14345.0	1.6428792180375547e+18
14346.0	1.6425911985373181e+18
14347.0	1.6422963590987776e+18
14348.0	1.6420221086597115e+18
14349.0	1.6417378841657341e+18
14350.0	1.641435073871872e+18
14351.0	1.6411433684172795e+18
14352.0	1.6408696967921661e+18
14353.0	1.6405948759277563e+18
14354.0	1.640309324355993e+18
14355.0	1.6400204710281213e+18
14356.0	1.6397132265160704e+18
14357.0	1.63943359226839e+18
14358.0	1.6391488543916024e+18
14359.0	1.6388465239261181e+18
14360.0	1.6385773133627392e+18
14361.0	1.6382933623373821e+18
14362.0	1.6380092301180925e+18
14363.0	1.6377233765564413e+18
14364.0	1.6373889730871293e+18
14365.0	1.6371354693533693e+18
14366.0	1.6368580631199741e+18
14367.0	1.6365864886468605e+18
14368.0	1.636301853111091e+18
14369.0	1.6360181487108093e+18
14370.0	1.635733939316326e+18
14371.0	1.6354497903198205e+18
14372.0	1.635159096531353e+18
14373.0	1.634881109806284e+18
14374.0	1.6345968031039488e+18
14375.0	1.6343095536779261e+18
14376.0	1.634029360748953e+18
14377.0	1.6337446178390013e+18
14378.0	1.6334583834345472e+18
14379.0	1.6331775009619965e+18
14380.0	1.6328927161090043e+18
14381.0	1.6325961301622781e+18
14382.0	1.632324401338777e+18
14383.0	1.632041049260032e+18
14384.0	1.631737908455014e+18
14385.0	1.6314758751846397e+18
14386.0	1.6311712110084093e+18
14387.0	1.6309084915499005e+18
14388.0	1.6305991062650875e+18
14389.0	1.6303171584393213e+18
14390.0	1.6300322460794877e+18
14391.0	1.6297513770287101e+18
14392.0	1.6294674427805693e+18
14393.0	1.6291850772021243e+18
14394.0	1.6288552992112637e+18
14395.0	1.6286064310222843e+18
14396.0	1.628335381676032e+18
14397.0	1.6280521067724797e+18
14398.0	1.627768516457267e+18
14399.0	1.6274847264931837e+18
14400.0	1.6271776531087357e+18
14401.0	1.6269061071568893e+18
14402.0	1.6266173041606653e+18
14403.0	1.6259894218850296e+18
14404.0	1.6225895895269353e+18
14405.0	1.6235289945046994e+18
14406.0	1.625464207782707e+18
14407.0	1.6247803013496835e+18
14408.0	1.6249148143566843e+18
14409.0	1.6246306720710656e+18
14410.0	1.6243711771934715e+18
14411.0	1.6240933766955005e+18
14412.0	1.6238088787329021e+18
14413.0	1.6235319842045947e+18
14414.0	1.6232473922895867e+18
14415.0	1.6229666222243837e+18
14416.0	1.6226858454482944e+18
14417.0	1.6224015219687421e+18
14418.0	1.622116409960038e+18
14419.0	1.6218372488298493e+18
14420.0	1.6215505043980288e+18
14421.0	1.621273161918054e+18
14422.0	1.6209818238844925e+18
14423.0	1.6206588842868733e+18
14424.0	1.6186999765467126e+18
14425.0	1.6200686886715392e+18
14426.0	1.6198322825986043e+18
14427.0	1.619554498877849e+18
14428.0	1.6192473248301053e+18
14429.0	1.618991175329382e+18
14430.0	1.6187103398330368e+18
14431.0	1.6183374309752832e+18
14432.0	1.6181406593974272e+18
14433.0	1.617528987267891e+18
14434.0	1.6175620299948032e+18
14435.0	1.6172875278974976e+18
14436.0	1.617025987877273e+18
14437.0	1.616746507979981e+18
14438.0	1.616451510835609e+18
14439.0	1.616178146233548e+18
14440.0	1.6159034209992701e+18
14441.0	1.6156100478894077e+18
14442.0	1.6153198741946365e+18
14443.0	1.6149897774366715e+18
14444.0	1.6147686453411835e+18
14445.0	1.6144861136683005e+18
14446.0	1.6129637826428936e+18
14447.0	1.6138824157495293e+18
14448.0	1.6136544570048512e+18
14449.0	1.6133779215089661e+18
14450.0	1.6130912928399357e+18
14451.0	1.6128140745113597e+18
14452.0	1.61253737627648e+18
14453.0	1.6122542456569848e+18
14454.0	1.6119771447689216e+18
14455.0	1.6116868083351547e+18
14456.0	1.6114162824380413e+18
14457.0	1.6111332189274107e+18
14458.0	1.6108549587337208e+18
14459.0	1.610572336463872e+18
14460.0	1.6102895095119872e+18
14461.0	1.609985440926924e+18
14462.0	1.6097058419113984e+18
14463.0	1.6094433690779648e+18
14464.0	1.609172104983347e+18
14465.0	1.6088608138067965e+18
14466.0	1.6085899540430848e+18
14467.0	1.6082892509675512e+18
14468.0	1.6080288417316861e+18
14469.0	1.607724910719795e+18
14470.0	1.6074377669902328e+18
14471.0	1.607183967977472e+18
14472.0	1.606910838256435e+18
14473.0	1.6066364787654653e+18
14474.0	1.6063606915334141e+18
14475.0	1.6060794651279357e+18
14476.0	1.605782478205747e+18
14477.0	1.6055227803238397e+18
14478.0	1.6052408324980728e+18
14479.0	1.6049619767132157e+18
14480.0	1.6046629815582715e+18
14481.0	1.6044068236689405e+18
14482.0	1.604121642873651e+18
14483.0	1.6038361718325248e+18
14484.0	1.603548034891776e+18
14485.0	1.6032318883889147e+18
14486.0	1.602646175645696e+18
14487.0	1.6027250134614008e+18
14488.0	1.6024515700064253e+18
14489.0	1.6021676005261312e+18
14490.0	1.6018925749796861e+18
14491.0	1.6016173732724733e+18
14492.0	1.601341126344704e+18
14493.0	1.6010542225293307e+18
14494.0	1.6007564386893821e+18
14495.0	1.6004956670656507e+18
14496.0	1.600066333075046e+18
14497.0	1.5999413763702784e+18
14498.0	1.599670269981491e+18
14499.0	1.5993923117776893e+18
14500.0	1.5991129644204032e+18
14501.0	1.5988101490933752e+18
14502.0	1.59827829456896e+18
14503.0	1.5982569338175485e+18
14504.0	1.5979897113542653e+18
14505.0	1.5977117531504637e+18
14506.0	1.5974156839419904e+18
14507.0	1.5968662250848256e+18
14508.0	1.596882181894963e+18
14509.0	1.5966097366843392e+18
14510.0	1.5963290723155965e+18
14511.0	1.5960542631952381e+18
14512.0	1.5957603246931965e+18
14513.0	1.595494568558592e+18
14514.0	1.595179697124147e+18
14515.0	1.5948940465668093e+18
14516.0	1.5913023113789455e+18
14517.0	1.594267115559321e+18
14518.0	1.594077668913971e+18
14519.0	1.5938085153931267e+18
14520.0	1.5935318943334397e+18
14521.0	1.5932567228252157e+18
14522.0	1.592979064933581e+18
14523.0	1.5926793114484733e+18
14524.0	1.5924038765379581e+18
14525.0	1.5921410731933696e+18
14526.0	1.5918667338350587e+18
14527.0	1.5915522398879744e+18
14528.0	1.5911465567387643e+18
14529.0	1.5910235780677624e+18
14530.0	1.5907401504915453e+18
14531.0	1.590482167241113e+18
14532.0	1.5901838482079741e+18
14533.0	1.589930037451161e+18
14534.0	1.5896556595052541e+18
14535.0	1.589365007659827e+18
14536.0	1.5890963155124221e+18
14537.0	1.588808220514713e+18
14538.0	1.5885477743689723e+18
14539.0	1.5882714905313277e+18
14540.0	1.587994424875417e+18
14541.0	1.5876894285103101e+18
14542.0	1.5874366495522816e+18
14543.0	1.587135147881267e+18
14544.0	1.586880249960857e+18
14545.0	1.5865827915988992e+18
14546.0	1.5837677710475246e+18
14547.0	1.5835376614637548e+18
14548.0	1.58573367656448e+18
14549.0	1.5853472771473405e+18
14550.0	1.585208532926464e+18
14551.0	1.5849503986810875e+18
14552.0	1.5846735863611387e+18
14553.0	1.5843873184022525e+18
14554.0	1.5841234295717885e+18
14555.0	1.5838466642280443e+18
14556.0	1.5835687496450043e+18
14557.0	1.5832882597593085e+18
14558.0	1.582978231907123e+18
14559.0	1.5802645994274778e+18
14560.0	1.5824223473762301e+18
14561.0	1.582174886795673e+18
14562.0	1.5818804667875325e+18
14563.0	1.5816342745645053e+18
14564.0	1.5813554993102848e+18
14565.0	1.5810875101282301e+18
14566.0	1.5808120634736635e+18
14567.0	1.5805334576693243e+18
14568.0	1.580251714525593e+18
14569.0	1.5799696140271613e+18
14570.0	1.579025939247923e+18
14571.0	1.5794136036671488e+18
14572.0	1.5790849916928e+18
14573.0	1.5787946049273853e+18
14574.0	1.578571845441945e+18
14575.0	1.5783029721006075e+18
14576.0	1.578025681630003e+18
14577.0	1.5777452672417792e+18
14578.0	1.5774785984266235e+18
14579.0	1.5772058461929467e+18
14580.0	1.576930656229785e+18
14581.0	1.5766517383692285e+18
14582.0	1.5763791169978365e+18
14583.0	1.5761036267225085e+18
14584.0	1.5758153102655485e+18
14585.0	1.5755522804285437e+18
14586.0	1.5752741225758715e+18
14587.0	1.5750018602369021e+18
14588.0	1.5747273396846587e+18
14589.0	1.574453258695475e+18
14590.0	1.574178929403494e+18
14591.0	1.5739012698341376e+18
14592.0	1.5736144431939581e+18
14593.0	1.5732120248909821e+18
14594.0	1.5730740171898877e+18
14595.0	1.572796805572198e+18
14596.0	1.572478127387443e+18
14597.0	1.572193382799769e+18
14598.0	1.5719763326009341e+18
14599.0	1.5717114723696637e+18
14600.0	1.5714375104987133e+18
14601.0	1.5711635083624448e+18
14602.0	1.5708858555039741e+18
14603.0	1.5706139303870464e+18
14604.0	1.5702903415111675e+18
14605.0	1.5700548363747325e+18
14606.0	1.5696847024685053e+18
14607.0	1.569512152157388e+18
14608.0	1.5692397589561344e+18
14609.0	1.568966141018112e+18
14610.0	1.5686872718114813e+18
14611.0	1.568413710915993e+18
14612.0	1.5681514075324416e+18
14613.0	1.567879145193472e+18
14614.0	1.5675985881989115e+18
14615.0	1.567327782122291e+18
14616.0	1.567058902070067e+18
14617.0	1.5667787091410941e+18
14618.0	1.5665025964310525e+18
14619.0	1.5661784169971707e+18
14620.0	1.5658362758758397e+18
14621.0	1.5656881129259005e+18
14622.0	1.5654128994746365e+18
14623.0	1.565142027966873e+18
14624.0	1.564801324652953e+18
14625.0	1.5645891381690363e+18
14626.0	1.5643181592870907e+18
14627.0	1.564044895348326e+18
14628.0	1.5637769195880448e+18
14629.0	1.5635036137062397e+18
14630.0	1.5632271050539005e+18
14631.0	1.562952871392051e+18
14632.0	1.5625315535552512e+18
14633.0	1.562380092204646e+18
14634.0	1.562133509072486e+18
14635.0	1.561850900224409e+18
14636.0	1.5615450582876157e+18
14637.0	1.5612930192048125e+18
14638.0	1.561014024169062e+18
14639.0	1.5607300697882627e+18
14640.0	1.5604550324977664e+18
14641.0	1.5596428776701947e+18
14642.0	1.559906196075315e+18
14643.0	1.5596488470036477e+18
14644.0	1.5593624632819707e+18
14645.0	1.5590751752683515e+18
14646.0	1.558818956981043e+18
14647.0	1.5585455789572093e+18
14648.0	1.5582803848593405e+18
