# Flux units: erg / (cm m2 s)
# Wavelength units: Angstrom
wave	flux
14000.0	2.0051847595163643e+18
14001.0	2.0046996228276221e+18
14002.0	2.0042386503630843e+18
14003.0	2.003766158662041e+18
14004.0	2.003293824666828e+18
14005.0	2.002821408463257e+18
14006.0	2.002347671892787e+18
14007.0	2.001875904967475e+18
14008.0	2.0013841496670205e+18
14009.0	2.0009329851629565e+18
14010.0	2.0004583241678843e+18
14011.0	1.9998732422479872e+18
14012.0	1.9995180316753915e+18
14013.0	1.9990467781328893e+18
14014.0	1.998575531301273e+18
14015.0	1.998103953958502e+18
14016.0	1.997633515788697e+18
14017.0	1.997162698453811e+18
14018.0	1.9966916697260027e+18
14019.0	1.9962214664372221e+18
14020.0	1.9957508823056381e+18
14021.0	1.9952804693016573e+18
14022.0	1.994804405731328e+18
14023.0	1.994326263463936e+18
14024.0	1.9938551474946045e+18
14025.0	1.9933885764730875e+18
14026.0	1.9929184906248187e+18
14027.0	1.992449414764953e+18
14028.0	1.991980067114188e+18
14029.0	1.9915104761937917e+18
14030.0	1.990992457839411e+18
14031.0	1.9905685948989437e+18
14032.0	1.9901037183762424e+18
14033.0	1.9896259519184893e+18
14034.0	1.989166568256307e+18
14035.0	1.9886982003949565e+18
14036.0	1.988229896287027e+18
14037.0	1.9877617364631547e+18
14038.0	1.987293700790681e+18
14039.0	1.986825801013657e+18
14040.0	1.9863470816100347e+18
14041.0	1.9858772306427901e+18
14042.0	1.985408461805977e+18
14043.0	1.9849352839168e+18
14044.0	1.9844738869886973e+18
14045.0	1.984008305822924e+18
14046.0	1.9835406593818621e+18
14047.0	1.983073522968166e+18
14048.0	1.9826080357548032e+18
14049.0	1.982141644249497e+18
14050.0	1.9816751738912765e+18
14051.0	1.9812069922570235e+18
14052.0	1.9807426190508027e+18
14053.0	1.980276430549811e+18
14054.0	1.9798106279247872e+18
14055.0	1.9793443857367037e+18
14056.0	1.978879133404364e+18
14057.0	1.9784135723712512e+18
14058.0	1.9779481992429565e+18
14059.0	1.9774818362589181e+18
14060.0	1.9770057240346621e+18
14061.0	1.9765394180931581e+18
14062.0	1.9760757696626683e+18
14063.0	1.9756076568150008e+18
14064.0	1.9751394667921403e+18
14065.0	1.9746802056036347e+18
14066.0	1.974217342346854e+18
14067.0	1.973753204021657e+18
14068.0	1.9732890891845632e+18
14069.0	1.9728248267079677e+18
14070.0	1.9723612252536832e+18
14071.0	1.9718969761988605e+18
14072.0	1.9714339116154877e+18
14073.0	1.9709704544452603e+18
14074.0	1.970507141559091e+18
14075.0	1.970040194727936e+18
14076.0	1.9695808781746173e+18
14077.0	1.9691061601370112e+18
14078.0	1.9686542574354424e+18
14079.0	1.968191095544217e+18
14080.0	1.967729933497139e+18
14081.0	1.9672675215474688e+18
14082.0	1.9667945886056445e+18
14083.0	1.9663308395118587e+18
14084.0	1.96586910032855e+18
14085.0	1.965353806594048e+18
14086.0	1.964944487822131e+18
14087.0	1.9644837502386173e+18
14088.0	1.9640199390691325e+18
14089.0	1.963560602383155e+18
14090.0	1.96309939168215e+18
14091.0	1.9626384527720443e+18
14092.0	1.9621774517862397e+18
14093.0	1.961716588373606e+18
14094.0	1.961255839046041e+18
14095.0	1.9607952390356987e+18
14096.0	1.9603319311826941e+18
14097.0	1.959871410025267e+18
14098.0	1.9594125598785533e+18
14099.0	1.958951941413273e+18
14100.0	1.9584855733960701e+18
14101.0	1.9580280218058744e+18
14102.0	1.957568206969241e+18
14103.0	1.9571061389524987e+18
14104.0	1.9566493389815803e+18
14105.0	1.9561891735011325e+18
14106.0	1.9557308400926717e+18
14107.0	1.9552616283373565e+18
14108.0	1.9547985587208187e+18
14109.0	1.954341268855193e+18
14110.0	1.9538788082515965e+18
14111.0	1.9534153628254205e+18
14112.0	1.9529663021842427e+18
14113.0	1.9525083177418752e+18
14114.0	1.9520472580358141e+18
14115.0	1.9515918673510397e+18
14116.0	1.951122496212172e+18
14117.0	1.950596733494886e+18
14118.0	1.950218544847257e+18
14119.0	1.9497599866241021e+18
14120.0	1.949301490476646e+18
14121.0	1.948829545712844e+18
14122.0	1.948374913358233e+18
14123.0	1.947916700745728e+18
14124.0	1.947460076935577e+18
14125.0	1.9469117941612541e+18
14126.0	1.9465496713756664e+18
14127.0	1.9460932270817277e+18
14128.0	1.9456365982384128e+18
14129.0	1.94517822120919e+18
14130.0	1.9447213792952317e+18
14131.0	1.9442688893911037e+18
14132.0	1.9438132235599872e+18
14133.0	1.9432469707096056e+18
14134.0	1.9428990078943232e+18
14135.0	1.9424320895844347e+18
14136.0	1.9419738299957243e+18
14137.0	1.9415242073178107e+18
14138.0	1.9410680901795835e+18
14139.0	1.9406141725343741e+18
14140.0	1.9401512220360704e+18
14141.0	1.9397045219491837e+18
14142.0	1.9392399792930808e+18
14143.0	1.9387852345311224e+18
14144.0	1.9383413899263997e+18
14145.0	1.9378871971348475e+18
14146.0	1.937432740941004e+18
14147.0	1.9369789793239037e+18
14148.0	1.936525231128576e+18
14149.0	1.9360717010370555e+18
14150.0	1.9356180367278075e+18
14151.0	1.935164206324121e+18
14152.0	1.934711392619725e+18
14153.0	1.93425818297303e+18
14154.0	1.9337997103136765e+18
14155.0	1.9333332382777344e+18
14156.0	1.9328981849341947e+18
14157.0	1.932446763738726e+18
14158.0	1.9319933460545528e+18
14159.0	1.9315416027365373e+18
14160.0	1.9310889685483517e+18
14161.0	1.9306243873046525e+18
14162.0	1.9301634903375872e+18
14163.0	1.9297331362922493e+18
14164.0	1.9292766148231168e+18
14165.0	1.9287459783245821e+18
14166.0	1.9283703633018875e+18
14167.0	1.927912539920793e+18
14168.0	1.927463608464179e+18
14169.0	1.927013106660147e+18
14170.0	1.9265612861669373e+18
14171.0	1.9261106115575805e+18
14172.0	1.925660342956851e+18
14173.0	1.9251712669777915e+18
14174.0	1.9247582370856955e+18
14175.0	1.9243087083601915e+18
14176.0	1.9238583793614845e+18
14177.0	1.9234081342488573e+18
14178.0	1.922957171071385e+18
14179.0	1.922500134541721e+18
14180.0	1.9220584994963453e+18
14181.0	1.9216088348753915e+18
14182.0	1.9211591333445632e+18
14183.0	1.9207098713767928e+18
14184.0	1.9202595239231483e+18
14185.0	1.9198114128723965e+18
14186.0	1.9193430315892733e+18
14187.0	1.9189085000171515e+18
14188.0	1.9184644373086203e+18
14189.0	1.9180149404598272e+18
14190.0	1.9175672790384635e+18
14191.0	1.9171188693532664e+18
14192.0	1.916669025216102e+18
14193.0	1.916220038394675e+18
14194.0	1.9157742157561853e+18
14195.0	1.915326643254067e+18
14196.0	1.9148787922501627e+18
14197.0	1.914431125795635e+18
14198.0	1.9139825835704317e+18
14199.0	1.913534752699187e+18
14200.0	1.9130799106293755e+18
14201.0	1.912641602505932e+18
14202.0	1.912190107490713e+18
14203.0	1.9117273969065981e+18
14204.0	1.911289033418342e+18
14205.0	1.9108424155398141e+18
14206.0	1.910371962270515e+18
14207.0	1.9099499565678587e+18
14208.0	1.909503685977702e+18
14209.0	1.9090299846393853e+18
14210.0	1.9085936629383165e+18
14211.0	1.9081653070594043e+18
14212.0	1.907719415634329e+18
14213.0	1.9072736735264765e+18
14214.0	1.9068281713328125e+18
14215.0	1.906380187788902e+18
14216.0	1.9059375763095547e+18
14217.0	1.9054923677171707e+18
14218.0	1.9050447314616317e+18
14219.0	1.904602306209382e+18
14220.0	1.90415750865879e+18
14221.0	1.9037126809092093e+18
14222.0	1.9032663146889216e+18
14223.0	1.9028236830769144e+18
14224.0	1.902379392198246e+18
14225.0	1.901909984149504e+18
14226.0	1.901491080554086e+18
14227.0	1.9010471453523965e+18
14228.0	1.900544729808896e+18
14229.0	1.9001509517721597e+18
14230.0	1.8997159588265984e+18
14231.0	1.8992703995903997e+18
14232.0	1.8988291000893437e+18
14233.0	1.8983843193159677e+18
14234.0	1.897942764801228e+18
14235.0	1.8974992876175355e+18
14236.0	1.8970566090293243e+18
14237.0	1.8966138582990843e+18
14238.0	1.8961714313691133e+18
14239.0	1.8957279810289661e+18
14240.0	1.895002460389376e+18
14241.0	1.8948443519057917e+18
14242.0	1.8944017353932797e+18
14243.0	1.8939175835271165e+18
14244.0	1.8935073168424955e+18
14245.0	1.8930619740323837e+18
14246.0	1.8926170573635581e+18
14247.0	1.892182163403571e+18
14248.0	1.8917380503633917e+18
14249.0	1.8912990963171328e+18
14250.0	1.8908578505031675e+18
14251.0	1.8904173042991104e+18
14252.0	1.8899763470532603e+18
14253.0	1.8895353847742461e+18
14254.0	1.8890943268651003e+18
14255.0	1.888648168682291e+18
14256.0	1.8881904577085435e+18
14257.0	1.887773152981811e+18
14258.0	1.8873332476674043e+18
14259.0	1.8868899114123261e+18
14260.0	1.8864525344243707e+18
14261.0	1.886008842492313e+18
14262.0	1.8855794917244925e+18
14263.0	1.8851047971749883e+18
14264.0	1.8846939315437565e+18
14265.0	1.8842606616182781e+18
14266.0	1.8838217595813888e+18
14267.0	1.883382483412582e+18
14268.0	1.8829436031860733e+18
14269.0	1.8825042448089083e+18
14270.0	1.8820659719176187e+18
14271.0	1.8816259726508032e+18
14272.0	1.8811887550464e+18
14273.0	1.8807502388854781e+18
14274.0	1.8802603659886587e+18
14275.0	1.8798693629034493e+18
14276.0	1.8794265836519421e+18
14277.0	1.8789921896529917e+18
14278.0	1.8785600857440256e+18
14279.0	1.8781222809370624e+18
14280.0	1.877683237971558e+18
14281.0	1.8772473809993728e+18
14282.0	1.8768101046747133e+18
14283.0	1.8763729004920827e+18
14284.0	1.8759358020059133e+18
14285.0	1.875498824315699e+18
14286.0	1.875061806360166e+18
14287.0	1.8746252531335165e+18
14288.0	1.8741885791109115e+18
14289.0	1.8735705232506875e+18
14290.0	1.873313944253235e+18
14291.0	1.8728765773316093e+18
14292.0	1.8724324777132032e+18
14293.0	1.8719960150835197e+18
14294.0	1.8715324958375933e+18
14295.0	1.8711219321962496e+18
14296.0	1.8705416837922813e+18
14297.0	1.8702534310887421e+18
14298.0	1.8697882089553917e+18
14299.0	1.8693797642764283e+18
14300.0	1.8689456504569853e+18
14301.0	1.8685113705431037e+18
14302.0	1.8680768171606013e+18
14303.0	1.8676350428643325e+18
14304.0	1.8672051871023104e+18
14305.0	1.866772021195571e+18
14306.0	1.8663195363246077e+18
14307.0	1.8658996747501563e+18
14308.0	1.8654698122772475e+18
14309.0	1.8650348277202944e+18
14310.0	1.86451642852311e+18
14311.0	1.864154339291955e+18
14312.0	1.8637267333545981e+18
14313.0	1.8632872877359104e+18
14314.0	1.8628663104765947e+18
14315.0	1.8624332217450493e+18
14316.0	1.8619893553299453e+18
14317.0	1.861557981229875e+18
14318.0	1.8611336502050816e+18
14319.0	1.8607007628001275e+18
14320.0	1.8602678032531456e+18
14321.0	1.859835154084659e+18
14322.0	1.859393552593715e+18
14323.0	1.8589668039720955e+18
14324.0	1.8585376578863096e+18
14325.0	1.8581031934230525e+18
14326.0	1.8576732252536827e+18
14327.0	1.857239623139328e+18
14328.0	1.856807955437977e+18
14329.0	1.85637742355415e+18
14330.0	1.8559457222983677e+18
14331.0	1.8555140193648637e+18
14332.0	1.8550826536534013e+18
14333.0	1.8546513181409277e+18
14334.0	1.8542200933580797e+18
14335.0	1.8537843018170363e+18
14336.0	1.8533520670457853e+18
14337.0	1.852926942458675e+18
14338.0	1.8524958703484925e+18
14339.0	1.8520630970286075e+18
14340.0	1.8516350884380664e+18
14341.0	1.8512044273696768e+18
14342.0	1.8507743283380221e+18
14343.0	1.850340345380864e+18
14344.0	1.8499120549330936e+18
14345.0	1.8494842006929405e+18
14346.0	1.8490538416144381e+18
14347.0	1.8486134967369723e+18
14348.0	1.848184249987891e+18
14349.0	1.8477547985567741e+18
14350.0	1.847323343926067e+18
14351.0	1.8468938958503933e+18
14352.0	1.846465545004646e+18
14353.0	1.8460378199490555e+18
14354.0	1.845608383617433e+18
14355.0	1.8451792962519035e+18
14356.0	1.844750799444377e+18
14357.0	1.8443226667024384e+18
14358.0	1.8438941497622528e+18
14359.0	1.8434623428100093e+18
14360.0	1.8430372350001152e+18
14361.0	1.8426092784189437e+18
14362.0	1.8421812798947325e+18
14363.0	1.8417532343943168e+18
14364.0	1.8413181592403963e+18
14365.0	1.8408967961051133e+18
14366.0	1.8404690576277504e+18
14367.0	1.84004270662615e+18
14368.0	1.8396152399396861e+18
14369.0	1.839188095375769e+18
14370.0	1.8387609474564093e+18
14371.0	1.838333927043891e+18
14372.0	1.8379069619961853e+18
14373.0	1.8374801261330427e+18
14374.0	1.8370534865633275e+18
14375.0	1.8366269057138688e+18
14376.0	1.8362004255277053e+18
14377.0	1.835773941986099e+18
14378.0	1.8353472738951165e+18
14379.0	1.8349216728350717e+18
14380.0	1.8344955382595581e+18
14381.0	1.8340671085608952e+18
14382.0	1.8336435207667707e+18
14383.0	1.8332123916140541e+18
14384.0	1.8327879817363453e+18
14385.0	1.8323671739269117e+18
14386.0	1.8319386032996352e+18
14387.0	1.8315164952559616e+18
14388.0	1.8310909092954107e+18
14389.0	1.8306662980911104e+18
14390.0	1.8302410107650043e+18
14391.0	1.829816433115136e+18
14392.0	1.8293895989297147e+18
14393.0	1.8289673902227453e+18
14394.0	1.8285350195560443e+18
14395.0	1.8281147704279037e+18
14396.0	1.8276942025326587e+18
14397.0	1.8272701432987643e+18
14398.0	1.82684450029568e+18
14399.0	1.826422110394777e+18
14400.0	1.8259938786672637e+18
14401.0	1.8255733694922752e+18
14402.0	1.825150835307315e+18
14403.0	1.8233933061685217e+18
14404.0	1.820818741710028e+18
14405.0	1.8236098564063217e+18
14406.0	1.823457606526566e+18
14407.0	1.8210582113026053e+18
14408.0	1.8226073992953853e+18
14409.0	1.8221850395934717e+18
14410.0	1.8217651947962365e+18
14411.0	1.8213354547970043e+18
14412.0	1.820907791817113e+18
14413.0	1.8204814810808315e+18
14414.0	1.8200586180624384e+18
14415.0	1.8196366626914296e+18
14416.0	1.819214455662182e+18
14417.0	1.8187886146879488e+18
14418.0	1.8183617855356925e+18
14419.0	1.8179488110084093e+18
14420.0	1.817526421107507e+18
14421.0	1.8171057273831424e+18
14422.0	1.8166843290157056e+18
14423.0	1.8162616035704827e+18
14424.0	1.8078309166350277e+18
14425.0	1.8154192480763904e+18
14426.0	1.814999636482457e+18
14427.0	1.8145787917631485e+18
14428.0	1.8141519374450685e+18
14429.0	1.8137365553872893e+18
14430.0	1.8133167089123323e+18
14431.0	1.8128846419132416e+18
14432.0	1.8124693085093888e+18
14433.0	1.8105773552828406e+18
14434.0	1.8116327260553208e+18
14435.0	1.8112118108717056e+18
14436.0	1.8107952745414653e+18
14437.0	1.8103753760571387e+18
14438.0	1.8099130882588664e+18
14439.0	1.8095257946161147e+18
14440.0	1.8091161839206397e+18
14441.0	1.8086957351436285e+18
14442.0	1.80827534173143e+18
14443.0	1.8078483934609405e+18
14444.0	1.807438192207462e+18
14445.0	1.8070199882219517e+18
14446.0	1.805012164830823e+18
14447.0	1.8061790990565376e+18
14448.0	1.8057636381458427e+18
14449.0	1.8053450214408187e+18
14450.0	1.8049251816767485e+18
14451.0	1.804507801452544e+18
14452.0	1.8040887619616768e+18
14453.0	1.8036425769353208e+18
14454.0	1.8032533253914624e+18
14455.0	1.8028344033411064e+18
14456.0	1.8024112752427005e+18
14457.0	1.8019901872537597e+18
14458.0	1.8015798366830587e+18
14459.0	1.8011603274301437e+18
14460.0	1.8007464536440827e+18
14461.0	1.8003250837979133e+18
14462.0	1.799900093428531e+18
14463.0	1.7994938113327104e+18
14464.0	1.7990777313427453e+18
14465.0	1.7986567020740605e+18
14466.0	1.7982437527126016e+18
14467.0	1.797804885907865e+18
14468.0	1.7974082507112443e+18
14469.0	1.7969896742715387e+18
14470.0	1.7965710709882875e+18
14471.0	1.7961568616579072e+18
14472.0	1.7957418889641981e+18
14473.0	1.7953284262199293e+18
14474.0	1.794912322741862e+18
14475.0	1.7944949475508221e+18
14476.0	1.7939844269342717e+18
14477.0	1.7936644199940093e+18
14478.0	1.7932483181936635e+18
14479.0	1.7928322835021824e+18
14480.0	1.792413943621222e+18
14481.0	1.7920021703426048e+18
14482.0	1.791586118873907e+18
14483.0	1.791169241966182e+18
14484.0	1.790754940361113e+18
14485.0	1.7903325034840061e+18
14486.0	1.789864556730777e+18
14487.0	1.7895113527132155e+18
14488.0	1.7890927611740155e+18
14489.0	1.7886709131771907e+18
14490.0	1.788255724057395e+18
14491.0	1.7878425498812413e+18
14492.0	1.787428464702259e+18
14493.0	1.7870138929840125e+18
14494.0	1.7865954440511485e+18
14495.0	1.7861857024933888e+18
14496.0	1.7857434081034237e+18
14497.0	1.7853576311209981e+18
14498.0	1.784943493932646e+18
14499.0	1.784530162050662e+18
14500.0	1.784116398994227e+18
14501.0	1.7836580790075387e+18
14502.0	1.7832062165712893e+18
14503.0	1.7828715161452541e+18
14504.0	1.7824614541426685e+18
14505.0	1.782007385502515e+18
14506.0	1.781540390017433e+18
14507.0	1.7811725361348608e+18
14508.0	1.7808102355107837e+18
14509.0	1.78039735493591e+18
14510.0	1.7799845532139515e+18
14511.0	1.7795721222684672e+18
14512.0	1.7791560036909053e+18
14513.0	1.7787468795346941e+18
14514.0	1.7783213338394621e+18
14515.0	1.7779211670388733e+18
14516.0	1.7770633983164419e+18
14517.0	1.7770975181406205e+18
14518.0	1.7766853891850237e+18
14519.0	1.7762734145798141e+18
14520.0	1.7758614735290365e+18
14521.0	1.7754488211243005e+18
14522.0	1.7750377759768576e+18
14523.0	1.7745282636709885e+18
14524.0	1.774109396985446e+18
14525.0	1.773801764919705e+18
14526.0	1.7733914848133117e+18
14527.0	1.7729733177376763e+18
14528.0	1.7725413581127677e+18
14529.0	1.7721553479270397e+18
14530.0	1.7717430881091581e+18
14531.0	1.7713338314129405e+18
14532.0	1.7707700045479933e+18
14533.0	1.7705104626941947e+18
14534.0	1.7701000399814653e+18
14535.0	1.7696866946777085e+18
14536.0	1.769278523467366e+18
14537.0	1.7688653811679227e+18
14538.0	1.768457332431257e+18
14539.0	1.7680471513104381e+18
14540.0	1.767636788995686e+18
14541.0	1.767221963941478e+18
14542.0	1.7668163076358141e+18
14543.0	1.7663412506984443e+18
14544.0	1.7659962238959608e+18
14545.0	1.7655852810895352e+18
14546.0	1.7561768012283848e+18
14547.0	1.7567814135054264e+18
14548.0	1.764354054894387e+18
14549.0	1.7639222311649272e+18
14550.0	1.7635362511781885e+18
14551.0	1.7631281202331648e+18
14552.0	1.7627176505442304e+18
14553.0	1.7623070348935163e+18
14554.0	1.7618999357472765e+18
14555.0	1.76149035525079e+18
14556.0	1.7610787631661053e+18
14557.0	1.7606723233644541e+18
14558.0	1.7602631992082427e+18
14559.0	1.7595243692031987e+18
14560.0	1.7594419695845376e+18
14561.0	1.759035071764889e+18
14562.0	1.7586224529145853e+18
14563.0	1.7582188484624381e+18
14564.0	1.7578089374547965e+18
14565.0	1.757401546384998e+18
14566.0	1.7569929607774203e+18
14567.0	1.7565843734921213e+18
14568.0	1.7561726136352765e+18
14569.0	1.7557674958782461e+18
14570.0	1.755266793288499e+18
14571.0	1.7549501199810557e+18
14572.0	1.754533912484249e+18
14573.0	1.7541246373330941e+18
14574.0	1.753722742479257e+18
14575.0	1.753317775717171e+18
14576.0	1.7529097135587323e+18
14577.0	1.7525006028242944e+18
14578.0	1.752093750303129e+18
14579.0	1.751679396688691e+18
14580.0	1.7512688884121597e+18
14581.0	1.75085796238295e+18
14582.0	1.750453270767206e+18
14583.0	1.750045572674355e+18
14584.0	1.7496357841403904e+18
14585.0	1.7492217375490048e+18
14586.0	1.7488064544768e+18
14587.0	1.7483975954006016e+18
14588.0	1.747992913851187e+18
14589.0	1.747599427738009e+18
14590.0	1.747201567804621e+18
14591.0	1.7468106502832125e+18
14592.0	1.7464196908187648e+18
14593.0	1.7460047298691072e+18
14594.0	1.7456382701731835e+18
14595.0	1.745246137981337e+18
14596.0	1.744843956237107e+18
14597.0	1.744459462711705e+18
14598.0	1.7440748265799677e+18
14599.0	1.7436848200613885e+18
14600.0	1.7432939495161856e+18
14601.0	1.7429033742499837e+18
14602.0	1.742510215292518e+18
14603.0	1.7421215022972925e+18
14604.0	1.7417221324144637e+18
14605.0	1.741338519692902e+18
14606.0	1.7409361181671421e+18
14607.0	1.7405578540220413e+18
14608.0	1.7401673173434365e+18
14609.0	1.7397680179249144e+18
14610.0	1.7393833213951995e+18
14611.0	1.7389949389111296e+18
14612.0	1.738605080032051e+18
14613.0	1.7382144242352128e+18
14614.0	1.737822896023142e+18
14615.0	1.7374323341787133e+18
14616.0	1.7370420709687293e+18
14617.0	1.7366512138452987e+18
14618.0	1.736259214193459e+18
14619.0	1.7358660317478907e+18
14620.0	1.7354617528516605e+18
14621.0	1.7350879212470272e+18
14622.0	1.734697018825113e+18
14623.0	1.7343060962705403e+18
14624.0	1.733902787097395e+18
14625.0	1.7335241169436664e+18
14626.0	1.7331304982904827e+18
14627.0	1.7327362068709376e+18
14628.0	1.7323509717925888e+18
14629.0	1.7319598462337021e+18
14630.0	1.7315684874715133e+18
14631.0	1.7311767646437376e+18
14632.0	1.730136731602125e+18
14633.0	1.7303280925278203e+18
14634.0	1.7300022437609467e+18
14635.0	1.7295925475016696e+18
14636.0	1.729158034384486e+18
14637.0	1.7288295801159675e+18
14638.0	1.7284376559615997e+18
14639.0	1.7280443292319741e+18
14640.0	1.7276537438994427e+18
14641.0	1.7247668984086505e+18
14642.0	1.7268699341783035e+18
14643.0	1.7264790585999357e+18
14644.0	1.7260846346403837e+18
14645.0	1.7256901100175357e+18
14646.0	1.7253006940569597e+18
14647.0	1.7249079192977403e+18
14648.0	1.7245179798880253e+18
