# Flux units: erg / (cm m2 s)
# Wavelength units: Angstrom
wave	flux
9000.0	199241018367999.97
9010.0	201154062335999.94
9020.0	203081719807999.97
9030.0	205024639999999.97
9040.0	206978847743999.97
9050.0	208944409599999.97
9060.0	210925491199999.97
9070.0	212918088703999.97
9080.0	214923107327999.97
9090.0	216942488575999.94
9100.0	218983582719999.97
9110.0	221037495295999.94
9120.0	223105136639999.97
9130.0	225174723583999.97
9140.0	227274119167999.94
9150.0	229382645759999.97
9160.0	231500816383999.97
9170.0	233633504255999.94
9180.0	235785516031999.97
9190.0	237944738815999.94
9200.0	240118760447999.94
9210.0	242307301375999.94
9220.0	244511642623999.97
9230.0	246549532671999.97
9240.0	248955628543999.97
9250.0	251197915135999.94
9260.0	253449532415999.94
9270.0	255716572159999.97
9280.0	257966320639999.94
9290.0	260247531519999.94
9300.0	262599220223999.97
9310.0	264902662143999.97
9320.0	267257758719999.94
9330.0	269602624511999.97
9340.0	271915541503999.97
9350.0	274294988799999.94
9360.0	276738408447999.94
9370.0	279124031487999.94
9380.0	281605372927999.94
9390.0	284038555647999.94
9400.0	286493513727999.94
9410.0	288953365503999.94
9420.0	291441786879999.94
9430.0	293940156415999.94
9440.0	296446377983999.94
9450.0	298958246911999.94
9460.0	301502380031999.94
9470.0	304015941631999.94
9480.0	306550914047999.94
9490.0	309205066751999.94
9500.0	311737068543999.94
9510.0	314397835263999.94
9520.0	317011933183999.94
9530.0	319637853183999.94
9540.0	322320072703999.94
9550.0	324974515199999.94
9560.0	327585144831999.94
9570.0	330333896703999.94
9580.0	333063958527999.94
9590.0	335784847359999.94
9600.0	338492605439999.94
9610.0	341263415295999.94
9620.0	343971707903999.94
9630.0	346807175167999.94
9640.0	349589311487999.94
9650.0	352421974015999.94
9660.0	355256244223999.94
9670.0	358071089151999.9
9680.0	360955584511999.9
9690.0	363826280447999.94
9700.0	366711508991999.9
9710.0	369598515199999.94
9720.0	372512442367999.94
9730.0	375445135359999.94
9740.0	378384857087999.94
9750.0	381356675071999.9
9760.0	384309485567999.94
9770.0	387314700287999.94
9780.0	390327535615999.94
9790.0	393332678655999.94
9800.0	396373334015999.94
9810.0	399425288191999.9
9820.0	402484881407999.94
9830.0	405557168127999.94
9840.0	408649078783999.94
9850.0	411764285439999.94
9860.0	414881509375999.94
9870.0	418017167359999.94
9880.0	421156980735999.94
9890.0	424342605823999.94
9900.0	427517736959999.94
9910.0	430711502847999.94
9920.0	433910802431999.9
9930.0	437153656831999.9
9940.0	440390488063999.94
9950.0	443663286271999.9
9960.0	446932135935999.9
9970.0	450225911807999.94
9980.0	453524137983999.94
9990.0	456836200447999.94
10000.0	460176177151999.9
10010.0	463524299775999.9
10020.0	466885052415999.9
10030.0	470263122943999.94
10040.0	473642219519999.94
10050.0	477053075455999.9
10060.0	480460131327999.94
10070.0	483901768703999.94
10080.0	487355920383999.94
10090.0	490818996223999.94
10100.0	494305444863999.94
10110.0	497796015103999.94
10120.0	501302524927999.94
10130.0	504828335103999.94
10140.0	508362375167999.94
10150.0	511920370687999.94
10160.0	515487527935999.9
10170.0	519073557503999.94
10180.0	522673964031999.9
10190.0	526288819199999.9
10200.0	529918742527999.94
10210.0	533571452927999.94
10220.0	537219877887999.94
10230.0	540903247871999.9
10240.0	544596136959999.9
10250.0	548303571967999.94
10260.0	552012364799999.9
10270.0	555754345471999.9
10280.0	559502179327999.94
10290.0	563271241727999.9
10300.0	567051532287999.9
10310.0	570854900735999.9
10320.0	574660286463999.9
10330.0	578491842559999.9
10340.0	582318400511999.9
10350.0	586164236287999.9
10360.0	590029947903999.9
10370.0	593910104063999.9
10380.0	597793773567999.9
10390.0	601693395967999.9
10400.0	605628041215999.9
10410.0	609567783935999.9
10420.0	613506607103999.9
10430.0	617460448255999.9
10440.0	621462794239999.9
10450.0	625472520191999.9
10460.0	629487618047999.9
10470.0	633478793215999.9
10480.0	637529051135999.9
10490.0	641600807935999.9
10500.0	645671738367999.9
10510.0	649752452095999.9
10520.0	653842186239999.9
10530.0	657976753151999.9
10540.0	662125780991999.9
10550.0	666268311551999.9
10560.0	670429896703999.9
10570.0	674592872447999.9
10580.0	678804463615999.9
10590.0	683019992063999.9
10600.0	687249614847999.9
10610.0	691496488959999.9
10620.0	695733434367999.9
10630.0	700026353663999.8
10640.0	704326602751999.9
10650.0	708595234815999.9
10660.0	712908394495999.9
10670.0	717241561087999.9
10680.0	721599760383999.8
10690.0	725964998655999.9
10700.0	730346817535999.9
10710.0	734717304831999.9
10720.0	739146950655999.9
10730.0	743577380863999.8
10740.0	747984533503999.8
10750.0	752451319807999.9
10760.0	756904966143999.8
10770.0	761417254911999.9
10780.0	765945757695999.9
10790.0	770435702783999.8
10800.0	774969278463999.8
10810.0	779476158463999.8
10820.0	784038969343999.8
10830.0	788633239551999.9
10840.0	793261115391999.9
10850.0	797824460799999.9
10860.0	802425253887999.9
10870.0	807051630591999.9
10880.0	811749795839999.9
10890.0	816318042111999.9
10900.0	821042761727999.9
10910.0	825709170687999.9
10920.0	830437228543999.8
10930.0	835130855423999.8
10940.0	839827466239999.9
10950.0	844600834047999.9
10960.0	849273729023999.8
10970.0	854125826047999.9
10980.0	858858985471999.9
10990.0	863649515519999.9
11000.0	868434386943999.8
11010.0	873245276159999.9
11020.0	878193887231999.8
11030.0	882918266879999.9
11040.0	887902373887999.9
11050.0	892732899327999.9
11060.0	897479481343999.8
11070.0	902603339775999.9
11080.0	907477729279999.9
11090.0	912430743551999.8
11100.0	917468717055999.9
11110.0	921979265023999.8
11120.0	927265742847999.9
11130.0	932329332735999.9
11140.0	937345714175999.9
11150.0	942070026239999.9
11160.0	947711105023999.8
11170.0	952407152639999.9
11180.0	957846816767999.9
11190.0	962631313407999.9
11200.0	967717373951999.8
11210.0	973074112511999.8
11220.0	977934264319999.9
11230.0	983642390527999.9
11240.0	988768038911999.8
11250.0	993853134847999.9
11260.0	999204018175999.9
11270.0	1004589010943999.8
11280.0	1009854830591999.8
11290.0	1015138301951999.8
11300.0	1020085817343999.8
11310.0	1025502543871999.8
11320.0	1030752604159999.9
11330.0	1036183388159999.8
11340.0	1040792911871999.8
11350.0	1045743046655999.9
11360.0	1052004790271999.8
11370.0	1057476351999999.8
11380.0	1062651527167999.9
11390.0	1068231254015999.9
11400.0	1073762832383999.8
11410.0	1078859091967999.9
11420.0	1084633528319999.8
11430.0	1089947815935999.9
11440.0	1095177074687999.9
11450.0	1101121507327999.9
11460.0	1106807932927999.9
11470.0	1112200382463999.8
11480.0	1117574922239999.8
11490.0	1123580549119999.8
11500.0	1128901421055999.8
11510.0	1134470457343999.8
11520.0	1140294092799999.8
11530.0	1145720518655999.8
11540.0	1150838474751999.8
11550.0	1157231970303999.8
11560.0	1162710112255999.8
11570.0	1168301531135999.8
11580.0	1174115360767999.8
11590.0	1179611179007999.8
11600.0	1184811591679999.8
11610.0	1190875576319999.8
11620.0	1196787021823999.8
11630.0	1202780874751999.8
11640.0	1207769102335999.8
11650.0	1214326540287999.8
11660.0	1218986784767999.8
11670.0	1225647747071999.8
11680.0	1230960185343999.8
11690.0	1235166044159999.8
11700.0	1242674075647999.8
11710.0	1248851857407999.8
11720.0	1254854592511999.8
11730.0	1260243458047999.8
11740.0	1266528043007999.8
11750.0	1272474171391999.8
11760.0	1278015051775999.8
11770.0	1283474626559999.8
11780.0	1287011467263999.8
11790.0	1295934212095999.8
11800.0	1302264981503999.8
11810.0	1308338886655999.8
11820.0	1314142750719999.8
11830.0	1320646651903999.8
11840.0	1326571632639999.8
11850.0	1332552052735999.8
11860.0	1338729676799999.8
11870.0	1345037512703999.8
11880.0	1350971963391999.8
11890.0	1356916430847999.8
11900.0	1363433607167999.8
11910.0	1369591476223999.8
11920.0	1375934210047999.8
11930.0	1382122586111999.8
11940.0	1387875086335999.8
11950.0	1394222399487999.5
11960.0	1400475070463999.8
11970.0	1406286528511999.8
11980.0	1412322058239999.8
11990.0	1418777026559999.8
12000.0	1425214177279999.8
12010.0	1431654821887999.5
12020.0	1437814796287999.5
12030.0	1444139659263999.8
12040.0	1450953547775999.8
12050.0	1457030778879999.8
12060.0	1464352010239999.8
12070.0	1469690392575999.8
12080.0	1476608757759999.8
12090.0	1482293682175999.8
12100.0	1489442533375999.8
12110.0	1495260065791999.8
12120.0	1501838639103999.8
12130.0	1508440203263999.8
12140.0	1515305533439999.8
12150.0	1521926696959999.8
12160.0	1528068304895999.8
12170.0	1534546669567999.5
12180.0	1541181120511999.8
12190.0	1548277592063999.8
12200.0	1554088427519999.8
12210.0	1560546484223999.8
12220.0	1567292018687999.5
12230.0	1573692796927999.5
12240.0	1580626477055999.8
12250.0	1587518550015999.8
12260.0	1594158997503999.8
12270.0	1600895823871999.8
12280.0	1607823355903999.8
12290.0	1614086316031999.8
12300.0	1620942655487999.5
12310.0	1627721388031999.8
12320.0	1633991442431999.8
12330.0	1640649080831999.8
12340.0	1647535599615999.8
12350.0	1654097743871999.8
12360.0	1660905033727999.5
12370.0	1667756646399999.8
12380.0	1674400866303999.8
12390.0	1680953085951999.8
12400.0	1687756451839999.8
12410.0	1693397782527999.5
12420.0	1700192129023999.8
12430.0	1705943183359999.8
12440.0	1711751774207999.5
12450.0	1721211047935999.8
12460.0	1728377217023999.5
12470.0	1735381540863999.5
12480.0	1742557138943999.5
12490.0	1749253992447999.5
12500.0	1754940944383999.5
12510.0	1762317590527999.5
12520.0	1767052869631999.8
12530.0	1772159352831999.8
12540.0	1783099326463999.5
12550.0	1790381035519999.8
12560.0	1797914980351999.8
12570.0	1805933703167999.5
12580.0	1812183601151999.8
12590.0	1819916906495999.8
12600.0	1826969972735999.8
12610.0	1834457632767999.5
12620.0	1840251887615999.8
12630.0	1848976207871999.8
12640.0	1854252830719999.8
12650.0	1862594613247999.5
12660.0	1869386313727999.5
12670.0	1877929209855999.8
12680.0	1884502593535999.8
12690.0	1892574072831999.8
12700.0	1898883411967999.5
12710.0	1907141869567999.5
12720.0	1914525569023999.5
12730.0	1921899974655999.8
12740.0	1927585329151999.8
12750.0	1934371082239999.8
12760.0	1943581569023999.5
12770.0	1950217420799999.8
12780.0	1957473505279999.8
12790.0	1965792325631999.8
12800.0	1971846512639999.8
12810.0	1979701669887999.5
12820.0	1987130404863999.5
12830.0	1994007900159999.8
12840.0	2001893212159999.8
12850.0	2008649474047999.5
12860.0	2014506594303999.5
12870.0	2023021985791999.8
12880.0	2030161842175999.8
12890.0	2037392322559999.8
12900.0	2046151585791999.8
12910.0	2053331394559999.8
12920.0	2060017278975999.8
12930.0	2065162625023999.5
12940.0	2076372553727999.5
12950.0	2082002231295999.8
12960.0	2091884814335999.8
12970.0	2098434670591999.8
12980.0	2107678998527999.5
12990.0	2113053708287999.5
13000.0	2122340487167999.5
13010.0	2127915552767999.5
13020.0	2136205418495999.8
13030.0	2144160825343999.5
13040.0	2152301678591999.8
13050.0	2158487703551999.8
13060.0	2169275437055999.8
13070.0	2170826604543999.5
13080.0	2184093937663999.5
13090.0	2188389146623999.5
13100.0	2196466642943999.5
13110.0	2206631362559999.5
13120.0	2215012311039999.5
13130.0	2220898107391999.8
13140.0	2228649959423999.5
13150.0	2237081554943999.5
13160.0	2244118519807999.5
13170.0	2251737927679999.5
13180.0	2258746695679999.5
13190.0	2269182873599999.5
13200.0	2273057435647999.5
13210.0	2282589036543999.5
13220.0	2289992011775999.5
13230.0	2297337237503999.5
13240.0	2302707650559999.5
13250.0	2308965294079999.5
13260.0	2320392228863999.5
13270.0	2323302211583999.5
13280.0	2333225897983999.5
13290.0	2340498055167999.5
13300.0	2345330323455999.5
13310.0	2350910222335999.5
13320.0	2349187416063999.5
13330.0	2360276713471999.5
13340.0	2369726935039999.5
13350.0	2362295504895999.5
13360.0	2372949192703999.5
13370.0	2370078081023999.5
13380.0	2379393806335999.5
13390.0	2390699560959999.5
13400.0	2396114579455999.5
13410.0	2416426717183999.5
13420.0	2398992470015999.5
13430.0	2413468020735999.5
13440.0	2432656502783999.5
13450.0	2425559035903999.5
13460.0	2445304233983999.5
13470.0	2441913585663999.5
13480.0	2432365981695999.5
13490.0	2461321490431999.5
13500.0	2462827835391999.5
13510.0	2481528414207999.5
13520.0	2482422525951999.5
13530.0	2495079997439999.5
13540.0	2483680911359999.5
13550.0	2480196333567999.5
13560.0	2512746573823999.5
13570.0	2520330059775999.5
13580.0	2532232028159999.5
13590.0	2534555377663999.5
13600.0	2543567536127999.5
13610.0	2559056261119999.5
13620.0	2546939572223999.5
13630.0	2583967252479999.5
13640.0	2590555873279999.5
13650.0	2592035700735999.5
13660.0	2611832332287999.5
13670.0	2615376084991999.5
13680.0	2615249829887999.5
13690.0	2617139892223999.5
13700.0	2635307655167999.5
13710.0	2638134566911999.5
13720.0	2652807995391999.5
13730.0	2663192584191999.5
13740.0	2669288243199999.5
13750.0	2678848147455999.5
13760.0	2691075801087999.5
13770.0	2695524773887999.5
13780.0	2710133587967999.5
13790.0	2713071763455999.5
13800.0	2727888605183999.5
13810.0	2720490184703999.5
13820.0	2734514192383999.5
13830.0	2717012467711999.5
13840.0	2757886332927999.5
13850.0	2742442491903999.5
13860.0	2749826621439999.5
13870.0	2780628959231999.5
13880.0	2774571106303999.5
13890.0	2785822900223999.5
13900.0	2793305522175999.0
13910.0	2797140942847999.5
13920.0	2800570982399999.5
13930.0	2820946051071999.5
13940.0	2817421647871999.5
13950.0	2819297738751999.5
13960.0	2835980574719999.5
13970.0	2849602478079999.5
13980.0	2856478359551999.5
13990.0	2874419298303999.5
14000.0	2863716245503999.5
14010.0	2874432102399999.5
14020.0	2900556292095999.0
14030.0	2905764290559999.5
14040.0	2899798015999999.5
14050.0	2899192242175999.0
14060.0	2946048958463999.5
14070.0	2929509892095999.0
14080.0	2940046614527999.5
14090.0	2931015688191999.5
14100.0	2950489849855999.0
14110.0	2962367250431999.5
14120.0	2943232065535999.0
14130.0	2987677499391999.5
14140.0	2969126690815999.0
14150.0	2990026219519999.5
14160.0	3015266254847999.5
14170.0	3004983189503999.5
14180.0	3004896239615999.0
14190.0	3001214468095999.0
14200.0	3029213339647999.5
14210.0	3042859646975999.0
14220.0	3057272479743999.5
14230.0	3052716539903999.5
14240.0	3047275569151999.5
14250.0	3082246922239999.5
14260.0	3077449818111999.5
14270.0	3102930231295999.0
14280.0	3098193739775999.0
14290.0	3083494621183999.5
14300.0	3137513488383999.5
14310.0	3140574207999999.5
14320.0	3130176487423999.5
14330.0	3149796663295999.0
14340.0	3100850683903999.5
14350.0	3169188995071999.5
14360.0	3185949335551999.5
14370.0	3185471324159999.5
14380.0	3192000987135999.0
14390.0	3191561699327999.5
14400.0	3187512164351999.5
14410.0	3210160570367999.5
14420.0	3222979272703999.5
14430.0	3246107615231999.5
14440.0	3241994977279999.5
14450.0	3226139353087999.5
14460.0	3270204260351999.5
14470.0	3265407377407999.5
14480.0	3288544690175999.0
14490.0	3299112927231999.5
14500.0	3292195880959999.5
14510.0	3282273878015999.0
14520.0	3339751170047999.5
14530.0	3338184409087999.5
14540.0	3327057420287999.5
14550.0	3353732423679999.5
14560.0	3343076532223999.5
14570.0	3327485722623999.5
14580.0	3381325414399999.5
14590.0	3396573233151999.5
14600.0	3403687837695999.0
14610.0	3407672229887999.5
14620.0	3397557026815999.0
14630.0	3393074741247999.5
14640.0	3434905583615999.0
14650.0	3441556398079999.5
14660.0	3456480018431999.5
14670.0	3468419948543999.5
14680.0	3451282620415999.0
14690.0	3457311129599999.5
14700.0	3479567376383999.5
14710.0	3489086308351999.5
14720.0	3506151260159999.5
14730.0	3523410501631999.5
14740.0	3511877459967999.0
14750.0	3519174426623999.5
14760.0	3532768714751999.5
14770.0	3545579921407999.0
14780.0	3558463586303999.5
14790.0	3579091615743999.5
14800.0	3561868959743999.5
14810.0	3586319024127999.0
14820.0	3578089717759999.5
14830.0	3600678707199999.5
14840.0	3620824137727999.0
14850.0	3619865886719999.5
14860.0	3629343047679999.5
14870.0	3642472087551999.5
14880.0	3640608710655999.0
14890.0	3656582422527999.0
14900.0	3658006781951999.5
14910.0	3685877694463999.5
14920.0	3691106074623999.5
14930.0	3701446426623999.5
14940.0	3698492063743999.5
14950.0	3710289739775999.0
14960.0	3721036070911999.5
14970.0	3732595138559999.5
14980.0	3745418518527999.0
14990.0	3758982914047999.0
15000.0	3767982678015999.0
15010.0	3772575719423999.5
15020.0	3762261164031999.5
15030.0	3805772881919999.5
15040.0	3800485502975999.0
15050.0	3820274163711999.5
15060.0	3825475190783999.5
15070.0	3836784754687999.0
15080.0	3836091441151999.5
15090.0	3856178282495999.0
15100.0	3857657257983999.5
15110.0	3866204225535999.0
15120.0	3888358957055999.0
15130.0	3885498654719999.5
15140.0	3896229093375999.0
15150.0	3928375017471999.5
15160.0	3923701219327999.0
15170.0	3917034332159999.5
15180.0	3932801179647999.0
15190.0	3950951628799999.5
15200.0	3960596504575999.0
15210.0	3981176078335999.0
15220.0	3981333667839999.5
15230.0	3996533915647999.0
15240.0	4010939441151999.5
15250.0	4003333619711999.5
15260.0	4015481241599999.5
15270.0	4031229829119999.5
15280.0	4041389654015999.0
15290.0	4052380475391999.5
15300.0	4072217681919999.5
15310.0	4077388357631999.5
15320.0	4066071625727999.0
15330.0	4086761775103999.5
15340.0	4121739329535999.0
15350.0	4114241937407999.0
15360.0	4130563391487999.0
15370.0	4133372977151999.5
15380.0	4142505541631999.5
15390.0	4172310036479999.0
15400.0	4164002062335999.0
15410.0	4169893085183999.5
15420.0	4190082867199999.0
15430.0	4195787653119999.0
15440.0	4197878775807999.0
15450.0	4225378107391999.5
15460.0	4246579159039999.0
15470.0	4239674425343999.5
15480.0	4248046624767999.0
15490.0	4261988597759999.0
15500.0	4275765420031999.5
15510.0	4272186769407999.0
15520.0	4297320259583999.5
15530.0	4309536251903999.5
15540.0	4319456124927999.0
15550.0	4327037091839999.0
15560.0	4331688435711999.5
15570.0	4343489503231999.5
15580.0	4340106944511999.5
15590.0	4363286110207999.0
15600.0	4376907096063999.5
15610.0	4384930971647999.0
15620.0	4403573374975999.0
15630.0	4410340835327999.0
15640.0	4422751420415999.0
15650.0	4421426339839999.0
15660.0	4428154363903999.5
15670.0	4465408016383999.5
15680.0	4479554150399999.0
15690.0	4471856332799999.0
15700.0	4484420771839999.0
15710.0	4499534045183999.5
15720.0	4509588930559999.0
15730.0	4520329060351999.0
15740.0	4538837983231999.0
15750.0	4545338392575999.0
15760.0	4557323755519999.0
15770.0	4569285148671999.0
15780.0	4566633062399999.0
15790.0	4585445941247999.0
15800.0	4596008755199999.0
15810.0	4604268027903999.0
15820.0	4618080649215999.0
15830.0	4637701505023999.0
15840.0	4634136502271999.0
15850.0	4651262066687999.0
15860.0	4671618465791999.0
15870.0	4676458545151999.0
15880.0	4695244816383999.0
15890.0	4705031487487999.0
15900.0	4704135979007999.0
15910.0	4726892929023999.0
15920.0	4732491145215999.0
15930.0	4741082202111999.0
15940.0	4756330561535999.0
15950.0	4768928694271999.0
15960.0	4787588014079999.0
15970.0	4795318943743999.0
15980.0	4794562215935999.0
15990.0	4807931338751999.0
16000.0	4823382720511999.0
16010.0	4837402066943999.0
16020.0	4836775788543999.0
16030.0	4864031621119999.0
16040.0	4866171486207999.0
16050.0	4876487819263999.0
16060.0	4884917329919999.0
16070.0	4901012086783999.0
16080.0	4918356328447999.0
16090.0	4921022472191999.0
16100.0	4934933495807999.0
16110.0	4940858302463999.0
16120.0	4954897498111999.0
16130.0	4972535463935999.0
16140.0	4978935177215999.0
16150.0	4985357246463999.0
16160.0	5011901349887999.0
16170.0	5034354704383999.0
16180.0	5042870525951999.0
16190.0	5027545726975999.0
16200.0	5043448348671999.0
16210.0	5045894250495999.0
16220.0	5078029582335999.0
16230.0	5087122407423999.0
16240.0	5103207563263999.0
16250.0	5109753954303999.0
16260.0	5122626256895999.0
16270.0	5139036561407999.0
16280.0	5146966564863999.0
16290.0	5145316999167999.0
16300.0	5174786047999999.0
16310.0	5173641347071999.0
16320.0	5188887683071999.0
16330.0	5213083254783999.0
16340.0	5221423603711999.0
16350.0	5234159828991999.0
16360.0	5247264292863999.0
16370.0	5255065174015999.0
16380.0	5264256835583999.0
16390.0	5275754700799999.0
16400.0	5285717286911999.0
16410.0	5301908291583999.0
16420.0	5295136440319999.0
16430.0	5316296065023999.0
16440.0	5331409027071999.0
16450.0	5357987610623999.0
