# Flux units: erg / (cm m2 s)
# Wavelength units: Angstrom
wave	flux
9000.0	282940439551999.94
9010.0	285696605183999.94
9020.0	288287931391999.94
9030.0	290687720447999.94
9040.0	293390793727999.94
9050.0	296501832703999.94
9060.0	298998207487999.94
9070.0	301667297279999.94
9080.0	305735475199999.94
9090.0	307843849215999.94
9100.0	310234936319999.94
9110.0	313250748415999.94
9120.0	316983415807999.94
9130.0	319495876607999.94
9140.0	321932072959999.94
9150.0	325588853759999.94
9160.0	329019378687999.94
9170.0	331912504319999.94
9180.0	334245144575999.94
9190.0	338565611519999.94
9200.0	340488431615999.94
9210.0	342030591999999.94
9220.0	344247029759999.94
9230.0	346601390079999.94
9240.0	349994133503999.94
9250.0	353055531007999.94
9260.0	356061216767999.94
9270.0	359091974143999.94
9280.0	361666107391999.9
9290.0	364720723967999.94
9300.0	368103845887999.94
9310.0	371026538495999.94
9320.0	374393860095999.94
9330.0	377349599231999.9
9340.0	380466169855999.94
9350.0	383295045631999.9
9360.0	387010334719999.94
9370.0	390000611327999.94
9380.0	393946095615999.94
9390.0	396950650879999.94
9400.0	400488497151999.9
9410.0	403687653375999.94
9420.0	407736647679999.94
9430.0	410876499967999.94
9440.0	413880924159999.94
9450.0	417201475583999.94
9460.0	421121937407999.94
9470.0	423740854271999.9
9480.0	427985973247999.94
9490.0	432769695743999.94
9500.0	434242181119999.94
9510.0	438258718719999.94
9520.0	442539948031999.9
9530.0	445854107647999.94
9540.0	450824747007999.94
9550.0	453328510975999.9
9560.0	456681289727999.94
9570.0	460667123711999.9
9580.0	466846838783999.94
9590.0	469848551423999.94
9600.0	471839068159999.94
9610.0	477263853567999.94
9620.0	478947364863999.94
9630.0	486188675071999.9
9640.0	486827546623999.94
9650.0	492411127807999.94
9660.0	498048729087999.94
9670.0	502019416063999.94
9680.0	506066753535999.9
9690.0	509994149887999.94
9700.0	514922498047999.94
9710.0	516387086335999.9
9720.0	522086135807999.94
9730.0	522677209087999.94
9740.0	526023583743999.94
9750.0	529952888831999.9
9760.0	534826973183999.94
9770.0	538569748479999.9
9780.0	542944524287999.94
9790.0	547652202495999.9
9800.0	552372817919999.9
9810.0	554887575551999.9
9820.0	556435365887999.94
9830.0	561867429887999.94
9840.0	567069259775999.9
9850.0	571397816319999.9
9860.0	576030828543999.9
9870.0	581803290623999.9
9880.0	583227447295999.9
9890.0	592266428415999.9
9900.0	585231910911999.9
9910.0	586300338175999.9
9920.0	590965516287999.9
9930.0	596722606079999.9
9940.0	601445203967999.9
9950.0	606250856447999.9
9960.0	610989445119999.9
9970.0	616016533503999.9
9980.0	619788068863999.9
9990.0	621894356991999.9
10000.0	627648990207999.9
10010.0	632662227967999.9
10020.0	637345247231999.9
10030.0	643434166271999.9
10040.0	645540931583999.9
10050.0	651372541951999.9
10060.0	653441243135999.9
10070.0	658949225471999.9
10080.0	665530531839999.9
10090.0	669596183551999.9
10100.0	676802892799999.9
10110.0	678414606335999.9
10120.0	683247202303999.9
10130.0	689138745343999.9
10140.0	691030906879999.9
10150.0	698197702655999.9
10160.0	700867479551999.9
10170.0	705083447295999.9
10180.0	713427953663999.8
10190.0	715955443711999.9
10200.0	719793149951999.9
10210.0	727589619711999.9
10220.0	728655734783999.8
10230.0	736236474367999.9
10240.0	743022008319999.9
10250.0	746152003583999.8
10260.0	747212867583999.8
10270.0	753212690431999.9
10280.0	757739567103999.8
10290.0	763985700863999.8
10300.0	768013170687999.9
10310.0	776326596607999.9
10320.0	778539542527999.9
10330.0	785641191423999.8
10340.0	789100589055999.9
10350.0	796591112191999.9
10360.0	803041122303999.8
10370.0	809091264511999.9
10380.0	812515405823999.8
10390.0	815966463999999.9
10400.0	823478286335999.9
10410.0	835240835071999.9
10420.0	831866040319999.9
10430.0	834006722559999.9
10440.0	847692761087999.9
10450.0	858724734975999.9
10460.0	874735661055999.9
10470.0	855347050495999.9
10480.0	864202416127999.9
10490.0	878173272063999.8
10500.0	880617031679999.9
10510.0	883744935935999.9
10520.0	882806917119999.9
10530.0	906412443647999.9
10540.0	909081341951999.8
10550.0	915106547711999.8
10560.0	910728462335999.9
10570.0	911550146559999.9
10580.0	935305916415999.9
10590.0	936854179839999.9
10600.0	947478605823999.8
10610.0	943682088959999.9
10620.0	944464617471999.8
10630.0	960977229823999.8
10640.0	990531383295999.9
10650.0	983300503551999.8
10660.0	980417775615999.9
10670.0	973635323903999.8
10680.0	996471431167999.9
10690.0	1018852702207999.9
10700.0	1011979669503999.8
10710.0	1026204469247999.9
10720.0	1042500560895999.9
10730.0	1030248892415999.9
10740.0	1053565603839999.8
10750.0	1065892354047999.9
10760.0	1076201754623999.8
10770.0	1092487735295999.9
10780.0	1111077574655999.9
10790.0	1103165472767999.9
10800.0	1110171121663999.8
10810.0	1103774773247999.9
10820.0	1118155255807999.9
10830.0	1144681054207999.8
10840.0	1168936945663999.8
10850.0	1157783220223999.8
10860.0	1158865461247999.8
10870.0	1158487388159999.8
10880.0	1178534348799999.8
10890.0	1145446907903999.8
10900.0	1170218495999999.8
10910.0	1179047632895999.8
10920.0	1193520435199999.8
10930.0	1193365735423999.8
10940.0	1193487370239999.8
10950.0	1205633646591999.8
10960.0	1194145181695999.8
10970.0	1217688551423999.8
10980.0	1214472513535999.8
10990.0	1216553451519999.8
11000.0	1217728241663999.8
11010.0	1230126630911999.8
11020.0	1246888949759999.8
11030.0	1222077052927999.8
11040.0	1227297708031999.8
11050.0	1236344764415999.8
11060.0	1236188852223999.8
11070.0	1239606532095999.8
11080.0	1251662630911999.8
11090.0	1263491862527999.8
11100.0	1257771255807999.8
11110.0	1261448742911999.8
11120.0	1284610103295999.8
11130.0	1291265382399999.8
11140.0	1290064719871999.8
11150.0	1300538189823999.8
11160.0	1318266914815999.8
11170.0	1306317049855999.8
11180.0	1348767309823999.8
11190.0	1336967266303999.8
11200.0	1329089316863999.8
11210.0	1343456876543999.8
11220.0	1362166364159999.8
11230.0	1368522881023999.8
11240.0	1387912900607999.8
11250.0	1397033631743999.8
11260.0	1401551069183999.8
11270.0	1410559148031999.8
11280.0	1419692232703999.8
11290.0	1431355195391999.8
11300.0	1417551585279999.8
11310.0	1444024252415999.8
11320.0	1443206109183999.8
11330.0	1445425500159999.8
11340.0	1431313285119999.8
11350.0	1409860198399999.8
11360.0	1463841832959999.8
11370.0	1468569743359999.8
11380.0	1452738854911999.8
11390.0	1480614952959999.8
11400.0	1498580840447999.5
11410.0	1479852101631999.8
11420.0	1516138500095999.8
11430.0	1521305530367999.5
11440.0	1497437106175999.8
11450.0	1543638691839999.8
11460.0	1559261515775999.8
11470.0	1555218595839999.8
11480.0	1554100527103999.8
11490.0	1603947085823999.8
11500.0	1602925522943999.8
11510.0	1600527253503999.8
11520.0	1613484363775999.8
11530.0	1605339709439999.8
11540.0	1601522077695999.8
11550.0	1654259732479999.8
11560.0	1652175749119999.8
11570.0	1647924764671999.8
11580.0	1665309986815999.8
11590.0	1687660232703999.8
11600.0	1658572726271999.8
11610.0	1670578323455999.8
11620.0	1691958423551999.8
11630.0	1718603120639999.8
11640.0	1680512688127999.5
11650.0	1745686614015999.8
11660.0	1703221571583999.8
11670.0	1737683636223999.5
11680.0	1740658753535999.8
11690.0	1667580035071999.8
11700.0	1723986956287999.5
11710.0	1770092924927999.5
11720.0	1795382054911999.8
11730.0	1787986296831999.8
11740.0	1779612975103999.5
11750.0	1799727923199999.8
11760.0	1774873382911999.8
11770.0	1751011733503999.5
11780.0	1726914244607999.5
11790.0	1819982028799999.8
11800.0	1842240901119999.8
11810.0	1849501593599999.8
11820.0	1854058455039999.8
11830.0	1897568129023999.5
11840.0	1876549050367999.5
11850.0	1909535662079999.8
11860.0	1899379437567999.5
11870.0	1938290175999999.8
11880.0	1935845986303999.5
11890.0	1918060118015999.8
11900.0	1950858018815999.8
11910.0	1963447840767999.5
11920.0	1980186808319999.8
11930.0	2007622520831999.8
11940.0	1949314232319999.8
11950.0	1946459144191999.8
11960.0	1968206929919999.8
11970.0	1947370340351999.8
11980.0	1931307245567999.5
11990.0	1960099405823999.5
12000.0	1950772355071999.8
12010.0	1967062085631999.8
12020.0	1975928467455999.8
12030.0	1993596764159999.8
12040.0	2062761783295999.8
12050.0	2046147477503999.5
12060.0	2171517378559999.5
12070.0	2068645404671999.8
12080.0	2142124101631999.8
12090.0	2081651879935999.8
12100.0	2154115928063999.5
12110.0	2071394238463999.5
12120.0	2116283973631999.8
12130.0	2140424503295999.8
12140.0	2223768317951999.8
12150.0	2222981206015999.8
12160.0	2220316696575999.8
12170.0	2241437880319999.5
12180.0	2267349569535999.5
12190.0	2271825506303999.5
12200.0	2229812617215999.8
12210.0	2237144465407999.5
12220.0	2240851865599999.5
12230.0	2248499638271999.8
12240.0	2299064897535999.5
12250.0	2390479183871999.5
12260.0	2366074736639999.5
12270.0	2370167295999999.5
12280.0	2429910020095999.5
12290.0	2411853598719999.5
12300.0	2397185490943999.5
12310.0	2441243025407999.5
12320.0	2378612785151999.5
12330.0	2408971259903999.5
12340.0	2460518731775999.5
12350.0	2402657337343999.5
12360.0	2442703699967999.5
12370.0	2480792485887999.5
12380.0	2481960640511999.5
12390.0	2439560486911999.5
12400.0	2472561983487999.5
12410.0	2369723543551999.5
12420.0	2370883387391999.5
12430.0	2400604631039999.5
12440.0	2363280683007999.5
12450.0	2547076915199999.5
12460.0	2530518593535999.5
12470.0	2571371286527999.5
12480.0	2517167775743999.5
12490.0	2587002773503999.5
12500.0	2533796651007999.5
12510.0	2588041072639999.5
12520.0	2494212694015999.5
12530.0	2513701191679999.5
12540.0	2664762126335999.5
12550.0	2599762976767999.5
12560.0	2645291876351999.5
12570.0	2763846811647999.5
12580.0	2667493638143999.5
12590.0	2700986281983999.5
12600.0	2718214467583999.5
12610.0	2834196283391999.5
12620.0	2697893887999999.5
12630.0	2744448655359999.5
12640.0	2706476474367999.5
12650.0	2745695555583999.5
12660.0	2814636838911999.5
12670.0	2888836022271999.5
12680.0	2864684752895999.0
12690.0	2931883933695999.0
12700.0	2861969137663999.5
12710.0	2899522043903999.5
12720.0	2983140474879999.5
12730.0	2984661647359999.5
12740.0	2902971019263999.5
12750.0	2883200913407999.5
12760.0	2985940828159999.5
12770.0	2981131042815999.0
12780.0	2971860991999999.5
12790.0	3046059696127999.5
12800.0	3019795193855999.0
12810.0	3012058939391999.5
12820.0	3088981753855999.0
12830.0	3010975743999999.5
12840.0	3062498689023999.5
12850.0	3111961878527999.5
12860.0	2971802804223999.5
12870.0	3119241019391999.5
12880.0	3095776993279999.5
12890.0	3117974593535999.0
12900.0	3204609023999999.5
12910.0	3140055179263999.5
12920.0	3122597961727999.5
12930.0	3147235893247999.5
12940.0	3313920770047999.5
12950.0	3164877225983999.5
12960.0	3322884415487999.5
12970.0	3322367516671999.5
12980.0	3383035469823999.5
12990.0	3306422083583999.5
13000.0	3368735440895999.0
13010.0	3307778736127999.5
13020.0	3394249441279999.5
13030.0	3382860455935999.0
13040.0	3462852444159999.5
13050.0	3415759495167999.5
13060.0	3513211936767999.0
13070.0	3342259953663999.5
13080.0	3465502990335999.0
13090.0	3406207614975999.0
13100.0	3444989870079999.5
13110.0	3520968720383999.5
13120.0	3552044793855999.0
13130.0	3477633064959999.5
13140.0	3500354895871999.5
13150.0	3534366310399999.5
13160.0	3500636504063999.5
13170.0	3555132981247999.0
13180.0	3469876166655999.0
13190.0	3574913867775999.0
13200.0	3497531015167999.0
13210.0	3525763088383999.5
13220.0	3514479247359999.5
13230.0	3549219241983999.5
13240.0	3506794946559999.5
13250.0	3380834992127999.5
13260.0	3536504684543999.5
13270.0	3404286590975999.0
13280.0	3435832221695999.0
13290.0	3476088422399999.5
13300.0	3382300524543999.5
13310.0	3279104188415999.0
13320.0	3145731964927999.5
13330.0	3133950910463999.5
13340.0	3213320675327999.5
13350.0	2975804596223999.5
13360.0	3067684085759999.5
13370.0	3021211738111999.5
13380.0	3030895206399999.5
13390.0	3074185060351999.5
13400.0	3115188592639999.5
13410.0	3169761689599999.5
13420.0	3032120344575999.0
13430.0	3037990256639999.5
13440.0	3135197675519999.5
13450.0	3067740643327999.5
13460.0	3135969177599999.5
13470.0	3093697277951999.5
13480.0	3034441965567999.5
13490.0	3160406425599999.5
13500.0	3148692619263999.5
13510.0	3141867864063999.5
13520.0	3121975730175999.0
13530.0	3178594934783999.5
13540.0	3064266842111999.5
13550.0	3085541302271999.5
13560.0	3183211806719999.5
13570.0	3189233704959999.5
13580.0	3180318728191999.5
13590.0	3182374526975999.0
13600.0	3213001670655999.0
13610.0	3240226258943999.5
13620.0	3144205836287999.5
13630.0	3308225970175999.0
13640.0	3293195509759999.5
13650.0	3267117670399999.5
13660.0	3329456971775999.0
13670.0	3298503180287999.5
13680.0	3295904612351999.5
13690.0	3279614787583999.5
13700.0	3307313438719999.5
13710.0	3279644131327999.5
13720.0	3332319256575999.0
13730.0	3354679803903999.5
13740.0	3330441584639999.5
13750.0	3354320093183999.5
13760.0	3388180193279999.5
13770.0	3361015218175999.0
13780.0	3465813057535999.0
13790.0	3411013484543999.5
13800.0	3495418822655999.0
13810.0	3441470611455999.0
13820.0	3507321167871999.5
13830.0	3368294957055999.0
13840.0	3518501494783999.5
13850.0	3465683566591999.5
13860.0	3479244627967999.0
13870.0	3520232808447999.0
13880.0	3474061893631999.5
13890.0	3576740863999999.5
13900.0	3533699465215999.0
13910.0	3491061768191999.5
13920.0	3512487772159999.5
13930.0	3570468872191999.5
13940.0	3525291548671999.5
13950.0	3520589381631999.5
13960.0	3563522334719999.5
13970.0	3584818077695999.0
13980.0	3551898542079999.5
13990.0	3625015345151999.5
14000.0	3546060619775999.0
14010.0	3555502104575999.0
14020.0	3669497012223999.5
14030.0	3629720936447999.0
14040.0	3570942648319999.5
14050.0	3603434160127999.0
14060.0	3765044944895999.0
14070.0	3617859338239999.5
14080.0	3652201734143999.5
14090.0	3645144047615999.0
14100.0	3644316917759999.5
14110.0	3682538897407999.0
14120.0	3613519372287999.0
14130.0	3757056221183999.5
14140.0	3686195765247999.0
14150.0	3689794101247999.0
14160.0	3770313998335999.0
14170.0	3694303641599999.5
14180.0	3659830648831999.5
14190.0	3703680425983999.5
14200.0	3731332243455999.0
14210.0	3761833705471999.5
14220.0	3768212365311999.5
14230.0	3746589589503999.5
14240.0	3758613921791999.5
14250.0	3791978930175999.0
14260.0	3739797151743999.5
14270.0	3831905771519999.5
14280.0	3788365348863999.5
14290.0	3716668768255999.0
14300.0	3935267635199999.5
14310.0	3930488111103999.5
14320.0	3827966861311999.5
14330.0	3846452609023999.5
14340.0	3752485388287999.0
14350.0	3949296287743999.5
14360.0	3954056118271999.5
14370.0	3936770940927999.0
14380.0	3948526796799999.5
14390.0	3960845033471999.5
14400.0	3900496527359999.5
14410.0	3904966787071999.5
14420.0	3934986182655999.0
14430.0	4061585711103999.5
14440.0	4019836796927999.0
14450.0	3929384321023999.5
14460.0	4035898310655999.0
14470.0	3986079399935999.0
14480.0	4081972273151999.5
14490.0	4145840693247999.0
14500.0	4076794945535999.0
14510.0	3994705018879999.5
14520.0	4244124819455999.0
14530.0	4168179277823999.5
14540.0	4050561040383999.5
14550.0	4230371180543999.5
14560.0	4117756346367999.0
14570.0	4073630924799999.5
14580.0	4209158176767999.0
14590.0	4267859484671999.5
14600.0	4278825517055999.0
14610.0	4253323624447999.0
14620.0	4187818328063999.5
14630.0	4149307228159999.0
14640.0	4292957429759999.0
14650.0	4289206321151999.5
14660.0	4380323651583999.5
14670.0	4348424060927999.0
14680.0	4245587075071999.5
14690.0	4245381824511999.5
14700.0	4306799312895999.0
14710.0	4340521852927999.0
14720.0	4359750492159999.0
14730.0	4422686711807999.0
14740.0	4327196934143999.5
14750.0	4343769513983999.5
14760.0	4373916123135999.0
14770.0	4404602232831999.5
14780.0	4443378810879999.0
14790.0	4541917700095999.0
14800.0	4370249965567999.0
14810.0	4502210904063999.5
14820.0	4425169461247999.0
14830.0	4436204552191999.5
14840.0	4576321355775999.0
14850.0	4494180474879999.0
14860.0	4503576698879999.0
14870.0	4605407608831999.0
14880.0	4513720573951999.0
14890.0	4574753767423999.0
14900.0	4511998418943999.0
14910.0	4667852668927999.0
14920.0	4636025733119999.0
14930.0	4623855542271999.0
14940.0	4543309103103999.0
14950.0	4630827548671999.0
14960.0	4672338231295999.0
14970.0	4653856145407999.0
14980.0	4705445887999999.0
14990.0	4721674387455999.0
15000.0	4709365481471999.0
15010.0	4712686075903999.0
15020.0	4579515883519999.0
15030.0	4893491126271999.0
15040.0	4735798050815999.0
15050.0	4845711835135999.0
15060.0	4813513900031999.0
15070.0	4881656053759999.0
15080.0	4786708611071999.0
15090.0	4922683031551999.0
15100.0	4832459997183999.0
15110.0	4863131992063999.0
15120.0	4978259640319999.0
15130.0	4862310318079999.0
15140.0	4903268253695999.0
15150.0	5077860024319999.0
15160.0	5027990167551999.0
15170.0	4923899273215999.0
15180.0	4966473801727999.0
15190.0	4970478034943999.0
15200.0	5006062067711999.0
15210.0	5111840767999999.0
15220.0	5041569046527999.0
15230.0	5151934242815999.0
15240.0	5145314287615999.0
15250.0	5022446288895999.0
15260.0	5074605268991999.0
15270.0	5151720267775999.0
15280.0	5172186447871999.0
15290.0	5187392741375999.0
15300.0	5303013605375999.0
15310.0	5209133121535999.0
15320.0	5073866989567999.0
15330.0	5202401910783999.0
15340.0	5399906795519999.0
15350.0	5285081972735999.0
15360.0	5326532321279999.0
15370.0	5253304721407999.0
15380.0	5302934552575999.0
15390.0	5491376422911999.0
15400.0	5367594500095999.0
15410.0	5343245877247999.0
15420.0	5487416000511999.0
15430.0	5428856963071999.0
15440.0	5400792743935999.0
15450.0	5530391658495999.0
15460.0	5704934637567999.0
15470.0	5459402604543999.0
15480.0	5538055471103999.0
15490.0	5544820473855999.0
15500.0	5655099056127999.0
15510.0	5540380598271999.0
15520.0	5685893300223999.0
15530.0	5713736597503999.0
15540.0	5783842086911998.0
15550.0	5718772064255999.0
15560.0	5647304703999999.0
15570.0	5695227592703999.0
15580.0	5575150665727999.0
15590.0	5740130861055999.0
15600.0	5791749423103999.0
15610.0	5800965570559999.0
15620.0	5911584636927999.0
15630.0	5877096595455999.0
15640.0	5955132063743999.0
15650.0	5785421447167999.0
15660.0	5786999603199999.0
15670.0	6087452819455999.0
15680.0	6202096582655999.0
15690.0	5959520468991998.0
15700.0	6011226931199999.0
15710.0	6058380001279999.0
15720.0	6054877790207999.0
15730.0	6098976456703999.0
15740.0	6215101284351998.0
15750.0	6203216068607999.0
15760.0	6229414805503999.0
15770.0	6236317532159999.0
15780.0	6201914720255999.0
15790.0	6189869449215999.0
15800.0	6290253496319999.0
15810.0	6286298005503999.0
15820.0	6304077103103999.0
15830.0	6468243505151998.0
15840.0	6312851783679999.0
15850.0	6349353074687999.0
15860.0	6567780761599999.0
15870.0	6509507215359999.0
15880.0	6544849928191998.0
15890.0	6622600970239999.0
15900.0	6466372272127999.0
15910.0	6651249917951998.0
15920.0	6604068569087999.0
15930.0	6632888467455999.0
15940.0	6775853400063999.0
15950.0	6798156218367999.0
15960.0	6822681739263999.0
15970.0	6779013414911998.0
15980.0	6725195759615999.0
15990.0	6823856046079999.0
16000.0	6910447091711998.0
16010.0	7015152173055998.0
16020.0	6768757932031998.0
16030.0	7105789214719999.0
16040.0	6953304326143999.0
16050.0	6965859221503999.0
16060.0	6982331056127999.0
16070.0	7060321615871998.0
16080.0	7167058952191998.0
16090.0	7140340105215998.0
16100.0	7120333242367999.0
16110.0	7092100710399999.0
16120.0	7186200625151998.0
16130.0	7266044690431998.0
16140.0	7222414737407999.0
16150.0	7246635433983999.0
16160.0	7333994889215998.0
16170.0	7505979801599999.0
16180.0	7585484767231998.0
16190.0	7292849848319999.0
16200.0	7351336615935998.0
16210.0	7325421305855998.0
16220.0	7620182147071998.0
16230.0	7619922575359999.0
16240.0	7618420539391998.0
16250.0	7585632124927999.0
16260.0	7593281011711998.0
16270.0	7751525433343999.0
16280.0	7817586868223999.0
16290.0	7662902018047999.0
16300.0	7807788875775998.0
16310.0	7660098699263999.0
16320.0	7749781127167999.0
16330.0	7894322479103999.0
16340.0	8014912012287999.0
16350.0	7866450837503999.0
16360.0	7976249819135998.0
16370.0	7973803343871998.0
16380.0	8165082202111998.0
16390.0	8021862465535998.0
16400.0	8055732502527999.0
16410.0	8119935467519999.0
16420.0	7979606409215998.0
16430.0	8031326846975998.0
16440.0	8234286235647999.0
