# Flux units: erg / (cm m2 s)
# Wavelength units: Angstrom
wave	flux
9000.0	4990031.40258789
9010.0	5033519.989013671
9020.0	5076807.327270507
9030.0	5119663.330078124
9040.0	5164316.040039062
9050.0	5208654.846191405
9060.0	5251436.767578124
9070.0	5296738.92211914
9080.0	5342701.171874999
9090.0	5387208.007812499
9100.0	5432787.231445312
9110.0	5478181.884765623
9120.0	5525182.769775389
9130.0	5570738.555908202
9140.0	5616994.232177733
9150.0	5664338.104248046
9160.0	5711548.278808592
9170.0	5758802.429199218
9180.0	5805796.69189453
9190.0	5854891.479492186
9200.0	5901989.501953124
9210.0	5949404.510498046
9220.0	5998492.675781249
9230.0	6036327.45361328
9240.0	6096295.654296874
9250.0	6145544.219970702
9260.0	6195132.019042968
9270.0	6243983.459472655
9280.0	6291245.819091796
9290.0	6342229.15649414
9300.0	6394330.780029296
9310.0	6444048.522949217
9320.0	6497215.423583983
9330.0	6547209.716796874
9340.0	6597814.3005371075
9350.0	6646558.25805664
9360.0	6703718.719482421
9370.0	6755112.121582029
9380.0	6811867.2790527325
9390.0	6862588.409423826
9400.0	6916397.247314452
9410.0	6970290.893554686
9420.0	7025932.983398436
9430.0	7080575.408935546
9440.0	7132805.023193358
9450.0	7188907.562255858
9460.0	7243269.34814453
9470.0	7297645.996093748
9480.0	7353605.987548827
9490.0	7413569.122314452
9500.0	7457295.989990233
9510.0	7521476.623535155
9520.0	7580115.997314452
9530.0	7636570.12939453
9540.0	7696662.872314451
9550.0	7751752.441406248
9560.0	7807450.50048828
9570.0	7863593.444824217
9580.0	7930579.772949218
9590.0	7987120.2087402325
9600.0	8042709.747314452
9610.0	8103157.653808592
9620.0	8157645.1110839825
9630.0	8225861.053466795
9640.0	8279314.270019529
9650.0	8341111.29760742
9660.0	8406053.466796873
9670.0	8467417.633056639
9680.0	8528320.159912108
9690.0	8587443.786621092
9700.0	8653803.924560545
9710.0	8710528.991699217
9720.0	8772291.381835936
9730.0	8835816.436767576
9740.0	8896556.793212889
9750.0	8963428.985595701
9760.0	9021484.222412108
9770.0	9089031.616210936
9780.0	9153798.675537108
9790.0	9213995.483398436
9800.0	9280622.344970701
9810.0	9345221.862792967
9820.0	9405732.696533201
9830.0	9472114.07470703
9840.0	9540680.114746092
9850.0	9609512.207031248
9860.0	9676160.675048826
9870.0	9740939.514160154
9880.0	9806321.868896483
9890.0	9878404.052734373
9900.0	9904490.509033201
9910.0	9951361.816406248
9920.0	10014794.494628904
9930.0	10091291.687011717
9940.0	10167634.613037108
9950.0	10242358.428955076
9960.0	10309625.732421873
9970.0	10376049.74365234
9980.0	10440825.01220703
9990.0	10507515.991210936
10000.0	10583609.374999998
10010.0	10658116.485595701
10020.0	10729545.104980467
10030.0	10811565.612792967
10040.0	10868665.954589842
10050.0	10942407.623291012
10060.0	10989204.376220701
10070.0	11077841.58325195
10080.0	11160019.042968748
10090.0	11232442.01660156
10100.0	11311927.917480467
10110.0	11377014.312744139
10120.0	11440350.769042967
10130.0	11519224.304199217
10140.0	11581989.166259764
10150.0	11660954.315185545
10160.0	11730832.45849609
10170.0	11804467.346191404
10180.0	11887683.593749998
10190.0	11958038.787841795
10200.0	12031582.12280273
10210.0	12121823.608398436
10220.0	12178000.549316404
10230.0	12264899.597167967
10240.0	12350234.527587889
10250.0	12427530.853271483
10260.0	12480005.218505858
10270.0	12568011.749267576
10280.0	12643423.217773436
10290.0	12725029.724121092
10300.0	12797959.320068358
10310.0	12895912.811279295
10320.0	12959981.506347653
10330.0	13054153.62548828
10340.0	13115208.526611324
10350.0	13207884.124755858
10360.0	13297020.721435545
10370.0	13395901.000976559
10380.0	13453290.283203123
10390.0	13522904.815673826
10400.0	13630016.296386715
10410.0	13725673.339843746
10420.0	13769894.744873045
10430.0	13834809.631347654
10440.0	13966793.42651367
10450.0	14083193.206787108
10460.0	14184414.550781248
10470.0	14168406.829833983
10480.0	14273643.00537109
10490.0	14402782.287597654
10500.0	14473365.600585934
10510.0	14545829.040527342
10520.0	14597274.261474606
10530.0	14731894.165039059
10540.0	14848815.246582028
10550.0	14923092.468261715
10560.0	14992998.596191403
10570.0	15040812.011718746
10580.0	15171598.26660156
10590.0	15267429.107666014
10600.0	15379458.2824707
10610.0	15471282.348632809
10620.0	15511452.57568359
10630.0	15656726.318359371
10640.0	15782810.15014648
10650.0	15823463.897705074
10660.0	15889086.822509764
10670.0	15969230.041503903
10680.0	16093636.19995117
10690.0	16219147.827148436
10700.0	16303006.46972656
10710.0	16369690.73486328
10720.0	16493155.88378906
10730.0	16594513.916015623
10740.0	16631664.154052733
10750.0	16765961.761474606
10760.0	16839207.183837887
10770.0	17003662.597656246
10780.0	17152534.79003906
10790.0	17207857.147216793
10800.0	17298904.357910153
10810.0	17358773.803710934
10820.0	17437895.202636715
10830.0	17565567.32177734
10840.0	17748771.820068356
10850.0	17768016.69311523
10860.0	17840405.609130856
10870.0	17958287.414550778
10880.0	18127984.588623043
10890.0	18051958.343505856
10900.0	18258549.499511715
10910.0	18308487.121582028
10920.0	18467825.561523434
10930.0	18583356.170654293
10940.0	18629715.057373043
10950.0	18737193.023681637
10960.0	18750171.417236324
10970.0	18916071.777343746
10980.0	18946032.47070312
10990.0	19067050.75073242
11000.0	19142169.2199707
11010.0	19279832.580566403
11020.0	19327151.33666992
11030.0	19366511.627197262
11040.0	19460841.0949707
11050.0	19594715.545654293
11060.0	19670469.940185543
11070.0	19748591.949462887
11080.0	19878326.721191403
11090.0	19976010.803222653
11100.0	20039900.756835934
11110.0	20072381.164550778
11120.0	20299964.752197262
11130.0	20416132.26318359
11140.0	20493745.117187496
11150.0	20566125.45776367
11160.0	20731860.351562496
11170.0	20785094.909667965
11180.0	21032513.549804684
11190.0	21014881.713867184
11200.0	21070906.18896484
11210.0	21214145.44677734
11220.0	21375298.522949215
11230.0	21497917.785644528
11240.0	21647224.609374993
11250.0	21733904.663085934
11260.0	21867832.397460934
11270.0	21962117.004394528
11280.0	22099307.37304687
11290.0	22217041.320800778
11300.0	22192249.572753903
11310.0	22454593.811035153
11320.0	22537825.012207028
11330.0	22552642.883300778
11340.0	22556617.614746086
11350.0	22546039.062499996
11360.0	22816427.00195312
11370.0	22911271.667480465
11380.0	22790543.88427734
11390.0	23007129.943847653
11400.0	23122964.47753906
11410.0	23048292.358398434
11420.0	23463526.489257805
11430.0	23583828.24707031
11440.0	23687975.402832028
11450.0	23953176.574707028
11460.0	24126319.396972653
11470.0	24186065.551757805
11480.0	24172985.77880859
11490.0	24575169.37255859
11500.0	24726292.846679684
11510.0	24743972.77832031
11520.0	24884737.304687496
11530.0	24887520.996093746
11540.0	24939070.373535153
11550.0	25309059.81445312
11560.0	25324737.792968746
11570.0	25420685.97412109
11580.0	25572386.291503903
11590.0	25633036.804199215
11600.0	25654943.42041015
11610.0	25665599.36523437
11620.0	25925480.40771484
11630.0	26187389.648437496
11640.0	26030801.818847653
11650.0	26377773.254394528
11660.0	26203951.293945305
11670.0	26426112.548828118
11680.0	26330620.54443359
11690.0	25891739.746093743
11700.0	26363231.689453118
11710.0	26768494.018554684
11720.0	27028047.180175778
11730.0	27137318.176269528
11740.0	27176590.27099609
11750.0	27261051.635742184
11760.0	27186819.45800781
11770.0	26945698.7915039
11780.0	26807569.27490234
11790.0	27562349.24316406
11800.0	27870886.65771484
11810.0	28080202.026367184
11820.0	28258169.189453118
11830.0	28522615.66162109
11840.0	28597253.29589843
11850.0	28827516.113281243
11860.0	28940491.760253903
11870.0	29122945.739746086
11880.0	29142358.398437496
11890.0	29075126.770019528
11900.0	29562979.980468743
11910.0	29727463.073730465
11920.0	29964452.087402336
11930.0	30052509.460449215
11940.0	29948991.943359368
11950.0	30124093.627929684
11960.0	30255767.883300778
11970.0	30062576.660156246
11980.0	30025002.01416015
11990.0	30416885.19287109
12000.0	30579727.661132805
12010.0	30796741.27197265
12020.0	30867472.167968743
12030.0	31113345.15380859
12040.0	31455478.63769531
12050.0	31521193.42041015
12060.0	32265531.7993164
12070.0	31771857.421874996
12080.0	32375069.152832024
12090.0	31904853.576660153
12100.0	32466846.496582024
12110.0	32207962.036132805
12120.0	32520485.778808586
12130.0	32755222.35107421
12140.0	33131389.465332024
12150.0	33356936.21826171
12160.0	33353093.505859368
12170.0	33389829.162597653
12180.0	33677656.98242187
12190.0	33991016.35742187
12200.0	33612534.790039055
12210.0	33940526.489257805
12220.0	34107685.79101562
12230.0	34158490.11230468
12240.0	34490442.81005859
12250.0	35019861.02294921
12260.0	35029757.3852539
12270.0	35176040.5883789
12280.0	35522661.6821289
12290.0	35476247.00927734
12300.0	35694048.461914055
12310.0	35919696.28906249
12320.0	35772408.56933593
12330.0	35977469.2993164
12340.0	36105785.766601555
12350.0	36146078.49121093
12360.0	36301134.52148437
12370.0	36565362.8540039
12380.0	36605429.2602539
12390.0	36691249.26757812
12400.0	36887191.28417968
12410.0	36355690.91796874
12420.0	36478714.53857421
12430.0	35920023.86474609
12440.0	35673064.33105468
12450.0	37138762.57324218
12460.0	37455437.316894524
12470.0	37577730.16357421
12480.0	37805658.69140624
12490.0	37889727.78320312
12500.0	37470027.70996093
12510.0	37786974.85351562
12520.0	36892610.168457024
12530.0	36726185.97412109
12540.0	38187545.10498046
12550.0	38794030.21240234
12560.0	38853385.49804687
12570.0	39649156.67724609
12580.0	39439214.72167968
12590.0	39837923.82812499
12600.0	39989698.42529296
12610.0	40412019.95849609
12620.0	39923999.20654296
12630.0	40831030.02929687
12640.0	40191381.10351562
12650.0	40823654.66308593
12660.0	40883155.21240234
12670.0	41619595.2758789
12680.0	41666317.38281249
12690.0	42123026.24511718
12700.0	41772017.700195305
12710.0	42518663.94042968
12720.0	42776257.20214843
12730.0	43075457.519531235
12740.0	42674152.22167968
12750.0	42382936.88964843
12760.0	43389516.11328124
12770.0	43323716.430664055
12780.0	43534862.06054687
12790.0	44180178.22265624
12800.0	43739176.51367187
12810.0	44103722.65624999
12820.0	44246321.16699217
12830.0	44312287.59765624
12840.0	44685983.64257811
12850.0	44731208.49609374
12860.0	44008451.782226555
12870.0	44525921.26464843
12880.0	44674495.727539055
12890.0	44962903.56445312
12900.0	45443425.04882811
12910.0	45780370.84960936
12920.0	45400627.80761717
12930.0	44548715.942382805
12940.0	46431415.77148436
12950.0	45910061.03515624
12960.0	46977025.26855468
12970.0	46888427.49023436
12980.0	47362442.382812485
12990.0	47231531.00585937
13000.0	47793660.40039062
13010.0	47409957.64160155
13020.0	47817684.32617187
13030.0	47749041.625976555
13040.0	48046543.945312485
13050.0	47742878.29589843
13060.0	49245105.71289062
13070.0	47385430.54199218
13080.0	49294954.95605468
13090.0	48351711.42578124
13100.0	48951007.56835937
13110.0	49528810.30273437
13120.0	49999314.575195305
13130.0	49491291.625976555
13140.0	49703026.36718749
13150.0	50354872.43652343
13160.0	50055766.84570312
13170.0	50141196.16699218
13180.0	50096230.71289062
13190.0	51179184.32617186
13200.0	49916906.00585937
13210.0	50738993.65234374
13220.0	50747632.56835937
13230.0	50836609.008789055
13240.0	50283727.78320311
13250.0	49994162.84179687
13260.0	51233933.95996093
13270.0	49819892.08984374
13280.0	50744811.27929687
13290.0	50607344.11621092
13300.0	50207507.934570305
13310.0	49556481.567382805
13320.0	47683403.19824218
13330.0	48815574.340820305
13340.0	48904854.85839843
13350.0	46607044.18945312
13360.0	47068496.45996092
13370.0	46420283.93554687
13380.0	46760730.957031235
13390.0	47273652.954101555
13400.0	47427632.20214842
13410.0	48414646.24023437
13420.0	46955711.18164062
13430.0	47134190.551757805
13440.0	48265592.16308593
13450.0	47404974.97558593
13460.0	48662694.27490234
13470.0	47764057.06787108
13480.0	46812029.907226555
13490.0	48568063.23242187
13500.0	48451953.00292968
13510.0	48537500.85449218
13520.0	48247651.489257805
13530.0	49269437.86621093
13540.0	47882942.871093735
13550.0	47930256.958007805
13560.0	49056292.23632812
13570.0	49221231.079101555
13580.0	49484427.97851562
13590.0	49684228.820800774
13600.0	49898287.29248046
13610.0	50082147.094726555
13620.0	48938674.68261717
13630.0	51218350.219726555
13640.0	51471328.00292967
13650.0	50712299.926757805
13660.0	52124284.91210937
13670.0	51716363.89160155
13680.0	51550911.132812485
13690.0	51253059.93652343
13700.0	52028707.51953124
13710.0	51770714.59960936
13720.0	52465061.03515624
13730.0	52568493.16406249
13740.0	52699583.37402343
13750.0	53131464.84374999
13760.0	53533122.192382805
13770.0	53382439.33105467
13780.0	54072458.618164055
13790.0	53935031.24999999
13800.0	54832072.14355468
13810.0	53428953.73535155
13820.0	54570376.586914055
13830.0	52450811.27929687
13840.0	55111177.49023437
13850.0	53714960.93749999
13860.0	53679892.211914055
13870.0	55632396.85058593
13880.0	53921260.8642578
13890.0	55252255.37109374
13900.0	54868268.55468749
13910.0	54359276.85546874
13920.0	54435022.82714843
13930.0	55079278.4423828
13940.0	54877800.53710937
13950.0	54694404.66308592
13960.0	54878391.35742187
13970.0	55400600.58593749
13980.0	55089820.06835937
13990.0	56158775.75683593
14000.0	55355511.35253905
14010.0	55085778.56445311
14020.0	57037416.50390624
14030.0	56900024.047851555
14040.0	56131557.98339842
14050.0	55837559.082031235
14060.0	58925248.41308593
14070.0	56425150.26855468
14080.0	56852638.67187499
14090.0	56301906.61621092
14100.0	57142005.73730468
14110.0	57319392.700195305
14120.0	55894119.140624985
14130.0	58126694.58007812
14140.0	56626787.47558592
14150.0	57573061.03515624
14160.0	58906429.8095703
14170.0	57638387.69531249
14180.0	57161883.05664062
14190.0	57012690.67382812
14200.0	58440686.645507805
14210.0	58846594.726562485
14220.0	58779108.03222655
14230.0	58349203.49121093
14240.0	57568374.38964842
14250.0	59377608.88671874
14260.0	58580901.367187485
14270.0	59837034.54589843
14280.0	59273941.16210937
14290.0	57737590.942382805
14300.0	61277291.74804686
14310.0	61040102.661132805
14320.0	59733378.66210936
14330.0	60744357.29980468
14340.0	57799685.79101562
14350.0	61211791.01562499
14360.0	61731076.41601561
14370.0	61109121.33789062
14380.0	61484639.52636718
14390.0	61347433.10546874
14400.0	60751517.45605468
14410.0	61133322.99804687
14420.0	61726413.696289055
14430.0	63065217.407226555
14440.0	62666580.32226562
14450.0	60649598.7548828
14460.0	63401188.11035155
14470.0	62262787.2314453
14480.0	63575368.652343735
14490.0	64230676.02539061
14500.0	62857657.47070311
14510.0	61873491.82128905
14520.0	66084131.71386718
14530.0	65130139.160156235
14540.0	63573237.18261717
14550.0	65517140.25878905
14560.0	63880062.74414061
14570.0	62711015.258789055
14580.0	65995313.72070311
14590.0	66771153.68652343
14600.0	66592224.7314453
14610.0	66386557.49511717
14620.0	65014456.29882812
14630.0	63941505.12695311
14640.0	66914252.44140624
14650.0	66877465.08789061
14660.0	67636460.81542967
14670.0	68017188.47656249
14680.0	65797433.47167967
14690.0	65586373.046874985
14700.0	67086215.69824217
14710.0	67459029.90722655
14720.0	68346805.7861328
14730.0	69246886.10839842
14740.0	67485247.43652342
14750.0	67381771.6064453
14760.0	68171464.23339842
14770.0	68807627.19726561
14780.0	69150224.60937499
14790.0	70539568.11523436
14800.0	68160481.32324217
14810.0	69698709.1064453
14820.0	68197393.31054686
14830.0	69957252.92968749
14840.0	70987046.26464842
14850.0	70012671.0205078
14860.0	70558587.0361328
14870.0	71095000.61035155
14880.0	70224259.27734374
14890.0	70702110.22949217
14900.0	70598574.95117186
14910.0	72386934.44824217
14920.0	72088484.86328124
14930.0	72310673.9501953
14940.0	71423251.46484374
14950.0	71834631.9580078
14960.0	72060658.20312499
14970.0	72903496.33789061
14980.0	73382769.28710936
14990.0	73832935.05859374
15000.0	73727211.42578124
15010.0	73643800.17089842
15020.0	71990363.15917967
15030.0	75279946.28906249
15040.0	74359088.25683592
15050.0	75454190.18554686
15060.0	75002330.07812499
15070.0	75609112.91503905
15080.0	74611318.96972655
15090.0	76078406.49414061
15100.0	75343031.49414061
15110.0	75572681.64062499
15120.0	77062557.25097655
15130.0	75875518.79882811
15140.0	76284785.64453124
15150.0	78818573.85253905
15160.0	77429665.89355467
15170.0	75637327.14843749
15180.0	76815594.8486328
15190.0	78027824.70703124
15200.0	77995552.12402342
15210.0	79700539.67285155
15220.0	78909168.94531249
15230.0	79533249.63378905
15240.0	80177841.18652342
15250.0	78625008.9111328
15260.0	78980224.12109374
15270.0	79873115.96679686
15280.0	80221830.07812499
15290.0	80373601.80664061
15300.0	81763581.29882811
15310.0	81647299.68261717
15320.0	79593265.86914061
15330.0	80704737.54882811
15340.0	83664164.55078122
15350.0	82120541.01562499
15360.0	83012866.94335935
15370.0	82605019.40917967
15380.0	82676051.8798828
15390.0	85092600.34179686
15400.0	83101516.35742186
15410.0	82859152.34374999
15420.0	84313221.8017578
15430.0	84050173.21777342
15440.0	83482610.35156249
15450.0	85539026.36718749
15460.0	86895926.51367186
15470.0	85297853.75976561
15480.0	85304634.52148435
15490.0	86149104.24804686
15500.0	86663141.84570311
15510.0	85475696.28906249
15520.0	87413044.18945311
15530.0	87863921.87499999
15540.0	87858575.43945311
15550.0	87884279.29687497
15560.0	87665471.9238281
15570.0	87937661.62109374
15580.0	86833044.67773436
15590.0	88573128.1738281
15600.0	88937806.88476561
15610.0	88902802.24609372
15620.0	90157971.43554686
15630.0	89952756.83593749
15640.0	90566903.07617186
15650.0	89392302.73437499
15660.0	89246882.81249999
15670.0	92508316.16210935
15680.0	93223278.07617186
15690.0	91448725.58593749
15700.0	91725647.7050781
15710.0	92729798.82812499
15720.0	92703963.37890624
15730.0	93152880.85937499
15740.0	94221510.49804686
15750.0	94003774.16992186
15760.0	94429370.60546874
15770.0	94697062.98828124
15780.0	93891785.88867186
15790.0	94874386.96289061
15800.0	95134803.46679686
15810.0	95316362.79296874
15820.0	95797009.03320311
15830.0	97006177.73437499
15840.0	95508037.59765624
15850.0	96695597.41210936
15860.0	98069319.5800781
15870.0	97512340.82031247
15880.0	98749363.03710936
15890.0	98611347.90039061
15900.0	97783641.60156249
15910.0	99124031.73828124
15920.0	99083478.75976561
15930.0	99058151.12304686
15940.0	99804742.91992186
15950.0	100379202.63671874
15960.0	101373494.14062499
15970.0	101158571.53320311
15980.0	100275310.7910156
15990.0	100765128.41796874
16000.0	101601355.22460936
16010.0	102482427.97851561
16020.0	101158115.23437499
16030.0	103277462.40234374
16040.0	102452931.39648436
16050.0	102575330.81054686
16060.0	102862248.04687497
16070.0	103291604.00390624
16080.0	104420282.47070311
16090.0	104004075.92773436
16100.0	104368800.29296874
16110.0	103822596.92382811
16120.0	104598677.97851561
16130.0	105764113.03710936
16140.0	106026609.6191406
16150.0	105513333.74023436
16160.0	107202797.36328122
16170.0	107935236.5722656
16180.0	108207542.72460936
16190.0	106056728.02734372
16200.0	106851750.48828124
16210.0	106233854.49218747
16220.0	108178004.88281247
16230.0	108942251.95312497
16240.0	109446129.88281247
16250.0	109161752.92968749
16260.0	109318093.0175781
16270.0	110162829.10156247
16280.0	110211609.37499999
16290.0	109262755.12695311
16300.0	111070548.58398436
16310.0	110056472.9003906
16320.0	111318551.51367186
16330.0	112074031.98242186
16340.0	112714468.01757811
16350.0	112829247.55859372
16360.0	112946248.2910156
16370.0	113154150.63476561
16380.0	113416583.74023436
16390.0	113345201.41601561
16400.0	113664703.36914061
16410.0	114537574.21874997
16420.0	113185838.86718749
16430.0	114164185.05859374
16440.0	114888948.97460936
16450.0	116286166.74804685
16460.0	115699272.70507811
16470.0	115532770.01953124
16480.0	116589572.02148436
16490.0	116861999.99999999
16500.0	116708916.74804685
16510.0	116691517.82226561
16520.0	117991024.65820311
16530.0	117272677.24609374
16540.0	118506808.10546874
16550.0	118616154.78515624
16560.0	119101453.3691406
16570.0	119575024.41406249
16580.0	119637007.32421874
16590.0	118918156.98242186
16600.0	118679744.87304686
