# Flux units: erg / (cm m2 s)
# Wavelength units: Angstrom
wave	flux
9000.0	207129854975999.94
9010.0	209108749311999.97
9020.0	211102509055999.94
9030.0	213110070271999.97
9040.0	215133072383999.97
9050.0	217165942783999.97
9060.0	219211348991999.97
9070.0	221272600575999.94
9080.0	223346211839999.97
9090.0	225433895935999.94
9100.0	227543813119999.97
9110.0	229668305919999.97
9120.0	231805893631999.97
9130.0	233943245823999.97
9140.0	236114644991999.97
9150.0	238292889599999.97
9160.0	240481771519999.97
9170.0	242685900799999.97
9180.0	244908850175999.94
9190.0	247142220799999.97
9200.0	249387161599999.97
9210.0	251647357951999.97
9220.0	253925264383999.97
9230.0	256060561407999.94
9240.0	258515705855999.94
9250.0	260831498239999.94
9260.0	263157936127999.94
9270.0	265497531391999.97
9280.0	267820220415999.94
9290.0	270177241087999.94
9300.0	272607880191999.97
9310.0	274985197567999.94
9320.0	277416428543999.97
9330.0	279837216767999.94
9340.0	282224867327999.94
9350.0	284681217023999.94
9360.0	287207532543999.94
9370.0	289669088255999.94
9380.0	292232627199999.94
9390.0	294741184511999.94
9400.0	297273955327999.94
9410.0	299811848191999.94
9420.0	302381304831999.94
9430.0	304961366015999.94
9440.0	307545855999999.94
9450.0	310138223615999.94
9460.0	312763308031999.94
9470.0	315356215295999.94
9480.0	317969595391999.94
9490.0	320713861119999.94
9500.0	323326928895999.94
9510.0	326066325503999.94
9520.0	328767016959999.94
9530.0	331471842303999.94
9540.0	334239903743999.94
9550.0	336976162815999.94
9560.0	339666770943999.94
9570.0	342501422079999.94
9580.0	345319645183999.94
9590.0	348128313343999.94
9600.0	350913718271999.9
9610.0	353772191743999.94
9620.0	356560728063999.94
9630.0	359489579007999.94
9640.0	362353168383999.94
9650.0	365276862463999.94
9660.0	368201914367999.94
9670.0	371100215295999.94
9680.0	374074222591999.9
9690.0	377032857599999.94
9700.0	380007798783999.94
9710.0	382980878335999.94
9720.0	385979889663999.94
9730.0	389004773375999.94
9740.0	392032161791999.9
9750.0	395095992319999.94
9760.0	398136164351999.9
9770.0	401236625407999.94
9780.0	404338583551999.9
9790.0	407431858175999.94
9800.0	410563842047999.94
9810.0	413705170943999.94
9820.0	416859459583999.94
9830.0	420023384063999.94
9840.0	423209191423999.94
9850.0	426418440191999.9
9860.0	429626361855999.94
9870.0	432858007551999.9
9880.0	436085303295999.9
9890.0	439371597823999.94
9900.0	442607648767999.94
9910.0	445883668479999.94
9920.0	449172783103999.94
9930.0	452517634047999.94
9940.0	455852619775999.9
9950.0	459225083903999.94
9960.0	462589063167999.94
9970.0	465978118143999.94
9980.0	469368989695999.9
9990.0	472773355519999.94
10000.0	476216540159999.94
10010.0	479660699647999.94
10020.0	483121559551999.9
10030.0	486605331455999.9
10040.0	490070950911999.9
10050.0	493584835583999.94
10060.0	497070602239999.94
10070.0	500621365247999.94
10080.0	504183841791999.9
10090.0	507743447039999.94
10100.0	511335701503999.94
10110.0	514915367935999.9
10120.0	518517443583999.94
10130.0	522151624703999.94
10140.0	525772311551999.9
10150.0	529441977343999.94
10160.0	533100280831999.9
10170.0	536786821119999.9
10180.0	540502298623999.94
10190.0	544210263039999.9
10200.0	547936017407999.94
10210.0	551707188223999.94
10220.0	555441943551999.9
10230.0	559238187007999.94
10240.0	563040123903999.9
10250.0	566847752191999.9
10260.0	570637865983999.9
10270.0	574493756415999.9
10280.0	578340343807999.9
10290.0	582219353087999.9
10300.0	586096565247999.9
10310.0	590026169343999.9
10320.0	593920904191999.9
10330.0	597868964863999.9
10340.0	601782803455999.9
10350.0	605751373823999.9
10360.0	609728649215999.9
10370.0	613728755711999.9
10380.0	617701199871999.9
10390.0	621701243903999.9
10400.0	625760449535999.9
10410.0	629825119231999.9
10420.0	633833796607999.9
10430.0	637880786943999.9
10440.0	642037059583999.9
10450.0	646178446335999.9
10460.0	650344027135999.9
10470.0	654330169343999.9
10480.0	658505969663999.9
10490.0	662731649023999.9
10500.0	666899869695999.9
10510.0	671082391551999.9
10520.0	675240689663999.9
10530.0	679550236671999.9
10540.0	683818893311999.9
10550.0	688077323263999.9
10560.0	692305858559999.9
10570.0	696552810495999.9
10580.0	700951427071999.9
10590.0	705267517439999.9
10600.0	709636972543999.8
10610.0	713974034431999.9
10620.0	718273251327999.9
10630.0	722753775615999.9
10640.0	727244675071999.9
10650.0	731588282367999.9
10660.0	735969521663999.8
10670.0	740368859135999.9
10680.0	744928944127999.9
10690.0	749477163007999.9
10700.0	753934493695999.9
10710.0	758432972799999.9
10720.0	763009798143999.8
10730.0	767532890111999.9
10740.0	772060850175999.9
10750.0	776679852031999.9
10760.0	781253373951999.9
10770.0	785961885695999.9
10780.0	790675218431999.9
10790.0	795249508351999.9
10800.0	799879415807999.9
10810.0	804480225279999.9
10820.0	809161584639999.9
10830.0	813929271295999.9
10840.0	818781642751999.9
10850.0	823373146111999.9
10860.0	828064440319999.9
10870.0	832842926079999.9
10880.0	837751838719999.9
10890.0	842215745535999.9
10900.0	847178473471999.9
10910.0	851941545983999.8
10920.0	856867434495999.9
10930.0	861691310079999.9
10940.0	866442287103999.8
10950.0	871364149247999.9
10960.0	876040636415999.9
10970.0	881118846975999.9
10980.0	885899606015999.9
10990.0	890821908479999.9
11000.0	895688536063999.8
11010.0	900654462975999.9
11020.0	905720217599999.9
11030.0	910452078591999.8
11040.0	915588894719999.9
11050.0	920553840639999.9
11060.0	925368475647999.9
11070.0	930611185663999.8
11080.0	935643725823999.8
11090.0	940738486271999.8
11100.0	945854439423999.8
11110.0	950362380287999.9
11120.0	955943395327999.9
11130.0	961141200895999.9
11140.0	966224809983999.8
11150.0	971049232383999.8
11160.0	976951369727999.9
11170.0	981628973055999.9
11180.0	987459520511999.8
11190.0	992184981503999.8
11200.0	997299675135999.9
11210.0	1002855847935999.9
11220.0	1007879528447999.9
11230.0	1013801125887999.9
11240.0	1019125018623999.8
11250.0	1024330301439999.9
11260.0	1029831112703999.8
11270.0	1035357145087999.9
11280.0	1040788539391999.8
11290.0	1046216476671999.8
11300.0	1051069931519999.8
11310.0	1056820871167999.9
11320.0	1062144806911999.8
11330.0	1067688030207999.9
11340.0	1072187121663999.8
11350.0	1077041256447999.9
11360.0	1083786676223999.8
11370.0	1089405782015999.9
11380.0	1094430844927999.9
11390.0	1100319637503999.8
11400.0	1106025203711999.8
11410.0	1111021324287999.9
11420.0	1117278343167999.9
11430.0	1122655487999999.8
11440.0	1127863660543999.8
11450.0	1134298118143999.8
11460.0	1140195530751999.8
11470.0	1145631381503999.8
11480.0	1150946406399999.8
11490.0	1157599299583999.8
11500.0	1162990884863999.8
11510.0	1168560750591999.8
11520.0	1174591576063999.8
11530.0	1180007495679999.8
11540.0	1185056100351999.8
11550.0	1192109142015999.8
11560.0	1197572261887999.8
11570.0	1203257722879999.8
11580.0	1209303949311999.8
11590.0	1214921537535999.8
11600.0	1219898492927999.8
11610.0	1226066241535999.8
11620.0	1232415180799999.8
11630.0	1238831212543999.8
11640.0	1243279751167999.8
11650.0	1250694363135999.8
11660.0	1254789789695999.8
11670.0	1262023657471999.8
11680.0	1267126315007999.8
11690.0	1270734690303999.8
11700.0	1278858235903999.8
11710.0	1285621362687999.8
11720.0	1292008984575999.8
11730.0	1297357678591999.8
11740.0	1303725291519999.8
11750.0	1309843130367999.8
11760.0	1315097952255999.8
11770.0	1320370001919999.8
11780.0	1323598508031999.8
11790.0	1333522860031999.8
11800.0	1340363493375999.8
11810.0	1346675589119999.8
11820.0	1352553084927999.8
11830.0	1359609485311999.8
11840.0	1365411399679999.8
11850.0	1371707949055999.8
11860.0	1377965219839999.8
11870.0	1384689799167999.8
11880.0	1390629527551999.8
11890.0	1396306313215999.8
11900.0	1403564630015999.8
11910.0	1409929723903999.8
11920.0	1416581181439999.8
11930.0	1423027204095999.8
11940.0	1428114481151999.8
11950.0	1434501570559999.8
11960.0	1441061789695999.8
11970.0	1446551384063999.8
11980.0	1452390764543999.8
11990.0	1459166552063999.8
12000.0	1465676410879999.8
12010.0	1472299089919999.8
12020.0	1478607724543999.8
12030.0	1485136568319999.8
12040.0	1493040300031999.8
12050.0	1499047231487999.5
12060.0	1508100349951999.8
12070.0	1512041934847999.5
12080.0	1520318578687999.5
12090.0	1524686594047999.5
12100.0	1532879220735999.8
12110.0	1537671397375999.8
12120.0	1545042178047999.5
12130.0	1551852531711999.8
12140.0	1560060682239999.8
12150.0	1566874173439999.8
12160.0	1572957175807999.5
12170.0	1579530936319999.8
12180.0	1586750521343999.8
12190.0	1593749385215999.8
12200.0	1598907002879999.8
12210.0	1605720485887999.5
12220.0	1612319506431999.8
12230.0	1618945630207999.5
12240.0	1626716856319999.8
12250.0	1635492564991999.8
12260.0	1641450156031999.8
12270.0	1648220639231999.8
12280.0	1656232800255999.8
12290.0	1662208925695999.8
12300.0	1668956033023999.8
12310.0	1676301578239999.8
12320.0	1681571520511999.8
12330.0	1688912261119999.8
12340.0	1696093360127999.5
12350.0	1702193840127999.5
12360.0	1709269716991999.8
12370.0	1717137924095999.8
12380.0	1723643097087999.5
12390.0	1729859973119999.8
12400.0	1737525125119999.8
12410.0	1741454454783999.5
12420.0	1748738002943999.5
12430.0	1753939636223999.5
12440.0	1759236739071999.8
12450.0	1772167872511999.8
12460.0	1779403075583999.5
12470.0	1786601025535999.8
12480.0	1793245093887999.5
12490.0	1800518655999999.8
12500.0	1805506891775999.8
12510.0	1813747007487999.5
12520.0	1816566472703999.5
12530.0	1821349793791999.8
12540.0	1835420909567999.5
12550.0	1843311075327999.5
12560.0	1850797129727999.5
12570.0	1861416714239999.8
12580.0	1865756684287999.5
12590.0	1873795055615999.8
12600.0	1881464319999999.8
12610.0	1890640617471999.8
12620.0	1894611202047999.5
12630.0	1904271589375999.8
12640.0	1908168941567999.5
12650.0	1917495492607999.5
12660.0	1925472931839999.8
12670.0	1935776649215999.8
12680.0	1941800853503999.5
12690.0	1951342424063999.5
12700.0	1956260495359999.8
12710.0	1965620899839999.8
12720.0	1974774198271999.8
12730.0	1982187519999999.8
12740.0	1986520690687999.5
12750.0	1992054374399999.8
12760.0	2003604946943999.5
12770.0	2010236968959999.8
12780.0	2017514971135999.8
12790.0	2027715350527999.5
12800.0	2032864108543999.5
12810.0	2040777482239999.8
12820.0	2049566674943999.5
12830.0	2055454076927999.5
12840.0	2064262025215999.8
12850.0	2072254812159999.5
12860.0	2074267734015999.8
12870.0	2085195124735999.8
12880.0	2092035457023999.5
12890.0	2100688031743999.5
12900.0	2110859784191999.8
12910.0	2117816500223999.5
12920.0	2123116609535999.8
12930.0	2127034839039999.5
12940.0	2143937765375999.8
12950.0	2146666192895999.8
12960.0	2160183238655999.8
12970.0	2166304604159999.5
12980.0	2176448212991999.8
12990.0	2181433135103999.5
13000.0	2191783768063999.5
13010.0	2196215939071999.8
13020.0	2206615166975999.8
13030.0	2212891406335999.8
13040.0	2221966782463999.5
13050.0	2227385753599999.5
13060.0	2242478526463999.5
13070.0	2237840420863999.5
13080.0	2256131158015999.5
13090.0	2257528528895999.5
13100.0	2267454128127999.5
13110.0	2278811545599999.5
13120.0	2287883079679999.5
13130.0	2291815432191999.5
13140.0	2299953348607999.5
13150.0	2310168240127999.5
13160.0	2315297583103999.5
13170.0	2324216578047999.5
13180.0	2328752422911999.5
13190.0	2342737780735999.5
13200.0	2343399440383999.5
13210.0	2354438631423999.5
13220.0	2360859258879999.5
13230.0	2369158807551999.5
13240.0	2372179415039999.5
13250.0	2375856701439999.5
13260.0	2391507292159999.5
13270.0	2391097085951999.5
13280.0	2401436975103999.5
13290.0	2409252061183999.5
13300.0	2411315814399999.5
13310.0	2414548021247999.5
13320.0	2408828391423999.5
13330.0	2419629551615999.5
13340.0	2431255322623999.5
13350.0	2416134828031999.5
13360.0	2430244704255999.5
13370.0	2425766744063999.5
13380.0	2435793260543999.5
13390.0	2448396967935999.5
13400.0	2455074402303999.5
13410.0	2477268479999999.5
13420.0	2455487078399999.5
13430.0	2470484336639999.5
13440.0	2491818721279999.5
13450.0	2484229656575999.5
13460.0	2503520509951999.5
13470.0	2500277411839999.5
13480.0	2489238269951999.5
13490.0	2520768450559999.5
13500.0	2522617483263999.5
13510.0	2540597186559999.5
13520.0	2540922306559999.5
13530.0	2554023833599999.5
13540.0	2538972987391999.5
13550.0	2537153400831999.5
13560.0	2571554217983999.5
13570.0	2579928559615999.5
13580.0	2590893371391999.5
13590.0	2592437633023999.5
13600.0	2602723205119999.5
13610.0	2619946917887999.5
13620.0	2604861169663999.5
13630.0	2645008887807999.5
13640.0	2651193401343999.5
13650.0	2652425289727999.5
13660.0	2672692539391999.5
13670.0	2675193851903999.5
13680.0	2675217952767999.5
13690.0	2675657625599999.5
13700.0	2694713102335999.5
13710.0	2696583602175999.5
13720.0	2712456888319999.5
13730.0	2723776495615999.5
13740.0	2728740098047999.5
13750.0	2738295152639999.5
13760.0	2751821029375999.5
13770.0	2755172925439999.5
13780.0	2773104963583999.5
13790.0	2773942538239999.5
13800.0	2791937097727999.5
13810.0	2783217393663999.5
13820.0	2798253490175999.0
13830.0	2777577566207999.5
13840.0	2821846519807999.5
13850.0	2806851321855999.0
13860.0	2813876158463999.5
13870.0	2843705942015999.0
13880.0	2838674251775999.0
13890.0	2852720844799999.5
13900.0	2857234374655999.0
13910.0	2858694074367999.5
13920.0	2864944742399999.5
13930.0	2887007051775999.0
13940.0	2879983271935999.0
13950.0	2882327474175999.0
13960.0	2901039296511999.5
13970.0	2915057672191999.5
13980.0	2919661846527999.5
13990.0	2939456200703999.5
14000.0	2925144940543999.5
14010.0	2938071531519999.5
14020.0	2965882454015999.0
14030.0	2968889835519999.5
14040.0	2959799246847999.5
14050.0	2964711137279999.5
14060.0	3014205546495999.0
14070.0	2993000521727999.5
14080.0	3003302453247999.5
14090.0	2996907778047999.5
14100.0	3014271680511999.5
14110.0	3026143559679999.5
14120.0	3005975191551999.5
14130.0	3054482030591999.5
14140.0	3036707848191999.5
14150.0	3054134648831999.5
14160.0	3080669790207999.5
14170.0	3067670994943999.5
14180.0	3066023051263999.5
14190.0	3067607900159999.5
14200.0	3093297774591999.5
14210.0	3107439222783999.5
14220.0	3121392066559999.5
14230.0	3117189398527999.5
14240.0	3114077585407999.5
14250.0	3145941147647999.5
14260.0	3139123806207999.5
14270.0	3168166903807999.5
14280.0	3162143965183999.5
14290.0	3147048730623999.5
14300.0	3205254463487999.5
14310.0	3208293089279999.5
14320.0	3193717628927999.5
14330.0	3213840179199999.5
14340.0	3165174054911999.5
14350.0	3238032441343999.5
14360.0	3253638135807999.5
14370.0	3252118323199999.5
14380.0	3259123400703999.5
14390.0	3259932516351999.5
14400.0	3253222399999999.5
14410.0	3273853607935999.0
14420.0	3286752354303999.5
14430.0	3316446068735999.0
14440.0	3309089701887999.5
14450.0	3292428582911999.5
14460.0	3338412531711999.5
14470.0	3330264416255999.0
14480.0	3357979877375999.0
14490.0	3370553679871999.5
14500.0	3361597915135999.0
14510.0	3348781039615999.0
14520.0	3414232276991999.5
14530.0	3408737173503999.5
14540.0	3391809921023999.5
14550.0	3427973931007999.5
14560.0	3411567280127999.5
14570.0	3394931081215999.0
14580.0	3451809046527999.5
14590.0	3468734513151999.5
14600.0	3476439613439999.5
14610.0	3479542595583999.5
14620.0	3467624636415999.0
14630.0	3461871190015999.0
14640.0	3506818056191999.5
14650.0	3513244114943999.5
14660.0	3532445876223999.5
14670.0	3543348109311999.5
14680.0	3520427778047999.0
14690.0	3528689614847999.0
14700.0	3551777161215999.0
14710.0	3561869115391999.5
14720.0	3577948454911999.5
14730.0	3597909991423999.5
14740.0	3582464450559999.5
14750.0	3591581245439999.5
14760.0	3604673339391999.5
14770.0	3618009350143999.5
14780.0	3632136830975999.0
14790.0	3657481281535999.0
14800.0	3631471771647999.0
14810.0	3662513127423999.5
14820.0	3651943120895999.0
14830.0	3672041160703999.5
14840.0	3698526732287999.0
14850.0	3694876827647999.0
14860.0	3702701490175999.0
14870.0	3720458133503999.5
14880.0	3713936424959999.5
14890.0	3733146640383999.5
14900.0	3731146743807999.0
14910.0	3765346295807999.0
14920.0	3769137127423999.5
14930.0	3777817698303999.5
14940.0	3771051425791999.5
14950.0	3786301366271999.5
14960.0	3799870193663999.5
14970.0	3808571457535999.0
14980.0	3823546286079999.5
14990.0	3837060546559999.5
15000.0	3845852463103999.5
15010.0	3850859683839999.5
15020.0	3832230273023999.5
15030.0	3892439277567999.0
15040.0	3877952806911999.5
15050.0	3902365630463999.5
15060.0	3906119352319999.5
15070.0	3921228070911999.5
15080.0	3914851713023999.5
15090.0	3941350752255999.0
15100.0	3936878026751999.5
15110.0	3947049328639999.5
15120.0	3974551519231999.5
15130.0	3966110711807999.0
15140.0	3977184575487999.0
15150.0	4018935300095999.0
15160.0	4011301797887999.0
15170.0	3998357561343999.5
15180.0	4016812597247999.0
15190.0	4034370117631999.5
15200.0	4045236617215999.0
15210.0	4071173087231999.5
15220.0	4066252333055999.0
15230.0	4086585335807999.0
15240.0	4100743684095999.0
15250.0	4085943681023999.5
15260.0	4100812775423999.5
15270.0	4119735025663999.5
15280.0	4130561171455999.0
15290.0	4141756153855999.0
15300.0	4168113176575999.0
15310.0	4168233033727999.0
15320.0	4147963207679999.0
15330.0	4175926321151999.5
15340.0	4220050833407999.0
15350.0	4205700808703999.5
15360.0	4224541761535999.0
15370.0	4223695167487999.0
15380.0	4233968066559999.0
15390.0	4274526871551999.5
15400.0	4257495547903999.5
15410.0	4261586558975999.0
15420.0	4289574805503999.5
15430.0	4291279568895999.0
15440.0	4290979471359999.0
15450.0	4327373750271999.5
15460.0	4355869081599999.0
15470.0	4335107481599999.0
15480.0	4347693883391999.5
15490.0	4362463248383999.5
15500.0	4381577519103999.5
15510.0	4372413063167999.0
15520.0	4405410127871999.5
15530.0	4417584537599999.0
15540.0	4429971030015999.0
15550.0	4435275079679999.0
15560.0	4432859283455999.0
15570.0	4449494523903999.5
15580.0	4438761193471999.5
15590.0	4472827707391999.5
15600.0	4482573508607999.0
15610.0	4492738535423999.5
15620.0	4519123156991999.0
15630.0	4520747180031999.0
15640.0	4540269731839999.0
15650.0	4526978596863999.0
15660.0	4532742184959999.0
15670.0	4589202055167999.0
15680.0	4609912029183999.0
15690.0	4587084226559999.0
15700.0	4600903540735999.0
15710.0	4620338536447999.0
15720.0	4627041976319999.0
15730.0	4641084334079999.0
15740.0	4666618052607999.0
15750.0	4672545570815999.0
15760.0	4684384747519999.0
15770.0	4694269362175999.0
15780.0	4693407211519999.0
15790.0	4707741777919999.0
15800.0	4726979665919999.0
15810.0	4733899923455999.0
15820.0	4747935514623999.0
15830.0	4779456151551999.0
15840.0	4763409489919999.0
15850.0	4782367637503999.0
15860.0	4817796685823999.0
15870.0	4814016446463999.0
15880.0	4837996437503999.0
15890.0	4850453684223999.0
15900.0	4839112318975999.0
15910.0	4871267794943999.0
15920.0	4878221377535999.0
15930.0	4885351178239999.0
15940.0	4911564095487999.0
15950.0	4926035787775999.0
15960.0	4944459907071999.0
15970.0	4947211010047999.0
15980.0	4942775754751999.0
15990.0	4963636412415999.0
16000.0	4984994496511999.0
16010.0	5003812667391999.0
16020.0	4988012511231999.0
16030.0	5038316331007999.0
16040.0	5027605782527999.0
16050.0	5040162799615999.0
16060.0	5052592234495999.0
16070.0	5069772603391999.0
16080.0	5096797192191999.0
16090.0	5098608107519999.0
16100.0	5108539318271999.0
16110.0	5105568514047999.0
16120.0	5131652734975999.0
16130.0	5154610749439999.0
16140.0	5163613691903999.0
16150.0	5170218475519999.0
16160.0	5197360570367999.0
16170.0	5223882366975999.0
16180.0	5244954738687999.0
16190.0	5206518988799999.0
16200.0	5231721914367999.0
16210.0	5233636827135999.0
16220.0	5275663441919999.0
16230.0	5291273895935999.0
16240.0	5310806081535999.0
16250.0	5314253119487999.0
16260.0	5315794616319999.0
16270.0	5344877625343999.0
16280.0	5360328638463999.0
16290.0	5345467072511999.0
16300.0	5389581803519999.0
16310.0	5371653931007999.0
16320.0	5401557475327999.0
16330.0	5428012826623999.0
16340.0	5450176593919999.0
16350.0	5449429852159999.0
16360.0	5472864837631999.0
16370.0	5483989794815999.0
16380.0	5502655946751999.0
16390.0	5501772767231999.0
16400.0	5517799538687999.0
16410.0	5536864370687999.0
16420.0	5523971260415999.0
16430.0	5544085635071999.0
16440.0	5577531342847999.0
16450.0	5601997619199999.0
