# Flux units: erg / (cm m2 s)
# Wavelength units: Angstrom
wave	flux
9000.0	250526123007999.94
9010.0	253047631871999.97
9020.0	255432892415999.94
9030.0	257656084479999.97
9040.0	260205267967999.94
9050.0	262923284479999.94
9060.0	265153198079999.94
9070.0	267713608703999.97
9080.0	271013060607999.94
9090.0	273187706879999.94
9100.0	275474818047999.94
9110.0	278175538175999.94
9120.0	281285779455999.94
9130.0	283708318719999.94
9140.0	286182913023999.94
9150.0	289163095039999.94
9160.0	292060364799999.94
9170.0	294837626879999.94
9180.0	297137712127999.94
9190.0	300702254079999.94
9200.0	302845456383999.94
9210.0	304702941183999.94
9220.0	307198779391999.94
9230.0	309231405055999.94
9240.0	312510514175999.94
9250.0	315334762495999.94
9260.0	318166312959999.94
9270.0	320901499903999.94
9280.0	323335999487999.94
9290.0	326272911359999.94
9300.0	329304129535999.94
9310.0	332024426495999.94
9320.0	335198226431999.94
9330.0	337935765503999.94
9340.0	341030751231999.94
9350.0	343386529791999.94
9360.0	346985003007999.94
9370.0	349815609343999.94
9380.0	353465174015999.94
9390.0	356142862335999.94
9400.0	359497025535999.94
9410.0	362504722431999.9
9420.0	366210676735999.94
9430.0	369275226111999.9
9440.0	372024817663999.94
9450.0	375234895871999.9
9460.0	378647226367999.94
9470.0	381492942847999.94
9480.0	385475182591999.9
9490.0	389656195071999.9
9500.0	390626174975999.94
9510.0	394914959359999.94
9520.0	399048630271999.9
9530.0	402125021183999.94
9540.0	406547755007999.94
9550.0	408835450879999.94
9560.0	412402247679999.94
9570.0	415538325503999.94
9580.0	420889157631999.9
9590.0	424201101311999.9
9600.0	426100105215999.94
9610.0	430669541375999.94
9620.0	432883744767999.94
9630.0	439037245439999.94
9640.0	439256872959999.94
9650.0	443736002559999.94
9660.0	449709389823999.94
9670.0	453709678591999.9
9680.0	455671695359999.94
9690.0	459501029375999.9
9700.0	464723570687999.94
9710.0	466068637695999.9
9720.0	471507369983999.94
9730.0	473568921599999.94
9740.0	477010751487999.94
9750.0	481120290815999.9
9760.0	484842633215999.9
9770.0	488833366015999.9
9780.0	492402933759999.94
9790.0	495140214783999.94
9800.0	501258485759999.94
9810.0	504571254783999.94
9820.0	506277031935999.9
9830.0	511200929791999.9
9840.0	516341983231999.9
9850.0	520456472575999.9
9860.0	524968304639999.9
9870.0	529365215231999.9
9880.0	532533788671999.9
9890.0	538982068223999.94
9900.0	532402796543999.94
9910.0	532265738239999.9
9920.0	535831476223999.94
9930.0	541484703743999.94
9940.0	547342868479999.9
9950.0	552451332095999.9
9960.0	556497885183999.94
9970.0	560630757375999.9
9980.0	563754227711999.9
9990.0	567026575359999.9
10000.0	572740709375999.9
10010.0	577634205695999.9
10020.0	582120070143999.9
10030.0	588314952703999.9
10040.0	590253131775999.9
10050.0	595047892991999.9
10060.0	594843896831999.9
10070.0	602654888959999.9
10080.0	608534789119999.9
10090.0	612869524479999.9
10100.0	618520594431999.9
10110.0	621331353599999.9
10120.0	624829175807999.9
10130.0	630486534143999.9
10140.0	632447289343999.9
10150.0	638773310463999.9
10160.0	642007280639999.9
10170.0	646187454463999.9
10180.0	652649900031999.9
10190.0	656269959167999.9
10200.0	660320382975999.9
10210.0	667345138687999.9
10220.0	668800990207999.9
10230.0	675673287679999.9
10240.0	681377944575999.9
10250.0	685824115711999.9
10260.0	686981922815999.9
10270.0	693443418111999.9
10280.0	697541533695999.9
10290.0	703237476351999.9
10300.0	707370452991999.9
10310.0	715040616447999.9
10320.0	717799323647999.9
10330.0	724939657215999.9
10340.0	726955526143999.8
10350.0	734236694527999.9
10360.0	740556554239999.9
10370.0	747920586751999.9
10380.0	749457919999999.9
10390.0	752965406719999.9
10400.0	761804875775999.9
10410.0	770261983231999.9
10420.0	768533463039999.9
10430.0	771139239935999.9
10440.0	784232112127999.9
10450.0	795886264319999.9
10460.0	809453074431999.9
10470.0	792232529919999.9
10480.0	800498522111999.9
10490.0	814310152191999.9
10500.0	815829174271999.9
10510.0	820514428927999.9
10520.0	819735838719999.9
10530.0	836679991295999.9
10540.0	845218848767999.9
10550.0	851338207231999.9
10560.0	848873689087999.9
10570.0	848695295999999.9
10580.0	867365414911999.8
10590.0	870868293631999.8
10600.0	884915967999999.9
10610.0	885986312191999.8
10620.0	882066716671999.8
10630.0	903788529663999.8
10640.0	924466159615999.9
10650.0	914676596735999.9
10660.0	914516697087999.9
10670.0	913293621247999.9
10680.0	934589552639999.9
10690.0	951278292991999.8
10700.0	955002353663999.8
10710.0	956767754239999.9
10720.0	973535741951999.8
10730.0	964467427327999.9
10740.0	973955262463999.8
10750.0	993441128447999.9
10760.0	997103177727999.9
10770.0	1015729862655999.9
10780.0	1032712792063999.8
10790.0	1030700953599999.9
10800.0	1042700167167999.9
10810.0	1030942707711999.8
10820.0	1042878771199999.8
10830.0	1057814073343999.8
10840.0	1087250548735999.9
10850.0	1078017028095999.9
10860.0	1075182667775999.9
10870.0	1077714399231999.8
10880.0	1101175713791999.8
10890.0	1067464296447999.9
10900.0	1094034665471999.8
10910.0	1092937304063999.8
10920.0	1116962197503999.8
10930.0	1123862841343999.8
10940.0	1121821183999999.8
10950.0	1131683250175999.8
10960.0	1120156348415999.9
10970.0	1141869436927999.8
10980.0	1134988875775999.8
10990.0	1143081910271999.8
11000.0	1142781782015999.8
11010.0	1156431452159999.8
11020.0	1159730548735999.8
11030.0	1148687532031999.8
11040.0	1150027079679999.8
11050.0	1163412770815999.8
11060.0	1163381686271999.8
11070.0	1166585876479999.8
11080.0	1176847210495999.8
11090.0	1185554794495999.8
11100.0	1182189307903999.8
11110.0	1178989623295999.8
11120.0	1208473735167999.8
11130.0	1216908009471999.8
11140.0	1216403974143999.8
11150.0	1224235812863999.8
11160.0	1238449207295999.8
11170.0	1233090443263999.8
11180.0	1270399309823999.8
11190.0	1256952602623999.8
11200.0	1250695374847999.8
11210.0	1267057721343999.8
11220.0	1282776133631999.8
11230.0	1293110736895999.8
11240.0	1309188237311999.8
11250.0	1314491725823999.8
11260.0	1324390451199999.8
11270.0	1332818288639999.8
11280.0	1344654847999999.8
11290.0	1353577086975999.8
11300.0	1336298885119999.8
11310.0	1368711340031999.8
11320.0	1370544031743999.8
11330.0	1363324264447999.8
11340.0	1347069999103999.8
11350.0	1336996470783999.8
11360.0	1377713369087999.8
11370.0	1388528959487999.8
11380.0	1365836193791999.8
11390.0	1389139951615999.8
11400.0	1397231710207999.5
11410.0	1380565901311999.8
11420.0	1433620533247999.5
11430.0	1434535755775999.8
11440.0	1428724588543999.8
11450.0	1468370657279999.8
11460.0	1485324341247999.5
11470.0	1482487181311999.8
11480.0	1473110659071999.8
11490.0	1526740750335999.8
11500.0	1531479769087999.5
11510.0	1528174006271999.8
11520.0	1541806178303999.8
11530.0	1527134810111999.8
11540.0	1525517660159999.8
11550.0	1577431220223999.8
11560.0	1565006467071999.8
11570.0	1572199731199999.8
11580.0	1585494396927999.5
11590.0	1592994426879999.8
11600.0	1580463308799999.8
11610.0	1576859459583999.8
11620.0	1603442364415999.8
11630.0	1641856086015999.8
11640.0	1602008387583999.8
11650.0	1658953383935999.8
11660.0	1612737466367999.5
11670.0	1651850461183999.8
11680.0	1627694972927999.5
11690.0	1563153317887999.5
11700.0	1604574986239999.8
11710.0	1668949401599999.8
11720.0	1696925810687999.5
11730.0	1697301921791999.8
11740.0	1691668357119999.8
11750.0	1700171726847999.5
11760.0	1670515699711999.8
11770.0	1638728179711999.8
11780.0	1622474735615999.8
11790.0	1702944464895999.8
11800.0	1743286980607999.5
11810.0	1760962883583999.5
11820.0	1770956271615999.8
11830.0	1807373041663999.5
11840.0	1795958956031999.8
11850.0	1823061860351999.8
11860.0	1821918203903999.5
11870.0	1847444529151999.8
11880.0	1847985061887999.5
11890.0	1825935036415999.8
11900.0	1873121804287999.5
11910.0	1890451828735999.8
11920.0	1911115419647999.5
11930.0	1924368584703999.5
11940.0	1883439075327999.5
11950.0	1892335919103999.5
11960.0	1911220854783999.5
11970.0	1873362587647999.5
11980.0	1858274684927999.5
11990.0	1887341932543999.5
12000.0	1885548642303999.5
12010.0	1907752030207999.5
12020.0	1911479422975999.8
12030.0	1948986687487999.5
12040.0	1998149488639999.8
12050.0	1984963637247999.5
12060.0	2111314608127999.5
12070.0	2007791808511999.8
12080.0	2086127185919999.5
12090.0	2026350645247999.5
12100.0	2110363095039999.5
12110.0	2029531004927999.5
12120.0	2090658938879999.5
12130.0	2109497815039999.5
12140.0	2170742874111999.8
12150.0	2199040167935999.8
12160.0	2172941168639999.5
12170.0	2176646918143999.5
12180.0	2204236910591999.8
12190.0	2260643565567999.5
12200.0	2200435019775999.8
12210.0	2199177215999999.5
12220.0	2206775005183999.5
12230.0	2187850690559999.5
12240.0	2244041367551999.8
12250.0	2299464896511999.5
12260.0	2294517645311999.5
12270.0	2304841318399999.5
12280.0	2363342016511999.5
12290.0	2325227347967999.5
12300.0	2336813182975999.5
12310.0	2414472642559999.5
12320.0	2323635711999999.5
12330.0	2329745068031999.5
12340.0	2364382531583999.5
12350.0	2342833221631999.5
12360.0	2366267367423999.5
12370.0	2400530309119999.5
12380.0	2398261346303999.5
12390.0	2389356929023999.5
12400.0	2435504005119999.5
12410.0	2333619007487999.5
12420.0	2337537048575999.5
12430.0	2292288933887999.5
12440.0	2256346169343999.5
12450.0	2476204244991999.5
12460.0	2469435510783999.5
12470.0	2484602601471999.5
12480.0	2491960979455999.5
12490.0	2499069325311999.5
12500.0	2427082235903999.5
12510.0	2508519596031999.5
12520.0	2333957152767999.5
12530.0	2357393637375999.5
12540.0	2543948419071999.5
12550.0	2542353391615999.5
12560.0	2570341773311999.5
12570.0	2679254589439999.5
12580.0	2604776554495999.5
12590.0	2652559499263999.5
12600.0	2672339525631999.5
12610.0	2733076426751999.5
12620.0	2631442993151999.5
12630.0	2740044488703999.5
12640.0	2679278043135999.5
12650.0	2702389952511999.5
12660.0	2752885436415999.5
12670.0	2848173506559999.5
12680.0	2835296866303999.5
12690.0	2880835936255999.0
12700.0	2825725984767999.5
12710.0	2896373686271999.5
12720.0	2953155092479999.5
12730.0	2936505081855999.0
12740.0	2876175527935999.0
12750.0	2870277754879999.5
12760.0	2980349394943999.5
12770.0	2945478983679999.5
12780.0	2966118842367999.5
12790.0	3006311841791999.5
12800.0	2978247507967999.5
12810.0	3033706405887999.5
12820.0	3027566616575999.0
12830.0	2970915471359999.5
12840.0	3059502415871999.5
12850.0	2990991818751999.5
12860.0	2920981508095999.0
12870.0	3032600350719999.5
12880.0	3031237361663999.5
12890.0	3000249929727999.5
12900.0	3131034988543999.5
12910.0	3106490351615999.0
12920.0	3074068185087999.5
12930.0	2999391756287999.5
12940.0	3182070398975999.0
12950.0	3048273944575999.0
12960.0	3223848558591999.5
12970.0	3197631971327999.5
12980.0	3285961334783999.5
12990.0	3194076856319999.5
13000.0	3289362251775999.0
13010.0	3197893287935999.0
13020.0	3256029814783999.5
13030.0	3292859727871999.5
13040.0	3313704214527999.5
13050.0	3271077486591999.5
13060.0	3419153555455999.0
13070.0	3149602234367999.5
13080.0	3418109050879999.5
13090.0	3282622431231999.5
13100.0	3300012072959999.5
13110.0	3439550840831999.5
13120.0	3459610935295999.0
13130.0	3399189954559999.5
13140.0	3423618752511999.5
13150.0	3434897088511999.5
13160.0	3429427060735999.0
13170.0	3447463534591999.5
13180.0	3403173437439999.5
13190.0	3518490206207999.0
13200.0	3382768181247999.5
13210.0	3466140934143999.5
13220.0	3444528357375999.0
13230.0	3457714675711999.5
13240.0	3394771632127999.5
13250.0	3320687181823999.5
13260.0	3465362595839999.5
13270.0	3303100833791999.5
13280.0	3379146317823999.5
13290.0	3381557772287999.5
13300.0	3292735389695999.0
13310.0	3215379415039999.5
13320.0	3030613745663999.5
13330.0	3110878986239999.5
13340.0	3141160189951999.5
13350.0	2922837204991999.5
13360.0	2973001457663999.5
13370.0	2914416177151999.5
13380.0	2944092811263999.5
13390.0	2982208356351999.5
13400.0	3004570279935999.0
13410.0	3073304600575999.0
13420.0	2963050749951999.5
13430.0	2971007721471999.5
13440.0	3059520061439999.5
13450.0	2986258825215999.0
13460.0	3070513639423999.5
13470.0	3012756942847999.5
13480.0	2941407862783999.5
13490.0	3075514204159999.5
13500.0	3065309814783999.5
13510.0	3052777922559999.5
13520.0	3042840862719999.5
13530.0	3109254668287999.5
13540.0	2998083862527999.5
13550.0	3017869058047999.5
13560.0	3091314155519999.5
13570.0	3105992032255999.0
13580.0	3116065816575999.0
13590.0	3127551377407999.5
13600.0	3144681627647999.5
13610.0	3167609552895999.0
13620.0	3066101637119999.5
13630.0	3249302372351999.5
13640.0	3259595169791999.5
13650.0	3195159060479999.5
13660.0	3299352805375999.0
13670.0	3265806704639999.5
13680.0	3257133391871999.5
13690.0	3228887728127999.5
13700.0	3278953095167999.5
13710.0	3257729327103999.5
13720.0	3305642598399999.5
13730.0	3320273051647999.5
13740.0	3316181131263999.5
13750.0	3349474525183999.5
13760.0	3383095468031999.5
13770.0	3360769949695999.0
13780.0	3436621774847999.5
13790.0	3406661550079999.5
13800.0	3485187809279999.5
13810.0	3385016344575999.0
13820.0	3472513327103999.5
13830.0	3307643084799999.5
13840.0	3506232778751999.5
13850.0	3422365564927999.5
13860.0	3420627058687999.5
13870.0	3526400376831999.5
13880.0	3419432992767999.5
13890.0	3548315754495999.0
13900.0	3504046055423999.5
13910.0	3447982587903999.5
13920.0	3474446450687999.0
13930.0	3519087534079999.5
13940.0	3498738819071999.5
13950.0	3484722069503999.5
13960.0	3495125721087999.0
13970.0	3546999758847999.0
13980.0	3505357422591999.5
13990.0	3592398872575999.0
14000.0	3512478588927999.0
14010.0	3495475904511999.5
14020.0	3646388715519999.5
14030.0	3617703706623999.5
14040.0	3554218041343999.5
14050.0	3561824296959999.5
14060.0	3778780749823999.5
14070.0	3588760961023999.5
14080.0	3620221558783999.5
14090.0	3609284935679999.5
14100.0	3635359604735999.0
14110.0	3661553115135999.0
14120.0	3566419542015999.0
14130.0	3737708380159999.5
14140.0	3627959861247999.0
14150.0	3674194305023999.5
14160.0	3776278962175999.0
14170.0	3682294325247999.0
14180.0	3631706374143999.5
14190.0	3652151295999999.5
14200.0	3737083707391999.5
14210.0	3765598740479999.5
14220.0	3755901763583999.5
14230.0	3719202381823999.5
14240.0	3694449901567999.0
14250.0	3792477282303999.5
14260.0	3725592125439999.5
14270.0	3830051733503999.5
14280.0	3784408309759999.5
14290.0	3679013453823999.5
14300.0	3945560383487999.0
14310.0	3929859997695999.0
14320.0	3810227101695999.0
14330.0	3877818769407999.0
14340.0	3698454593535999.0
14350.0	3949830963199999.5
14360.0	3973613363199999.5
14370.0	3927217127423999.5
14380.0	3946616897535999.0
14390.0	3954121809919999.5
14400.0	3899908644863999.5
14410.0	3910344351743999.5
14420.0	3949171277823999.5
14430.0	4084473569279999.5
14440.0	4030746738687999.0
14450.0	3890294956031999.5
14460.0	4074159718399999.5
14470.0	3991178993663999.5
14480.0	4114782830591999.5
14490.0	4160379936767999.0
14500.0	4055872659455999.0
14510.0	3975263993855999.0
14520.0	4295804231679999.0
14530.0	4221831233535999.0
14540.0	4082257002495999.0
14550.0	4262162014207999.0
14560.0	4131467575295999.0
14570.0	4061601742847999.0
14580.0	4273799274495999.0
14590.0	4337904541695999.0
14600.0	4328612093951999.5
14610.0	4307535380479999.0
14620.0	4215589199871999.5
14630.0	4132009664511999.5
14640.0	4346893647871999.5
14650.0	4341196939263999.5
14660.0	4416220340223999.5
14670.0	4433022590975999.0
14680.0	4269105905663999.5
14690.0	4261321908223999.5
14700.0	4360442839039999.0
14710.0	4395431600127999.0
14720.0	4445362528255999.0
14730.0	4516959928319999.0
14740.0	4381955760127999.0
14750.0	4389064359935999.0
14760.0	4441600106495999.0
14770.0	4475260329983999.5
14780.0	4519698489343999.0
14790.0	4624006971391999.0
14800.0	4430654226431999.5
14810.0	4565696159743999.0
14820.0	4453717065727999.0
14830.0	4544091095039999.0
14840.0	4652425150463999.0
14850.0	4580405223423999.0
14860.0	4598791946239999.0
14870.0	4659169820671999.0
14880.0	4584551743487999.0
14890.0	4641789263871999.0
14900.0	4598351462399999.0
14910.0	4757576343551999.0
14920.0	4725279252479999.0
14930.0	4743560863743999.0
14940.0	4658851659775999.0
14950.0	4708148789247999.0
14960.0	4739808993279999.0
14970.0	4766396358655999.0
14980.0	4804041211903999.0
14990.0	4843130503167999.0
15000.0	4846842437631999.0
15010.0	4834885148671999.0
15020.0	4693729034239999.0
15030.0	4984061198335999.0
15040.0	4868297310207999.0
15050.0	4964962344959999.0
15060.0	4944365379583999.0
15070.0	4988792659967999.0
15080.0	4913652531199999.0
15090.0	5030326542335999.0
15100.0	4961942200319999.0
15110.0	4968401887231999.0
15120.0	5094923485183999.0
15130.0	4998763610111999.0
15140.0	5033293750271999.0
15150.0	5244817235967999.0
15160.0	5144637890559999.0
15170.0	5044261298175999.0
15180.0	5084672729087999.0
15190.0	5151417991167999.0
15200.0	5170234966015999.0
15210.0	5276632154111999.0
15220.0	5201678213119999.0
15230.0	5291319115775999.0
15240.0	5325821747199999.0
15250.0	5197405044735999.0
15260.0	5245101129727999.0
15270.0	5302549102591999.0
15280.0	5324363120639999.0
15290.0	5365133361151999.0
15300.0	5460229791743999.0
15310.0	5418939236351999.0
15320.0	5267778043903999.0
15330.0	5377973952511999.0
15340.0	5605761007615999.0
15350.0	5468968173567999.0
15360.0	5530187775999999.0
15370.0	5480356282367999.0
15380.0	5493179015167999.0
15390.0	5700016709631998.0
15400.0	5550918483967999.0
15410.0	5541711659007999.0
15420.0	5654435250175999.0
15430.0	5631114608639999.0
15440.0	5570768371711998.0
15450.0	5739460296703999.0
15460.0	5873511759871998.0
15470.0	5704784216063999.0
15480.0	5729278263295999.0
15490.0	5768917647359999.0
15500.0	5851589214207999.0
15510.0	5735439106047999.0
15520.0	5878572285951998.0
15530.0	5905830182911998.0
15540.0	5950463721471998.0
15550.0	5922870591487999.0
15560.0	5873363812351998.0
15570.0	5916127117311998.0
15580.0	5821492625407999.0
15590.0	5954421440511998.0
15600.0	6013479944191998.0
15610.0	6005604073471998.0
15620.0	6103069966335999.0
15630.0	6087374209023999.0
15640.0	6133072576511998.0
15650.0	6025956491263999.0
15660.0	6014250024959999.0
15670.0	6263775952895999.0
15680.0	6359532273663999.0
15690.0	6177336672255999.0
15700.0	6225685430271998.0
15710.0	6278925549567999.0
15720.0	6276032659455999.0
15730.0	6307592601599999.0
15740.0	6399860735999999.0
15750.0	6371522527231998.0
15760.0	6404660887551998.0
15770.0	6448687464447999.0
15780.0	6375064649727999.0
15790.0	6429552492543999.0
15800.0	6473231794175999.0
15810.0	6469945851903999.0
15820.0	6494202658815999.0
15830.0	6615572561919999.0
15840.0	6527111086079999.0
15850.0	6548875378687999.0
15860.0	6692546002943999.0
15870.0	6662642728959999.0
15880.0	6730644570111998.0
15890.0	6758819282943999.0
15900.0	6652763979775999.0
15910.0	6795903434751998.0
15920.0	6776601149439999.0
15930.0	6750399053823999.0
15940.0	6843462451199999.0
15950.0	6872335024127999.0
15960.0	6940810149887999.0
15970.0	6915794796543999.0
15980.0	6859541250047999.0
15990.0	6885247811583999.0
16000.0	6974439227391998.0
16010.0	7050181427199999.0
16020.0	6908642623487999.0
16030.0	7098100498431998.0
16040.0	7023410806783999.0
16050.0	7037955178495998.0
16060.0	7049692217343999.0
16070.0	7132282339327999.0
16080.0	7166268833791998.0
16090.0	7145715941375998.0
16100.0	7188160151551998.0
16110.0	7161731104767999.0
16120.0	7219492929535998.0
16130.0	7251132809215998.0
16140.0	7226586759167999.0
16150.0	7239909523455998.0
16160.0	7345896194047999.0
16170.0	7447917199359999.0
16180.0	7455308709887999.0
16190.0	7291399110655998.0
16200.0	7354460159999999.0
16210.0	7309888323583999.0
16220.0	7476032045055998.0
16230.0	7495319519231998.0
16240.0	7520726745087999.0
16250.0	7498122641407999.0
16260.0	7533045186559999.0
16270.0	7606787670015998.0
16280.0	7600708321279999.0
16290.0	7521829715967999.0
16300.0	7655829241855998.0
16310.0	7572713914367999.0
16320.0	7590052184063999.0
16330.0	7718810140671998.0
16340.0	7741367287807999.0
16350.0	7714599387135998.0
16360.0	7747644686335998.0
16370.0	7752303001599999.0
16380.0	7811113058303999.0
16390.0	7793154785279999.0
16400.0	7801391448063999.0
16410.0	7831047847935998.0
16420.0	7747345121279999.0
16430.0	7804953919487999.0
16440.0	7871118360575998.0
