# Flux units: erg / (cm m2 s)
# Wavelength units: Angstrom
wave	flux
9000.0	265161147391999.97
9010.0	267810202623999.97
9020.0	270313527295999.94
9030.0	272720262143999.97
9040.0	275436249087999.94
9050.0	278161812479999.94
9060.0	280448594943999.97
9070.0	283239728127999.94
9080.0	286264123391999.94
9090.0	288741204991999.94
9100.0	291371317247999.94
9110.0	294066227199999.94
9120.0	297076371455999.94
9130.0	299723692031999.94
9140.0	302389042175999.94
9150.0	305342509055999.94
9160.0	308217240575999.94
9170.0	311087598591999.94
9180.0	313718846463999.94
9190.0	317000982527999.94
9200.0	319541605375999.94
9210.0	322095924223999.94
9220.0	325050973183999.94
9230.0	326974853119999.94
9240.0	330777400319999.94
9250.0	333797581823999.94
9260.0	336784073727999.94
9270.0	339613293567999.94
9280.0	342166213631999.94
9290.0	345376309247999.94
9300.0	348482265087999.94
9310.0	351373879295999.94
9320.0	354807023615999.94
9330.0	357666244607999.94
9340.0	361010835455999.94
9350.0	363331471359999.94
9360.0	367305201663999.94
9370.0	370360258559999.94
9380.0	374158897151999.9
9390.0	376868329471999.9
9400.0	380291262463999.94
9410.0	383566809087999.94
9420.0	387386982399999.94
9430.0	390639687679999.94
9440.0	393657462783999.94
9450.0	397224151039999.94
9460.0	400493496319999.94
9470.0	403880288255999.94
9480.0	407785846783999.94
9490.0	411861641215999.94
9500.0	412707497983999.94
9510.0	417729812479999.94
9520.0	421782542335999.94
9530.0	425273149439999.94
9540.0	429529755647999.94
9550.0	432279592959999.94
9560.0	436081289215999.9
9570.0	438950832127999.94
9580.0	444281380863999.94
9590.0	447823570943999.94
9600.0	450459187199999.94
9610.0	454643396607999.94
9620.0	457269671935999.9
9630.0	462931560447999.94
9640.0	464302131199999.94
9650.0	468487743487999.94
9660.0	474036799487999.94
9670.0	478091565055999.9
9680.0	480649007103999.94
9690.0	484389083135999.9
9700.0	489595039743999.94
9710.0	491757621247999.94
9720.0	496627331071999.9
9730.0	500089759743999.94
9740.0	503802497023999.94
9750.0	508556281855999.9
9760.0	511844253695999.9
9770.0	516445888511999.9
9780.0	520127799295999.9
9790.0	523149729791999.9
9800.0	528889538559999.9
9810.0	533166499839999.9
9820.0	535559856127999.94
9830.0	540580173823999.94
9840.0	545255307263999.94
9850.0	550586341375999.9
9860.0	554079281151999.9
9870.0	558854209535999.9
9880.0	562528657407999.94
9890.0	568784592895999.9
9900.0	563173541887999.9
9910.0	564098088959999.9
9920.0	567758288895999.9
9930.0	573290778623999.9
9940.0	578964701183999.9
9950.0	584356722687999.9
9960.0	588416409599999.9
9970.0	592433483775999.9
9980.0	596023060479999.9
9990.0	600029687807999.9
10000.0	605361375231999.9
10010.0	610784151551999.9
10020.0	615322243071999.9
10030.0	622273102847999.9
10040.0	624110736383999.9
10050.0	629195362303999.9
10060.0	629607665663999.9
10070.0	636949325823999.9
10080.0	643363241983999.9
10090.0	648049114111999.9
10100.0	653995934719999.9
10110.0	657262474239999.9
10120.0	660035750911999.9
10130.0	665623743487999.9
10140.0	668768002047999.9
10150.0	674215738367999.9
10160.0	678335440895999.9
10170.0	683211476991999.9
10180.0	689376016383999.9
10190.0	693396045823999.9
10200.0	697949816831999.9
10210.0	704941791231999.9
10220.0	707108145151999.9
10230.0	713594238975999.9
10240.0	720484048895999.9
10250.0	724823003135999.9
10260.0	726498713599999.9
10270.0	733409040383999.8
10280.0	737942441983999.8
10290.0	743723517951999.9
10300.0	747982516223999.8
10310.0	756662556671999.9
10320.0	758995288063999.8
10330.0	766092560383999.8
10340.0	768645914623999.8
10350.0	777057429503999.8
10360.0	784282261503999.8
10370.0	792107939839999.9
10380.0	793244770303999.8
10390.0	796705482751999.9
10400.0	806389166079999.9
10410.0	816882292735999.9
10420.0	813179516927999.9
10430.0	816730720255999.9
10440.0	832073330687999.9
10450.0	845516951551999.9
10460.0	854371373055999.9
10470.0	839307010047999.9
10480.0	849874360319999.9
10490.0	864069648383999.8
10500.0	864671111167999.9
10510.0	869062324223999.8
10520.0	869539684351999.8
10530.0	885503428607999.9
10540.0	897249110015999.9
10550.0	902050185215999.9
10560.0	904991731711999.8
10570.0	902704097279999.9
10580.0	917946208255999.9
10590.0	923263412223999.8
10600.0	938327691263999.8
10610.0	941252743167999.9
10620.0	940165242879999.9
10630.0	961190529023999.8
10640.0	973537404927999.9
10650.0	963867928575999.9
10660.0	966799687679999.9
10670.0	973453729791999.8
10680.0	987181395967999.9
10690.0	998347247615999.9
10700.0	1003123847167999.9
10710.0	1001953339391999.8
10720.0	1020155258879999.9
10730.0	1019112386559999.9
10740.0	1021300131839999.9
10750.0	1041348257791999.8
10760.0	1040776171519999.8
10770.0	1059140808703999.8
10780.0	1077561860095999.9
10790.0	1075579693055999.9
10800.0	1087236982783999.8
10810.0	1077602830335999.9
10820.0	1087821819903999.8
10830.0	1100988661759999.8
10840.0	1126729564159999.8
10850.0	1118771789823999.8
10860.0	1119385610239999.8
10870.0	1124755060735999.9
10880.0	1144744321023999.8
10890.0	1118812919807999.9
10900.0	1144207855615999.8
10910.0	1142118752255999.8
10920.0	1164415496191999.8
10930.0	1175365730303999.8
10940.0	1173881171967999.8
10950.0	1183283755007999.8
10960.0	1175870867455999.8
10970.0	1196454199295999.8
10980.0	1189469110271999.8
10990.0	1200412143615999.8
11000.0	1201463597055999.8
11010.0	1216911548415999.8
11020.0	1216847683583999.8
11030.0	1211765907455999.8
11040.0	1214605144063999.8
11050.0	1229146378239999.8
11060.0	1232089925631999.8
11070.0	1234765848575999.8
11080.0	1243663009791999.8
11090.0	1251082942463999.8
11100.0	1250051799039999.8
11110.0	1247370356735999.8
11120.0	1275205623807999.8
11130.0	1284526901247999.8
11140.0	1287939319807999.8
11150.0	1292121202687999.8
11160.0	1307984955391999.8
11170.0	1306669848575999.8
11180.0	1337631700991999.8
11190.0	1326560571391999.8
11200.0	1324669110271999.8
11210.0	1339081345023999.8
11220.0	1354441703423999.8
11230.0	1365707935743999.8
11240.0	1380715040767999.8
11250.0	1383936286719999.8
11260.0	1396265672703999.8
11270.0	1405581287423999.8
11280.0	1415506100223999.8
11290.0	1425973526527999.5
11300.0	1410167197695999.8
11310.0	1444527796223999.8
11320.0	1448247492607999.5
11330.0	1436139106303999.8
11340.0	1424637460479999.8
11350.0	1417774014463999.8
11360.0	1454285123583999.8
11370.0	1463426170879999.8
11380.0	1436360355839999.8
11390.0	1459387346943999.8
11400.0	1466236063743999.8
11410.0	1448935514111999.8
11420.0	1507310235647999.5
11430.0	1513862262783999.8
11440.0	1516522156031999.8
11450.0	1546239995903999.8
11460.0	1565117153279999.8
11470.0	1565923049471999.8
11480.0	1554572230655999.8
11490.0	1603417448447999.5
11500.0	1615745961983999.8
11510.0	1612862152703999.8
11520.0	1625030672383999.8
11530.0	1614218076159999.8
11540.0	1613869002751999.8
11550.0	1659780239359999.8
11560.0	1650168037375999.8
11570.0	1657895501823999.8
11580.0	1669737906175999.8
11590.0	1676526346239999.8
11600.0	1674908323839999.8
11610.0	1669327536127999.5
11620.0	1689557147647999.5
11630.0	1723734286335999.8
11640.0	1699258417151999.8
11650.0	1739642687487999.5
11660.0	1699970555903999.8
11670.0	1730342301695999.8
11680.0	1701754462207999.5
11690.0	1637152780287999.5
11700.0	1681611575295999.8
11710.0	1742351560703999.5
11720.0	1775475449855999.8
11730.0	1781451608063999.5
11740.0	1775186219007999.5
11750.0	1779725291519999.8
11760.0	1751961100287999.5
11770.0	1713024192511999.8
11780.0	1700347207679999.8
11790.0	1781790879743999.5
11800.0	1825124081663999.5
11810.0	1847083675647999.5
11820.0	1865670807551999.8
11830.0	1897647689727999.5
11840.0	1895665242111999.8
11850.0	1920912216063999.5
11860.0	1923611934719999.8
11870.0	1947216175103999.5
11880.0	1945033719807999.5
11890.0	1929766756351999.8
11900.0	1980389240831999.8
11910.0	1995484864511999.8
11920.0	2015436427263999.5
11930.0	2020225396735999.8
11940.0	1999034159103999.5
11950.0	2017361014783999.5
11960.0	2038269243391999.8
11970.0	1998578458623999.5
11980.0	1977835978751999.8
11990.0	2046300184575999.8
12000.0	2024064446463999.5
12010.0	2066043207679999.5
12020.0	2071887958015999.8
12030.0	2134964862975999.8
12040.0	2097970266111999.8
12050.0	2123054166015999.8
12060.0	2215393751039999.5
12070.0	2148515749887999.5
12080.0	2192755085311999.8
12090.0	2150923599871999.8
12100.0	2216889343999999.5
12110.0	2155703545855999.8
12120.0	2198912868351999.8
12130.0	2228451975167999.5
12140.0	2266342801407999.5
12150.0	2302172651519999.5
12160.0	2275734913023999.5
12170.0	2280534216703999.5
12180.0	2305652269055999.5
12190.0	2360995856383999.5
12200.0	2302239170559999.5
12210.0	2310588313599999.5
12220.0	2388900646911999.5
12230.0	2365789356031999.5
12240.0	2381786435583999.5
12250.0	2391367282687999.5
12260.0	2414576119807999.5
12270.0	2441154035711999.5
12280.0	2464191889407999.5
12290.0	2458328477695999.5
12300.0	2475932962815999.5
12310.0	2536264097791999.5
12320.0	2486128496639999.5
12330.0	2502859481087999.5
12340.0	2551856664575999.5
12350.0	2524886286335999.5
12360.0	2555744526335999.5
12370.0	2579793690623999.5
12380.0	2542997536767999.5
12390.0	2528527151103999.5
12400.0	2580435128319999.5
12410.0	2484888244223999.5
12420.0	2470419816447999.5
12430.0	2403246079999999.5
12440.0	2360415342591999.5
12450.0	2579340910591999.5
12460.0	2608182075391999.5
12470.0	2635008741375999.5
12480.0	2637406953471999.5
12490.0	2660202364927999.5
12500.0	2547269550079999.5
12510.0	2632032530431999.5
12520.0	2443498119167999.5
12530.0	2455550840831999.5
12540.0	2659365814271999.5
12550.0	2657447600127999.5
12560.0	2722466586623999.5
12570.0	2800031309823999.5
12580.0	2766482808831999.5
12590.0	2802386341887999.5
12600.0	2818772357119999.5
12610.0	2864410329087999.5
12620.0	2774801580031999.5
12630.0	2872011259903999.5
12640.0	2805587124223999.5
12650.0	2829380067327999.5
12660.0	2882749128703999.5
12670.0	2968508653567999.5
12680.0	2961567645695999.0
12690.0	3000064638975999.0
12700.0	2958554243071999.5
12710.0	3015253041151999.5
12720.0	3081099509759999.5
12730.0	3063103578111999.5
12740.0	3004610338815999.0
12750.0	2999602573311999.5
12760.0	3108082462719999.5
12770.0	3068927942655999.0
12780.0	3093199273983999.5
12790.0	3129268633599999.5
12800.0	3114295857151999.5
12810.0	3162084675583999.5
12820.0	3161415303167999.5
12830.0	3141378940927999.5
12840.0	3198738644991999.5
12850.0	3146980655103999.5
12860.0	3051833409535999.0
12870.0	3171630899199999.5
12880.0	3175205969919999.5
12890.0	3138553970687999.5
12900.0	3256008187903999.5
12910.0	3243968667647999.5
12920.0	3219896967167999.5
12930.0	3133533962239999.5
12940.0	3307619639295999.0
12950.0	3183406129151999.5
12960.0	3368231673855999.0
12970.0	3343606398975999.0
12980.0	3419024498687999.5
12990.0	3343106072575999.0
13000.0	3427570302975999.0
13010.0	3346167234559999.5
13020.0	3392115073023999.5
13030.0	3433612984319999.5
13040.0	3456299466751999.5
13050.0	3410806644735999.0
13060.0	3551756304383999.5
13070.0	3311135727615999.0
13080.0	3565769744383999.5
13090.0	3432453922815999.0
13100.0	3459940532223999.5
13110.0	3591799824383999.5
13120.0	3622448676863999.5
13130.0	3564965437439999.5
13140.0	3595820859391999.5
13150.0	3614860607487999.0
13160.0	3610882588671999.5
13170.0	3617030733823999.5
13180.0	3595991359487999.0
13190.0	3715478732799999.5
13200.0	3563408482303999.5
13210.0	3651623419903999.5
13220.0	3648514392063999.5
13230.0	3651496509439999.5
13240.0	3593649184767999.0
13250.0	3542753869823999.5
13260.0	3678039736319999.5
13270.0	3502572109823999.5
13280.0	3597009756159999.5
13290.0	3585707335679999.5
13300.0	3530606878719999.5
13310.0	3439199969279999.5
13320.0	3201976229887999.5
13330.0	3346456993791999.5
13340.0	3345778761727999.5
13350.0	3093523423231999.5
13360.0	3120932585471999.5
13370.0	3057523769343999.5
13380.0	3080735490047999.5
13390.0	3128073240575999.0
13400.0	3134880767999999.5
13410.0	3230379245567999.5
13420.0	3093137899519999.5
13430.0	3103312576511999.5
13440.0	3200460881919999.5
13450.0	3124819738623999.5
13460.0	3237333762047999.5
13470.0	3153145430015999.0
13480.0	3059562323967999.5
13490.0	3214383325183999.5
13500.0	3212883820543999.5
13510.0	3200161734655999.0
13520.0	3172084678655999.0
13530.0	3265984495615999.0
13540.0	3139450159103999.5
13550.0	3145240158207999.5
13560.0	3239311417343999.5
13570.0	3246715469823999.5
13580.0	3267674513407999.5
13590.0	3285296918527999.5
13600.0	3306512019455999.0
13610.0	3307582734335999.0
13620.0	3206745735167999.5
13630.0	3423066587135999.0
13640.0	3446464552959999.5
13650.0	3356778422271999.5
13660.0	3507961413631999.5
13670.0	3457688920063999.5
13680.0	3433141567487999.5
13690.0	3409081581567999.5
13700.0	3473295663103999.5
13710.0	3449602400255999.0
13720.0	3508353769471999.5
13730.0	3513338224639999.5
13740.0	3525042372607999.0
13750.0	3573337497599999.5
13760.0	3606730227711999.5
13770.0	3584847986687999.0
13780.0	3655277068287999.0
13790.0	3635526860799999.5
13800.0	3719203880959999.5
13810.0	3566428725247999.0
13820.0	3690992812031999.5
13830.0	3473547935743999.5
13840.0	3735709663231999.5
13850.0	3583748243455999.0
13860.0	3576283250687999.0
13870.0	3774498930687999.0
13880.0	3586901319679999.5
13890.0	3728357056511999.5
13900.0	3690197229567999.0
13910.0	3627313610751999.5
13920.0	3629389512703999.5
13930.0	3694992187391999.5
13940.0	3678671183871999.5
13950.0	3647199231999999.5
13960.0	3657527599103999.5
13970.0	3705215172607999.0
13980.0	3673055264767999.0
13990.0	3777734688767999.0
14000.0	3695562080255999.0
14010.0	3655926276095999.0
14020.0	3857790476287999.0
14030.0	3838560460799999.5
14040.0	3761380892671999.5
14050.0	3724363825151999.5
14060.0	4029091684351999.5
14070.0	3770894409727999.0
14080.0	3811737976831999.5
14090.0	3762392391679999.5
14100.0	3829878013951999.5
14110.0	3857244733439999.5
14120.0	3725650411519999.5
14130.0	3922661515263999.5
14140.0	3774611382271999.5
14150.0	3862785204223999.5
14160.0	3993551970303999.5
14170.0	3869267705855999.0
14180.0	3823183388671999.5
14190.0	3804070305791999.5
14200.0	3928502034431999.5
14210.0	3968405438463999.5
14220.0	3956379033599999.5
14230.0	3904185638911999.5
14240.0	3843969826815999.0
14250.0	4003265740799999.5
14260.0	3924059865087999.0
14270.0	4037342814207999.0
14280.0	3987976388607999.0
14290.0	3848291139583999.5
14300.0	4179972481023999.5
14310.0	4152110579711999.5
14320.0	4008885411839999.5
14330.0	4104567300095999.0
14340.0	3849419415551999.5
14350.0	4144930291711999.5
14360.0	4196153556991999.5
14370.0	4132375240703999.5
14380.0	4161350508543999.5
14390.0	4151343112191999.5
14400.0	4098345263103999.5
14410.0	4123432271871999.5
14420.0	4175448834047999.0
14430.0	4313005785087999.0
14440.0	4263932420095999.0
14450.0	4064118431743999.5
14460.0	4313154273279999.0
14470.0	4213074960383999.5
14480.0	4338620612607999.0
14490.0	4398148689919999.0
14500.0	4255740821503999.5
14510.0	4166863618047999.0
14520.0	4584542838783999.0
14530.0	4486697246719999.0
14540.0	4320305029119999.0
14550.0	4499734355967999.0
14560.0	4335778373631999.5
14570.0	4239556501503999.5
14580.0	4549160976383999.0
14590.0	4637092544511999.0
14600.0	4607627902975999.0
14610.0	4570226278399999.0
14620.0	4423855308799999.0
14630.0	4325154856959999.0
14640.0	4616796061695999.0
14650.0	4609183318015999.0
14660.0	4680749105151999.0
14670.0	4710676504575999.0
14680.0	4492697632767999.0
14690.0	4463869919231999.5
14700.0	4606208720895999.0
14710.0	4643773136895999.0
14720.0	4743612571647999.0
14730.0	4828857081855999.0
14740.0	4635258150911999.0
14750.0	4619356446719999.0
14760.0	4703826239487999.0
14770.0	4755420889087999.0
14780.0	4806838411263999.0
14790.0	4936519417855999.0
14800.0	4685998129151999.0
14810.0	4834101460991999.0
14820.0	4680007434239999.0
14830.0	4848962535423999.0
14840.0	4966296535039999.0
14850.0	4845162799103999.0
14860.0	4903209885695999.0
14870.0	4952766816255999.0
14880.0	4859975467007999.0
14890.0	4906162094079999.0
14900.0	4883509616639999.0
14910.0	5075066929151999.0
14920.0	5026386681855999.0
14930.0	5064212168703999.0
14940.0	4959454904319999.0
14950.0	4998676348927999.0
14960.0	5009682825215999.0
14970.0	5095852031999999.0
14980.0	5134234370047999.0
14990.0	5194488160255999.0
15000.0	5181553967103999.0
15010.0	5157237678079999.0
15020.0	4990625636351999.0
15030.0	5313286995967999.0
15040.0	5212516335615999.0
15050.0	5320732680191999.0
15060.0	5277705625599999.0
15070.0	5315663650815999.0
15080.0	5230921367551999.0
15090.0	5370963288063999.0
15100.0	5301141889023999.0
15110.0	5303421935615999.0
15120.0	5452167069695999.0
15130.0	5335265517567999.0
15140.0	5385968787455999.0
15150.0	5630503993343999.0
15160.0	5491459301375999.0
15170.0	5355200905215999.0
15180.0	5422876696575999.0
15190.0	5541111365631999.0
15200.0	5531812397055999.0
15210.0	5667876552703999.0
15220.0	5578133561343999.0
15230.0	5673062178815999.0
15240.0	5719029678079999.0
15250.0	5572515495935999.0
15260.0	5612458000383999.0
15270.0	5680406396927999.0
15280.0	5700333469695999.0
15290.0	5760397885439999.0
15300.0	5858446770175999.0
15310.0	5820026535935999.0
15320.0	5639079493631998.0
15330.0	5749179236351998.0
15340.0	6010171523071998.0
15350.0	5865879879679999.0
15360.0	5943337795583999.0
15370.0	5890224865279999.0
15380.0	5898433658879999.0
15390.0	6114037858303999.0
15400.0	5957121294335999.0
15410.0	5936878960639999.0
15420.0	6063445540863999.0
15430.0	6010560053247999.0
15440.0	5964173230079999.0
15450.0	6159264890879999.0
15460.0	6256035577855999.0
15470.0	6126008172543999.0
15480.0	6156531597311998.0
15490.0	6192392060927999.0
15500.0	6276736434175999.0
15510.0	6138226245631998.0
15520.0	6287265497087999.0
15530.0	6302525702143999.0
15540.0	6376759672831998.0
15550.0	6332800335871998.0
15560.0	6294288105471998.0
15570.0	6313681256447999.0
15580.0	6243660054527999.0
15590.0	6384987160575999.0
15600.0	6439618936831998.0
15610.0	6410265198591998.0
15620.0	6519604215807999.0
15630.0	6488918982655999.0
15640.0	6555163230207999.0
15650.0	6435755360255999.0
15660.0	6413570949119999.0
15670.0	6637941211135999.0
15680.0	6731199037439999.0
15690.0	6559098191871998.0
15700.0	6623772737535999.0
15710.0	6701601865727999.0
15720.0	6705032003583999.0
15730.0	6730539433983999.0
15740.0	6773201911807999.0
15750.0	6737354407935999.0
15760.0	6799404318719999.0
15770.0	6834435899391998.0
15780.0	6738185961471998.0
15790.0	6813922951167999.0
15800.0	6852953997311998.0
15810.0	6847138906111998.0
15820.0	6892032262143999.0
15830.0	6959085453311998.0
15840.0	6874232406015999.0
15850.0	6899811975167999.0
15860.0	6985557360639999.0
15870.0	7030943776767999.0
15880.0	7065557303295998.0
15890.0	7086421131263999.0
15900.0	7027336069119999.0
15910.0	7129562480639999.0
15920.0	7111876395007999.0
15930.0	7092441382911998.0
15940.0	7197510860799999.0
15950.0	7189038006271998.0
15960.0	7241292021759999.0
15970.0	7191237001215998.0
15980.0	7179909791743999.0
15990.0	7224374755327999.0
16000.0	7286314008575998.0
16010.0	7344283123711998.0
16020.0	7216586686463999.0
16030.0	7370204413951998.0
16040.0	7329611644927999.0
16050.0	7340520030207999.0
16060.0	7339830493183999.0
16070.0	7407355822079999.0
16080.0	7425913241599999.0
16090.0	7410553110527999.0
16100.0	7446773678079999.0
16110.0	7449361317887999.0
16120.0	7464598405119999.0
16130.0	7495843364863999.0
16140.0	7475590823935998.0
16150.0	7484160573439999.0
16160.0	7585365049343999.0
16170.0	7648806862847999.0
16180.0	7650881880063999.0
16190.0	7554542895103999.0
16200.0	7580606840831998.0
16210.0	7565649444863999.0
16220.0	7667179634687999.0
16230.0	7697259806719999.0
16240.0	7700795490303999.0
16250.0	7675606286335998.0
16260.0	7750862962687999.0
16270.0	7776681426943999.0
16280.0	7782257164287999.0
16290.0	7743785222143999.0
16300.0	7826954338303999.0
16310.0	7756637143039999.0
16320.0	7786820435967999.0
16330.0	7874406219775998.0
16340.0	7901084188671998.0
16350.0	7865803292671998.0
16360.0	7903657525247999.0
16370.0	7880342536191998.0
16380.0	7948617269247999.0
16390.0	7918582005759999.0
16400.0	7938353037311998.0
16410.0	7951346794495998.0
16420.0	7893480144895998.0
16430.0	7948639076351998.0
16440.0	7985297981439999.0
