# Flux units: erg / (cm m2 s)
# Wavelength units: Angstrom
wave	flux
9000.0	2071298.5382080073
9010.0	2091087.478637695
9020.0	2111025.093078613
9030.0	2131100.677490234
9040.0	2151330.71899414
9050.0	2171659.3933105464
9060.0	2192113.4567260738
9070.0	2212725.982666015
9080.0	2233462.0971679683
9090.0	2254338.958740234
9100.0	2275438.110351562
9110.0	2296683.029174804
9120.0	2318058.9370727534
9130.0	2339432.44934082
9140.0	2361146.4385986323
9150.0	2382928.8711547847
9160.0	2404817.718505859
9170.0	2426859.0011596675
9180.0	2449088.4780883784
9190.0	2471422.2030639644
9200.0	2493871.604919433
9210.0	2516473.541259765
9220.0	2539252.609252929
9230.0	2560605.62133789
9240.0	2585157.043457031
9250.0	2608314.956665038
9260.0	2631579.345703124
9270.0	2654975.234985351
9280.0	2678202.1789550777
9290.0	2701772.3999023433
9300.0	2726078.7811279288
9310.0	2749851.9744873038
9320.0	2774164.2456054683
9330.0	2798372.146606445
9340.0	2822248.7182617183
9350.0	2846812.088012695
9360.0	2872075.302124023
9370.0	2896690.887451171
9380.0	2922326.232910156
9390.0	2947411.8347167964
9400.0	2972739.5477294913
9410.0	2998118.469238281
9420.0	3023813.0187988277
9430.0	3049613.6322021475
9440.0	3075458.572387695
9450.0	3101382.2021484366
9460.0	3127633.0566406245
9470.0	3153562.1490478506
9480.0	3179695.907592773
9490.0	3207138.565063476
9500.0	3233269.2718505855
9510.0	3260663.223266601
9520.0	3287670.1354980464
9530.0	3314718.3837890616
9540.0	3342399.032592773
9550.0	3369761.6119384756
9560.0	3396667.6788330073
9570.0	3425014.1601562495
9580.0	3453196.426391601
9590.0	3481283.050537109
9600.0	3509137.145996093
9610.0	3537721.9085693355
9620.0	3565607.2540283194
9630.0	3594895.736694335
9640.0	3623531.646728515
9650.0	3652768.6614990225
9660.0	3682019.1040039053
9670.0	3711002.151489257
9680.0	3740742.1874999995
9690.0	3770328.5064697256
9700.0	3800077.941894531
9710.0	3829808.7768554683
9720.0	3859798.8739013663
9730.0	3890047.7447509756
9740.0	3920321.594238281
9750.0	3950959.915161132
9760.0	3981361.6485595694
9770.0	4012366.180419921
9780.0	4043385.8337402334
9790.0	4074318.5272216788
9800.0	4105638.412475585
9810.0	4137051.6815185538
9820.0	4168594.604492187
9830.0	4200233.764648437
9840.0	4232091.857910155
9850.0	4264184.371948241
9860.0	4296263.610839843
9870.0	4328580.06286621
9880.0	4360852.981567382
9890.0	4393715.942382812
9900.0	4426076.416015624
9910.0	4458836.654663085
9920.0	4491727.84423828
9930.0	4525176.269531249
9940.0	4558526.153564452
9950.0	4592250.808715819
9960.0	4625890.60974121
9970.0	4659781.158447265
9980.0	4693689.895629882
9990.0	4727733.520507812
10000.0	4762165.298461913
10010.0	4796606.971740722
10020.0	4831215.56854248
10030.0	4866053.268432616
10040.0	4900709.495544433
10050.0	4935848.320007323
10060.0	4970706.001281737
10070.0	5006213.630676269
10080.0	5041838.394165038
10090.0	5077434.47113037
10100.0	5113357.009887694
10110.0	5149153.579711913
10120.0	5185174.4232177725
10130.0	5221516.204833983
10140.0	5257723.022460937
10150.0	5294419.799804687
10160.0	5331002.807617187
10170.0	5367868.133544921
10180.0	5405022.964477538
10190.0	5442102.600097655
10200.0	5479360.183715819
10210.0	5517071.853637694
10220.0	5554419.403076171
10230.0	5592381.729125976
10240.0	5630401.214599608
10250.0	5668477.462768554
10260.0	5706378.57055664
10270.0	5744937.545776366
10280.0	5783403.396606444
10290.0	5822193.420410154
10300.0	5860965.698242186
10310.0	5900261.657714842
10320.0	5939208.999633788
10330.0	5978689.636230468
10340.0	6017827.972412108
10350.0	6057513.702392576
10360.0	6097286.407470702
10370.0	6137287.536621093
10380.0	6177011.962890624
10390.0	6217012.329101562
10400.0	6257604.415893553
10410.0	6298251.220703124
10420.0	6338337.936401366
10430.0	6378807.830810546
10440.0	6420370.59020996
10450.0	6461784.408569334
10460.0	6503440.216064451
10470.0	6543301.681518553
10480.0	6585059.661865233
10490.0	6627316.406249998
10500.0	6668998.657226562
10510.0	6710823.913574218
10520.0	6752406.860351562
10530.0	6795502.334594726
10540.0	6838188.94958496
10550.0	6880773.193359374
10560.0	6923058.502197265
10570.0	6965528.091430662
10580.0	7009514.221191404
10590.0	7052675.125122069
10600.0	7096369.659423827
10610.0	7139740.264892576
10620.0	7182732.391357421
10630.0	7227537.673950193
10640.0	7272446.640014647
10650.0	7315882.79724121
10660.0	7359695.12939453
10670.0	7403688.507080077
10680.0	7449289.337158202
10690.0	7494771.545410154
10700.0	7539344.894409179
10710.0	7584329.711914062
10720.0	7630097.96142578
10730.0	7675328.887939451
10740.0	7720608.459472655
10750.0	7766798.461914061
10760.0	7812533.691406248
10770.0	7859618.774414062
10780.0	7906752.182006835
10790.0	7952495.071411132
10800.0	7998794.113159179
10810.0	8044802.169799803
10820.0	8091615.768432616
10830.0	8139292.63305664
10840.0	8187816.390991209
10850.0	8233731.445312498
10860.0	8280644.3786621075
10870.0	8328429.229736326
10880.0	8377518.325805663
10890.0	8422157.51647949
10900.0	8471784.667968748
10910.0	8519415.405273436
10920.0	8568674.270629881
10930.0	8616913.009643553
10940.0	8664422.851562498
10950.0	8713641.448974608
10960.0	8760406.326293943
10970.0	8811188.385009764
10980.0	8858995.925903318
10990.0	8908219.05517578
11000.0	8956885.360717772
11010.0	9006544.525146483
11020.0	9057202.102661131
11030.0	9104520.721435545
11040.0	9155888.931274412
11050.0	9205538.39111328
11060.0	9253684.646606443
11070.0	9306111.80114746
11080.0	9356437.194824217
11090.0	9407384.780883787
11100.0	9458544.357299803
11110.0	9503623.733520506
11120.0	9559433.89892578
11130.0	9611411.972045897
11140.0	9662248.077392576
11150.0	9710492.202758787
11160.0	9769513.717651365
11170.0	9816289.657592772
11180.0	9874595.214843748
11190.0	9921849.761962889
11200.0	9972996.673583983
11210.0	10028558.471679686
11220.0	10078795.272827147
11230.0	10138011.138916014
11240.0	10191250.12207031
11250.0	10243302.993774412
11260.0	10298311.065673826
11270.0	10353571.380615233
11280.0	10407885.223388668
11290.0	10462164.733886717
11300.0	10510699.310302733
11310.0	10568208.557128903
11320.0	10621447.937011717
11330.0	10676880.157470701
11340.0	10721871.154785154
11350.0	10770412.353515623
11360.0	10837866.546630858
11370.0	10894057.830810545
11380.0	10944308.441162108
11390.0	11003196.380615233
11400.0	11060251.892089842
11410.0	11110213.165283201
11420.0	11172783.355712889
11430.0	11226554.9621582
11440.0	11278636.35253906
11450.0	11342981.140136717
11460.0	11401955.200195309
11470.0	11456313.720703121
11480.0	11509463.867187498
11490.0	11575992.950439451
11500.0	11629908.752441404
11510.0	11685607.604980467
11520.0	11745915.710449217
11530.0	11800074.82910156
11540.0	11850560.943603514
11550.0	11921091.308593748
11560.0	11975722.62573242
11570.0	12032577.178955076
11580.0	12093039.306640623
11590.0	12149215.270996092
11600.0	12198984.924316403
11610.0	12260662.261962889
11620.0	12324151.733398436
11630.0	12388312.13378906
11640.0	12432797.424316404
11650.0	12506943.48144531
11660.0	12547897.827148436
11670.0	12620236.511230467
11680.0	12671262.908935543
11690.0	12707346.862792967
11700.0	12788582.244873043
11710.0	12856213.50097656
11720.0	12920089.782714842
11730.0	12973576.59912109
11740.0	13037252.868652342
11750.0	13098431.243896483
11760.0	13150979.400634762
11770.0	13203699.981689451
11780.0	13235985.076904293
11790.0	13335228.607177733
11800.0	13403634.948730467
11810.0	13466755.706787108
11820.0	13525530.73120117
11830.0	13596094.635009762
11840.0	13654113.891601559
11850.0	13717079.376220701
11860.0	13779652.16064453
11870.0	13846897.91870117
11880.0	13906295.104980465
11890.0	13963062.95776367
11900.0	14035646.301269528
11910.0	14099297.1496582
11920.0	14165811.82861328
11930.0	14230271.94213867
11940.0	14281144.866943358
11950.0	14345015.472412108
11960.0	14410617.797851559
11970.0	14465513.763427733
11980.0	14523907.53173828
11990.0	14591665.405273436
12000.0	14656764.12963867
12010.0	14722990.753173826
12020.0	14786077.209472653
12030.0	14851365.509033201
12040.0	14930403.045654295
12050.0	14990472.442626951
12060.0	15081003.448486326
12070.0	15120419.219970701
12080.0	15203185.760498045
12090.0	15246865.722656248
12100.0	15328792.144775389
12110.0	15376713.80615234
12120.0	15450421.630859373
12130.0	15518525.207519528
12140.0	15600606.90307617
12150.0	15668741.51611328
12160.0	15729571.685791012
12170.0	15795309.265136715
12180.0	15867505.035400387
12190.0	15937493.865966793
12200.0	15989069.946289059
12210.0	16057204.772949217
12220.0	16123194.94628906
12230.0	16189455.99365234
12240.0	16267168.457031248
12250.0	16354925.445556639
12260.0	16414501.495361324
12270.0	16482206.207275387
12280.0	16562327.911376951
12290.0	16622089.050292965
12300.0	16689560.150146483
12310.0	16763015.71655273
12320.0	16815714.996337887
12330.0	16889122.375488278
12340.0	16960933.471679684
12350.0	17021938.41552734
12360.0	17092697.082519528
12370.0	17171379.119873043
12380.0	17236430.816650387
12390.0	17298599.609374996
12400.0	17375251.037597653
12410.0	17414544.342041012
12420.0	17487379.97436523
12430.0	17539396.331787106
12440.0	17592367.218017574
12450.0	17721678.64990234
12460.0	17794030.5480957
12470.0	17866010.101318356
12480.0	17932450.836181637
12490.0	18005186.370849606
12500.0	18055068.908691403
12510.0	18137469.940185543
12520.0	18165664.48974609
12530.0	18213497.924804684
12540.0	18354209.014892574
12550.0	18433110.77880859
12560.0	18507971.28295898
12570.0	18614167.053222653
12580.0	18657566.711425778
12590.0	18737950.43945312
12600.0	18814642.974853512
12610.0	18906405.944824215
12620.0	18946111.75537109
12630.0	19042715.698242184
12640.0	19081689.361572262
12650.0	19174954.68139648
12660.0	19254729.217529293
12670.0	19357766.23535156
12680.0	19418008.453369137
12690.0	19513424.194335934
12700.0	19562604.7668457
12710.0	19656208.92333984
12720.0	19747741.699218746
12730.0	19821875.152587887
12740.0	19865206.78710937
12750.0	19920543.57910156
12760.0	20036049.346923824
12770.0	20102369.628906246
12780.0	20175149.749755856
12790.0	20277153.41186523
12800.0	20328640.960693356
12810.0	20407774.65820312
12820.0	20495666.74804687
12830.0	20554540.588378903
12840.0	20642619.934082028
12850.0	20722548.27880859
12860.0	20742677.307128903
12870.0	20851950.744628903
12880.0	20920354.858398434
12890.0	21006880.249023434
12900.0	21108597.839355465
12910.0	21178164.97802734
12920.0	21231165.77148437
12930.0	21270348.449707028
12940.0	21439377.502441403
12950.0	21466661.865234368
12960.0	21601832.27539062
12970.0	21663045.959472653
12980.0	21764481.628417965
12990.0	21814331.17675781
13000.0	21917837.463378903
13010.0	21962159.301757805
13020.0	22066151.550292965
13030.0	22128913.940429684
13040.0	22219667.60253906
13050.0	22273857.116699215
13060.0	22424784.79003906
13070.0	22378403.808593743
13080.0	22561311.706542965
13090.0	22575285.339355465
13100.0	22674541.13769531
13110.0	22788115.35644531
13120.0	22878830.32226562
13130.0	22918154.05273437
13140.0	22999533.26416015
13150.0	23101682.06787109
13160.0	23152976.01318359
13170.0	23242165.64941406
13180.0	23287523.803710934
13190.0	23427377.86865234
13200.0	23433994.445800778
13210.0	23544386.047363278
13220.0	23608592.651367184
13230.0	23691587.951660153
13240.0	23721794.06738281
13250.0	23758566.955566403
13260.0	23915073.12011718
13270.0	23910970.947265618
13280.0	24014369.56787109
13290.0	24092520.324707024
13300.0	24113158.142089836
13310.0	24145480.163574215
13320.0	24088283.691406246
13330.0	24196295.593261715
13340.0	24312553.100585934
13350.0	24161348.08349609
13360.0	24302447.082519524
13370.0	24257667.23632812
13380.0	24357932.678222653
13390.0	24483969.2993164
13400.0	24550743.835449215
13410.0	24772684.631347653
13420.0	24554870.54443359
13430.0	24704842.956542965
13440.0	24918187.072753903
13450.0	24842296.50878906
13460.0	25035204.895019528
13470.0	25002774.16992187
13480.0	24892382.3852539
13490.0	25207684.387207028
13500.0	25226174.621582028
13510.0	25405971.740722653
13520.0	25409222.839355465
13530.0	25540238.159179684
13540.0	25389729.675292965
13550.0	25371533.691406243
13560.0	25715542.11425781
13570.0	25799285.644531246
13580.0	25908933.776855465
13590.0	25924375.91552734
13600.0	26027231.750488278
13610.0	26199468.872070305
13620.0	26048611.57226562
13630.0	26450088.80615234
13640.0	26511933.77685546
13650.0	26524252.80761718
13660.0	26726925.292968743
13670.0	26751938.23242187
13680.0	26752179.443359368
13690.0	26756576.110839836
13700.0	26947131.042480465
13710.0	26965835.69335937
13720.0	27124568.72558593
13730.0	27237764.709472653
13740.0	27287400.75683593
13750.0	27382951.354980465
13760.0	27518209.89990234
13770.0	27551729.37011718
13780.0	27731049.56054687
13790.0	27739425.231933586
13800.0	27919370.84960937
13810.0	27832173.76708984
13820.0	27982534.484863278
13830.0	27775775.390624993
13840.0	28218464.90478515
13850.0	28068513.30566406
13860.0	28138761.35253906
13870.0	28437059.082031246
13880.0	28386742.431640618
13890.0	28527208.312988278
13900.0	28572343.749999996
13910.0	28586940.49072265
13920.0	28649447.143554684
13930.0	28870070.495605465
13940.0	28799832.580566403
13950.0	28823274.53613281
13960.0	29010393.005371086
13970.0	29150576.7211914
13980.0	29196618.286132805
13990.0	29394561.645507805
14000.0	29251449.462890618
14010.0	29380714.965820305
14020.0	29658824.218749996
14030.0	29688898.254394524
14040.0	29597992.004394528
14050.0	29647111.38916015
14060.0	30142055.11474609
14070.0	29930005.187988278
14080.0	30033024.169921868
14090.0	29969077.514648434
14100.0	30142716.796874996
14110.0	30261435.363769528
14120.0	30059751.647949215
14130.0	30544820.06835937
14140.0	30367078.24707031
14150.0	30541346.43554687
14160.0	30806697.814941403
14170.0	30676709.960937496
14180.0	30660230.285644524
14190.0	30676079.345703118
14200.0	30932977.722167965
14210.0	31074392.089843743
14220.0	31213920.715332028
14230.0	31171893.737792965
14240.0	31140775.573730465
14250.0	31459411.07177734
14260.0	31391237.609863278
14270.0	31681668.64013671
14280.0	31621439.453124993
14290.0	31470487.36572265
14300.0	32052544.4946289
14310.0	32082930.908203118
14320.0	31937175.903320305
14330.0	32138401.672363274
14340.0	31651740.234374996
14350.0	32380324.15771484
14360.0	32536380.92041015
14370.0	32521182.983398434
14380.0	32591233.703613274
14390.0	32599324.951171868
14400.0	32532223.937988278
14410.0	32738535.949707024
14420.0	32867523.193359368
14430.0	33164460.63232421
14440.0	33090896.606445305
14450.0	32924285.461425774
14460.0	33384124.938964836
14470.0	33302643.859863278
14480.0	33579798.52294921
14490.0	33705536.37695312
14500.0	33615979.00390624
14510.0	33487810.058593743
14520.0	34142322.44873046
14530.0	34087371.6430664
14540.0	33918099.06005859
14550.0	34279739.01367187
14560.0	34115672.668457024
14570.0	33949310.30273437
14580.0	34518090.27099609
14590.0	34687344.90966796
14600.0	34764395.50781249
14610.0	34795425.72021484
14620.0	34676245.910644524
14630.0	34618711.60888671
14640.0	35068180.17578124
14650.0	35132440.79589843
14660.0	35324458.312988274
14670.0	35433480.89599609
14680.0	35204277.34374999
14690.0	35286895.93505859
14700.0	35517771.301269524
14710.0	35618690.734863274
14720.0	35779484.06982421
14730.0	35979099.67041015
14740.0	35824644.22607421
14750.0	35915812.25585937
14760.0	36046733.45947265
14770.0	36180093.566894524
14780.0	36321367.7368164
14790.0	36574812.86621093
14800.0	36314717.65136718
14810.0	36625131.164550774
14820.0	36519431.2133789
14830.0	36720411.37695312
14840.0	36985267.08984374
14850.0	36948768.00537109
14860.0	37027014.770507805
14870.0	37204581.29882812
14880.0	37139364.13574218
14890.0	37331466.06445312
14900.0	37311467.28515624
14910.0	37653462.89062499
14920.0	37691370.78857421
14930.0	37778176.75781249
14940.0	37710513.85498046
14950.0	37863013.73291015
14960.0	37998701.53808593
14970.0	38085714.35546874
14980.0	38235462.89062499
14990.0	38370605.46874999
15000.0	38458524.41406249
15010.0	38508596.74072265
15020.0	38322302.551269524
15030.0	38924392.883300774
15040.0	38779528.19824218
15050.0	39023655.94482421
15060.0	39061193.23730468
15070.0	39212280.45654296
15080.0	39148516.96777343
15090.0	39413507.3852539
15100.0	39368780.02929687
15110.0	39470493.16406249
15120.0	39745515.258789055
15130.0	39661106.68945312
15140.0	39771845.64208984
15150.0	40189352.90527343
15160.0	40113017.63916015
15170.0	39983575.500488274
15180.0	40168125.5493164
15190.0	40343700.86669921
15200.0	40452365.844726555
15210.0	40711730.773925774
15220.0	40662523.13232421
15230.0	40865853.02734374
15240.0	41007436.645507805
15250.0	40859437.0727539
15260.0	41008127.19726562
15270.0	41197350.1586914
15280.0	41305611.938476555
15290.0	41417561.95068359
15300.0	41681131.59179687
15310.0	41682329.95605468
15320.0	41479631.958007805
15330.0	41759262.57324218
15340.0	42200508.05664062
15350.0	42057007.812499985
15360.0	42245416.99218749
15370.0	42236951.293945305
15380.0	42339680.17578124
15390.0	42745268.43261718
15400.0	42574955.44433593
15410.0	42615865.356445305
15420.0	42895748.168945305
15430.0	42912795.65429687
15440.0	42909794.0673828
15450.0	43273737.67089843
15460.0	43558690.67382812
15470.0	43351073.852539055
15480.0	43476938.35449218
15490.0	43624631.958007805
15500.0	43815775.26855468
15510.0	43724130.37109374
15520.0	44054100.83007812
15530.0	44175844.72656249
15540.0	44299710.32714843
15550.0	44352750.85449218
15560.0	44328592.77343749
15570.0	44494944.458007805
15580.0	44387611.20605468
15590.0	44728275.87890624
15600.0	44825734.25292968
15610.0	44927385.49804687
15620.0	45191231.445312485
15630.0	45207471.801757805
15640.0	45402697.02148437
15650.0	45269785.766601555
15660.0	45327421.26464843
15670.0	45892020.38574218
15680.0	46099119.87304687
15690.0	45870841.30859374
15700.0	46009035.52246093
15710.0	46203385.13183593
15720.0	46270419.43359374
15730.0	46410842.65136717
15740.0	46666180.175781235
15750.0	46725455.93261718
15760.0	46843846.55761718
15770.0	46942693.23730467
15780.0	46934071.65527343
15790.0	47077417.968749985
15800.0	47269796.75292968
15810.0	47338998.90136718
15820.0	47479355.102539055
15830.0	47794561.645507805
15840.0	47634094.848632805
15850.0	47823676.14746093
15860.0	48177966.55273437
15870.0	48140164.42871093
15880.0	48379964.11132812
15890.0	48504536.743164055
15900.0	48391122.680664055
15910.0	48712677.97851561
15920.0	48782213.25683593
15930.0	48853511.718749985
15940.0	49115640.258789055
15950.0	49260357.78808593
15960.0	49444598.63281249
15970.0	49472109.37499999
15980.0	49427757.446289055
15990.0	49636363.403320305
16000.0	49849944.946289055
16010.0	50038126.22070312
16020.0	49880125.36621093
16030.0	50383163.2080078
16040.0	50276057.61718749
16050.0	50401627.68554687
16060.0	50525921.87499999
16070.0	50697725.95214843
16080.0	50967971.801757805
16090.0	50986080.44433593
16100.0	51085392.82226561
16110.0	51055684.81445312
16120.0	51316527.34374999
16130.0	51546107.66601561
16140.0	51636136.71874999
16150.0	51702184.692382805
16160.0	51973605.46874999
16170.0	52238823.852539055
16180.0	52449546.9970703
16190.0	52065189.45312499
16200.0	52317218.50585936
16210.0	52336367.797851555
16220.0	52756633.911132805
16230.0	52912738.52539061
16240.0	53108060.42480468
16250.0	53142531.12792968
16260.0	53157945.312499985
16270.0	53448775.87890624
16280.0	53603286.01074217
16290.0	53454670.77636717
16300.0	53895817.504882805
16310.0	53716538.81835937
16320.0	54015574.218749985
16330.0	54280128.17382812
16340.0	54501765.50292967
16350.0	54494298.33984374
16360.0	54728648.19335937
16370.0	54839897.33886717
16380.0	55026559.57031249
16390.0	55017726.80664061
16400.0	55177995.36132811
16410.0	55368642.94433592
16420.0	55239712.28027342
16430.0	55440856.07910155
16440.0	55775312.988281235
16450.0	56019976.196289055
16460.0	56078416.74804687
16470.0	56107082.88574217
16480.0	56414180.54199218
16490.0	56511309.93652343
16500.0	56505757.56835937
16510.0	56594465.20996092
16520.0	56991026.61132812
16530.0	56840120.239257805
16540.0	57190921.26464843
16550.0	57251681.51855468
16560.0	57528811.27929687
16570.0	57722654.785156235
16580.0	57754479.85839842
