# Flux units: erg / (cm m2 s)
# Wavelength units: Angstrom
wave	flux
9000.0	242240434175999.94
9010.0	244622266367999.94
9020.0	246864064511999.97
9030.0	249132777471999.97
9040.0	251419734015999.94
9050.0	253989366783999.97
9060.0	256332697599999.97
9070.0	258656946175999.94
9080.0	261757635583999.97
9090.0	263852257279999.94
9100.0	266069847039999.94
9110.0	268677166079999.94
9120.0	271517422591999.97
9130.0	273859698687999.94
9140.0	276327628799999.94
9150.0	279075664895999.94
9160.0	281891276799999.94
9170.0	284357705727999.94
9180.0	286853741567999.94
9190.0	290088891391999.94
9200.0	292209469439999.94
9210.0	294014417919999.94
9220.0	296240035839999.94
9230.0	298310785023999.94
9240.0	301349281791999.94
9250.0	304076564479999.94
9260.0	306712432639999.94
9270.0	309397435391999.94
9280.0	311730320383999.94
9290.0	314400526335999.94
9300.0	317416938495999.94
9310.0	320041004031999.94
9320.0	322972589055999.94
9330.0	325639945215999.94
9340.0	328277701631999.94
9350.0	331032396799999.94
9360.0	334174705663999.94
9370.0	336846145535999.94
9380.0	340236614655999.94
9390.0	343031723007999.94
9400.0	346130747391999.94
9410.0	348996896767999.94
9420.0	352355268607999.94
9430.0	355204298751999.9
9440.0	358013792255999.94
9450.0	360913649663999.94
9460.0	364306259967999.94
9470.0	366729465855999.94
9480.0	370020329471999.9
9490.0	374029912063999.94
9500.0	376228016127999.94
9510.0	379607707647999.94
9520.0	382977406975999.94
9530.0	386013935615999.94
9540.0	389871446015999.94
9550.0	392568698879999.94
9560.0	395302846463999.94
9570.0	399131224063999.94
9580.0	403524444159999.94
9590.0	406465947647999.94
9600.0	409005137919999.94
9610.0	413171132415999.94
9620.0	415144017919999.94
9630.0	420043718655999.94
9640.0	422371590143999.94
9650.0	426944593919999.94
9660.0	430706296831999.9
9670.0	433935863807999.94
9680.0	438060832767999.94
9690.0	442102347775999.9
9700.0	445560797183999.94
9710.0	448507740159999.94
9720.0	452399818751999.9
9730.0	453532577791999.9
9740.0	456682278911999.9
9750.0	460609951743999.94
9760.0	464324395007999.94
9770.0	467880415231999.9
9780.0	471886069759999.94
9790.0	477050812415999.9
9800.0	479976194047999.94
9810.0	482556135423999.94
9820.0	485126318079999.94
9830.0	489368760319999.94
9840.0	493570435071999.9
9850.0	497540653055999.9
9860.0	501258252287999.94
9870.0	505930938367999.94
9880.0	508059219967999.94
9890.0	515088289791999.9
9900.0	513819688959999.94
9910.0	515180244991999.9
9920.0	519914272767999.94
9930.0	524640409599999.9
9940.0	528900395007999.94
9950.0	533842036735999.9
9960.0	537603426303999.94
9970.0	543046096895999.9
9980.0	546096087039999.9
9990.0	547766972415999.9
10000.0	552948804607999.94
10010.0	557409694719999.9
10020.0	561668011007999.94
10030.0	566760170495999.9
10040.0	568824305663999.9
10050.0	575010006015999.9
10060.0	576753396735999.9
10070.0	581715467263999.9
10080.0	587746276351999.9
10090.0	590790478847999.9
10100.0	597236733951999.9
10110.0	599181826047999.9
10120.0	605233399807999.9
10130.0	611144883199999.9
10140.0	611059186687999.9
10150.0	617616207871999.9
10160.0	620368804863999.9
10170.0	624110824447999.9
10180.0	631850293247999.9
10190.0	633713238015999.9
10200.0	638436020223999.9
10210.0	645095200767999.9
10220.0	646010755071999.9
10230.0	654044699647999.9
10240.0	659565758463999.9
10250.0	661361620991999.9
10260.0	661969490943999.9
10270.0	667171365887999.9
10280.0	671334979583999.9
10290.0	678002526207999.9
10300.0	681261350911999.9
10310.0	689478448127999.9
10320.0	691276922879999.9
10330.0	696519383039999.9
10340.0	702016694271999.9
10350.0	707737118719999.9
10360.0	714427478015999.9
10370.0	719490930687999.9
10380.0	721490804735999.9
10390.0	727007985663999.8
10400.0	732113469439999.9
10410.0	740867112959999.9
10420.0	741757069311999.9
10430.0	743249954815999.9
10440.0	756184453119999.9
10450.0	762941487103999.8
10460.0	769949734911999.9
10470.0	762357143551999.9
10480.0	771281819647999.9
10490.0	780434640895999.9
10500.0	784057149439999.9
10510.0	786473539583999.8
10520.0	787915190271999.9
10530.0	803516004351999.9
10540.0	808314513407999.9
10550.0	811132995583999.8
10560.0	812182849535999.9
10570.0	815160684543999.8
10580.0	829109919743999.8
10590.0	832725014527999.9
10600.0	842405804031999.9
10610.0	839600883711999.9
10620.0	846038945791999.9
10630.0	854763804671999.9
10640.0	870824210431999.8
10650.0	869526196223999.8
10660.0	873244559359999.9
10670.0	872109371391999.8
10680.0	882681667583999.8
10690.0	895943272447999.9
10700.0	896236423167999.9
10710.0	903935774719999.9
10720.0	919451467775999.9
10730.0	913955997695999.9
10740.0	931446962175999.9
10750.0	938459668479999.9
10760.0	951097681919999.9
10770.0	958709884927999.9
10780.0	968682151935999.9
10790.0	963907698687999.9
10800.0	974166247423999.8
10810.0	972655587327999.9
10820.0	982265667583999.8
10830.0	1006457210879999.9
10840.0	1024412340223999.8
10850.0	1020961386495999.9
10860.0	1021859518463999.8
10870.0	1018009477119999.9
10880.0	1034709755903999.8
10890.0	1015107192831999.8
10900.0	1031106637823999.8
10910.0	1039357110271999.8
10920.0	1049854769151999.8
10930.0	1043861483519999.8
10940.0	1051713454079999.8
10950.0	1064647639039999.8
10960.0	1054376024063999.8
10970.0	1071554000895999.9
10980.0	1073053313023999.8
10990.0	1073251821567999.9
11000.0	1078524151807999.9
11010.0	1087411001343999.8
11020.0	1108006385663999.8
11030.0	1084740384767999.9
11040.0	1092003352575999.9
11050.0	1097016039423999.8
11060.0	1099317862399999.8
11070.0	1104161961983999.8
11080.0	1113875111935999.9
11090.0	1125232824319999.8
11100.0	1122578401279999.8
11110.0	1127848210431999.8
11120.0	1140394958847999.8
11130.0	1148715583487999.8
11140.0	1149774772223999.8
11150.0	1155900397567999.8
11160.0	1173592680447999.8
11170.0	1165631870975999.8
11180.0	1196699449343999.8
11190.0	1189252093951999.8
11200.0	1187713345535999.8
11210.0	1202781782015999.8
11220.0	1216234145791999.8
11230.0	1217998258175999.8
11240.0	1234188351487999.8
11250.0	1244651819007999.8
11260.0	1243837601791999.8
11270.0	1255840657407999.8
11280.0	1265644523519999.8
11290.0	1273036152831999.8
11300.0	1270602377215999.8
11310.0	1284663984127999.8
11320.0	1282826512383999.8
11330.0	1290891698175999.8
11340.0	1289691586559999.8
11350.0	1265891770367999.8
11360.0	1313767663615999.8
11370.0	1316557008895999.8
11380.0	1305914603519999.8
11390.0	1325058023423999.8
11400.0	1344090628095999.8
11410.0	1336840620031999.8
11420.0	1352554350591999.8
11430.0	1365273962495999.8
11440.0	1340557082623999.8
11450.0	1375770161151999.8
11460.0	1388128274431999.8
11470.0	1388262627327999.8
11480.0	1395761891327999.5
11490.0	1420737374207999.5
11500.0	1425966313471999.8
11510.0	1425955127295999.8
11520.0	1434915809279999.8
11530.0	1442413119487999.5
11540.0	1435701518335999.8
11550.0	1471437950975999.8
11560.0	1482376032255999.8
11570.0	1466246455295999.8
11580.0	1489000931327999.5
11590.0	1515449925631999.8
11600.0	1486788800511999.8
11610.0	1503827660799999.8
11620.0	1519557488639999.8
11630.0	1526010679295999.8
11640.0	1505903153151999.8
11650.0	1568916090879999.8
11660.0	1530889269247999.5
11670.0	1553885929471999.8
11680.0	1565799116799999.8
11690.0	1519972614143999.8
11700.0	1565985796095999.8
11710.0	1579546071039999.8
11720.0	1604845789183999.8
11730.0	1599078412287999.5
11740.0	1591782522879999.8
11750.0	1622954926079999.8
11760.0	1599027847167999.5
11770.0	1598540652543999.8
11780.0	1581577469951999.8
11790.0	1633000112127999.5
11800.0	1646736027647999.5
11810.0	1650995568639999.8
11820.0	1653571796991999.8
11830.0	1694816079871999.8
11840.0	1693179162623999.8
11850.0	1708753334271999.8
11860.0	1702525132799999.8
11870.0	1741582921727999.5
11880.0	1728951660543999.5
11890.0	1725209542655999.8
11900.0	1748322287615999.8
11910.0	1748435324927999.5
11920.0	1761439952895999.8
11930.0	1795274833919999.8
11940.0	1765081874431999.8
11950.0	1770057981951999.8
11960.0	1784431103999999.8
11970.0	1776365166591999.8
11980.0	1771861295103999.5
11990.0	1802369527807999.5
12000.0	1786115125247999.5
12010.0	1817357787135999.8
12020.0	1820866363391999.8
12030.0	1828013981695999.8
12040.0	1870311743487999.5
12050.0	1873558298623999.5
12060.0	1947728023551999.8
12070.0	1874846556159999.8
12080.0	1927298641919999.8
12090.0	1903070793727999.5
12100.0	1948320862207999.5
12110.0	1915327336447999.5
12120.0	1931832254463999.5
12130.0	1942207008767999.5
12140.0	1997963128831999.8
12150.0	2010022113279999.8
12160.0	2018734923775999.8
12170.0	2005564981247999.5
12180.0	2051926224895999.8
12190.0	2064566886399999.5
12200.0	2038406512639999.8
12210.0	2056144879615999.8
12220.0	2061876068351999.8
12230.0	2069905293311999.8
12240.0	2098298736639999.5
12250.0	2137263300607999.5
12260.0	2149923475455999.8
12270.0	2140372541439999.5
12280.0	2182392565759999.5
12290.0	2197577748479999.5
12300.0	2175732789247999.5
12310.0	2222436450303999.5
12320.0	2180447354879999.5
12330.0	2207926030335999.8
12340.0	2255209299967999.5
12350.0	2219708616703999.5
12360.0	2264560123903999.5
12370.0	2272447676415999.5
12380.0	2272538836991999.5
12390.0	2248402464767999.5
12400.0	2287520755711999.5
12410.0	2203486408703999.5
12420.0	2183119069183999.5
12430.0	2233141166079999.5
12440.0	2210342195199999.5
12450.0	2312083644415999.5
12460.0	2293890760703999.5
12470.0	2342340734975999.5
12480.0	2305386164223999.5
12490.0	2383782006783999.5
12500.0	2355541692415999.5
12510.0	2386786017279999.5
12520.0	2341559980031999.5
12530.0	2354186223615999.5
12540.0	2442488107007999.5
12550.0	2385896304639999.5
12560.0	2426086092799999.5
12570.0	2479652614143999.5
12580.0	2422995386367999.5
12590.0	2470887530495999.5
12600.0	2473386389503999.5
12610.0	2557415960575999.5
12620.0	2453518921727999.5
12630.0	2524573356031999.5
12640.0	2524276084735999.5
12650.0	2536352526335999.5
12660.0	2566216810495999.5
12670.0	2613396799487999.5
12680.0	2612977405951999.5
12690.0	2655573704703999.5
12700.0	2632734384127999.5
12710.0	2636901744639999.5
12720.0	2690450763775999.5
12730.0	2710876127231999.5
12740.0	2655446872063999.5
12750.0	2656597086207999.5
12760.0	2718088658943999.5
12770.0	2738011848703999.5
12780.0	2713981661183999.5
12790.0	2774972391423999.5
12800.0	2755429916671999.5
12810.0	2762944331775999.5
12820.0	2827440726015999.0
12830.0	2767701635071999.5
12840.0	2813905883135999.0
12850.0	2846734376959999.5
12860.0	2741284626431999.5
12870.0	2850977431551999.5
12880.0	2849334452223999.5
12890.0	2849000488959999.5
12900.0	2921250709503999.5
12910.0	2873637085183999.5
12920.0	2861590880255999.0
12930.0	2909209886719999.5
12940.0	3017697181695999.0
12950.0	2879072686079999.5
12960.0	2986462973951999.5
12970.0	3028812275711999.5
12980.0	3058160631807999.5
12990.0	3015727292415999.0
13000.0	3058615197695999.0
13010.0	3025705713663999.5
13020.0	3091734011903999.5
13030.0	3065848823807999.5
13040.0	3182513692671999.5
13050.0	3141157601279999.5
13060.0	3153073192959999.5
13070.0	3090138054655999.0
13080.0	3107597869055999.0
13090.0	3095709859839999.5
13100.0	3132063137791999.5
13110.0	3174147137535999.0
13120.0	3248494419967999.5
13130.0	3169634377727999.5
13140.0	3174427795455999.0
13150.0	3214131167231999.5
13160.0	3222002278399999.5
13170.0	3243144306687999.5
13180.0	3173801861119999.5
13190.0	3271667081215999.0
13200.0	3238951534591999.5
13210.0	3208470921215999.0
13220.0	3269058527231999.5
13230.0	3266813100031999.5
13240.0	3256530747391999.5
13250.0	3126219816959999.5
13260.0	3262421762047999.5
13270.0	3185821138943999.5
13280.0	3161331687423999.5
13290.0	3226301898751999.5
13300.0	3164438061055999.0
13310.0	3063038582783999.5
13320.0	2998643437567999.5
13330.0	2927282163711999.5
13340.0	3031064961023999.5
13350.0	2782903640063999.5
13360.0	2916771414015999.0
13370.0	2871039733759999.5
13380.0	2881093177343999.5
13390.0	2917820162047999.5
13400.0	2963967008767999.5
13410.0	3013367144447999.5
13420.0	2857387589631999.5
13430.0	2841649078271999.5
13440.0	2973194436607999.5
13450.0	2894832246783999.5
13460.0	2953818771455999.0
13470.0	2914824818687999.5
13480.0	2858932707327999.5
13490.0	3022515503103999.5
13500.0	2979727769599999.5
13510.0	2954573717503999.5
13520.0	2942138793983999.5
13530.0	3004939878399999.5
13540.0	2873112649727999.5
13550.0	2923485396991999.5
13560.0	3027884777471999.5
13570.0	3020080807935999.0
13580.0	2998219079679999.5
13590.0	2994330623999999.5
13600.0	3023139897343999.5
13610.0	3059802652671999.5
13620.0	2944421437439999.5
13630.0	3134598291455999.0
13640.0	3086091272191999.5
13650.0	3088986324991999.5
13660.0	3129258196991999.5
13670.0	3081650085887999.5
13680.0	3086541266943999.5
13690.0	3102746238975999.0
13700.0	3099474231295999.0
13710.0	3055310381055999.0
13720.0	3119278784511999.5
13730.0	3149077872639999.5
13740.0	3098716495871999.5
13750.0	3129469050879999.5
13760.0	3167358402559999.5
13770.0	3131701510143999.5
13780.0	3277173514239999.5
13790.0	3196140404735999.0
13800.0	3280117612543999.5
13810.0	3254427877375999.0
13820.0	3310116438015999.0
13830.0	3181205307391999.5
13840.0	3312352108543999.5
13850.0	3264271589375999.0
13860.0	3292095782911999.5
13870.0	3285635055615999.0
13880.0	3262133542911999.5
13890.0	3349414928383999.5
13900.0	3315461996543999.5
13910.0	3283249315839999.5
13920.0	3302073589759999.5
13930.0	3353809051647999.5
13940.0	3309458423807999.5
13950.0	3309871734783999.5
13960.0	3363638165503999.5
13970.0	3381253316607999.5
13980.0	3341013598207999.5
13990.0	3424940498943999.5
14000.0	3324258328575999.0
14010.0	3342344626175999.0
14020.0	3471193448447999.0
14030.0	3406330732543999.5
14040.0	3361488551935999.0
14050.0	3389837877247999.5
14060.0	3538036735999999.5
14070.0	3395758587903999.5
14080.0	3449906987007999.5
14090.0	3432990232575999.0
14100.0	3414754308095999.0
14110.0	3466248019967999.0
14120.0	3409515610111999.5
14130.0	3539661840383999.5
14140.0	3481480503295999.0
14150.0	3449594757119999.5
14160.0	3543342088191999.5
14170.0	3464581013503999.5
14180.0	3435523678207999.5
14190.0	3496758435839999.5
14200.0	3496065425407999.0
14210.0	3534393655295999.0
14220.0	3544988459007999.0
14230.0	3516953509887999.0
14240.0	3553245396991999.5
14250.0	3568558391295999.0
14260.0	3515865686015999.0
14270.0	3610454556671999.5
14280.0	3551681134591999.5
14290.0	3473607663615999.0
14300.0	3728904462335999.0
14310.0	3713371791359999.5
14320.0	3599262351359999.5
14330.0	3602011529215999.0
14340.0	3526753279999999.5
14350.0	3715621421055999.0
14360.0	3722215243775999.0
14370.0	3713053409279999.5
14380.0	3721980960767999.0
14390.0	3734699278335999.0
14400.0	3667417382911999.5
14410.0	3669323431935999.0
14420.0	3697689239551999.5
14430.0	3849724452863999.5
14440.0	3784187101183999.5
14450.0	3713694441471999.5
14460.0	3798975397887999.0
14470.0	3746730442751999.5
14480.0	3853878517759999.5
14490.0	3930942242815999.0
14500.0	3878908231679999.5
14510.0	3772724936703999.5
14520.0	4016815194111999.5
14530.0	3927201660927999.0
14540.0	3822837891071999.5
14550.0	4007411990527999.0
14560.0	3891320799231999.5
14570.0	3852594135039999.5
14580.0	3967890292735999.0
14590.0	4045154729983999.5
14600.0	4051078701055999.0
14610.0	4031387025407999.0
14620.0	3953863188479999.5
14630.0	3935556386815999.0
14640.0	4062472224767999.0
14650.0	4060587679743999.5
14660.0	4147199565823999.5
14670.0	4093847150591999.5
14680.0	4028621111295999.0
14690.0	4007005970431999.5
14700.0	4061429694463999.5
14710.0	4108116779007999.0
14720.0	4114268127231999.5
14730.0	4186357850111999.5
14740.0	4099582705663999.5
14750.0	4100457799679999.5
14760.0	4130802540543999.5
14770.0	4180190486527999.0
14780.0	4208240984063999.5
14790.0	4310582427647999.0
14800.0	4131892707327999.0
14810.0	4271790505983999.5
14820.0	4194888671231999.5
14830.0	4179293405183999.5
14840.0	4351105212415999.0
14850.0	4239508168703999.5
14860.0	4269756604415999.0
14870.0	4366073282559999.0
14880.0	4289253359615999.0
14890.0	4356890681343999.5
14900.0	4276202741759999.0
14910.0	4432326410239999.0
14920.0	4417250418687999.0
14930.0	4361788710911999.5
14940.0	4281693429759999.0
14950.0	4408896094207999.0
14960.0	4448605011967999.0
14970.0	4418308276223999.5
14980.0	4462808121343999.5
14990.0	4493064773631999.5
15000.0	4463430377471999.5
15010.0	4467903586303999.5
15020.0	4318470660095999.0
15030.0	4662944063487999.0
15040.0	4486872023039999.0
15050.0	4631712751615999.0
15060.0	4577006141439999.0
15070.0	4638249148415999.0
15080.0	4534165389311999.0
15090.0	4685729636351999.0
15100.0	4592584777727999.0
15110.0	4648887050239999.0
15120.0	4734159609855999.0
15130.0	4634165125119999.0
15140.0	4664911323135999.0
15150.0	4804307755007999.0
15160.0	4770306023423999.0
15170.0	4726651543551999.0
15180.0	4733576372223999.0
15190.0	4706940674047999.0
15200.0	4741974130687999.0
15210.0	4846966636543999.0
15220.0	4771421806591999.0
15230.0	4928144859135999.0
15240.0	4866391957503999.0
15250.0	4781986152447999.0
15260.0	4819014754303999.0
15270.0	4922678755327999.0
15280.0	4956901179391999.0
15290.0	4917029871615999.0
15300.0	5056965558271999.0
15310.0	4909587537919999.0
15320.0	4800536739839999.0
15330.0	4948215521279999.0
15340.0	5126572064767999.0
15350.0	5043783835647999.0
15360.0	5057729224703999.0
15370.0	4951440072703999.0
15380.0	5052303015935999.0
15390.0	5189946990591999.0
15400.0	5120968564735999.0
15410.0	5088003833855999.0
15420.0	5216266461183999.0
15430.0	5171168845823999.0
15440.0	5181045899263999.0
15450.0	5251791896575999.0
15460.0	5418859773951999.0
15470.0	5169246871551999.0
15480.0	5293740802047999.0
15490.0	5255079731199999.0
15500.0	5372151660543999.0
15510.0	5247877103615999.0
15520.0	5380606279679999.0
15530.0	5423672213503999.0
15540.0	5506621054975999.0
15550.0	5417163784191999.0
15560.0	5358107901951999.0
15570.0	5388362801151999.0
15580.0	5273298608127999.0
15590.0	5425967505407999.0
15600.0	5546485440511999.0
15610.0	5528339120127999.0
15620.0	5609725108223999.0
15630.0	5591964057599999.0
15640.0	5700529635327999.0
15650.0	5500745416703999.0
15660.0	5483912200191999.0
15670.0	5733280399359999.0
15680.0	5857993539583999.0
15690.0	5638152650751998.0
15700.0	5695451709439999.0
15710.0	5736064761855999.0
15720.0	5746521645055999.0
15730.0	5770528088063999.0
15740.0	5860748378111998.0
15750.0	5821476519935999.0
15760.0	5900192694271998.0
15770.0	5926825328639999.0
15780.0	5873464262655999.0
15790.0	5848496898047999.0
15800.0	5936262725631998.0
15810.0	5952448741375999.0
15820.0	5975182589951998.0
15830.0	6093808812031998.0
15840.0	5938467635199999.0
15850.0	5963224743935999.0
15860.0	6161841782783999.0
15870.0	6206243569663999.0
15880.0	6146757099519999.0
15890.0	6254791737343999.0
15900.0	6110079959039999.0
15910.0	6260260651007999.0
15920.0	6214506201087999.0
15930.0	6262780149759999.0
15940.0	6432630210559999.0
15950.0	6455581097983999.0
15960.0	6423423008767999.0
15970.0	6382977695743999.0
15980.0	6326613360639999.0
15990.0	6456064098303999.0
16000.0	6519866949631998.0
16010.0	6671381757951998.0
16020.0	6383695429631998.0
16030.0	6709362819071998.0
16040.0	6559835308031998.0
16050.0	6609033314303999.0
16060.0	6536967372799999.0
16070.0	6650401439743999.0
16080.0	6732737789951998.0
16090.0	6679194501119999.0
16100.0	6688417693695999.0
16110.0	6749337698303999.0
16120.0	6771764166655999.0
16130.0	6814722555903999.0
16140.0	6733226967039999.0
16150.0	6783716835327999.0
16160.0	6941083598847999.0
16170.0	7098846248959999.0
16180.0	7149883179007999.0
16190.0	6903330439167999.0
16200.0	6898946179071998.0
16210.0	6883060776959999.0
16220.0	7217782898687999.0
16230.0	7149656342527999.0
16240.0	7137951334399999.0
16250.0	7154893651967999.0
16260.0	7255036411903999.0
16270.0	7379877625855998.0
16280.0	7369438674943999.0
16290.0	7232790544383999.0
16300.0	7424815136767999.0
16310.0	7258941685759999.0
16320.0	7300807065599999.0
16330.0	7478959390719999.0
16340.0	7580042100735998.0
16350.0	7475179159551998.0
16360.0	7513688408063999.0
16370.0	7516367994879999.0
16380.0	7709166731263999.0
16390.0	7625408593919999.0
16400.0	7594883055615998.0
16410.0	7691578916863999.0
16420.0	7557487509503999.0
16430.0	7578903314431998.0
16440.0	7817700147199999.0
