# Flux units: erg / (cm m2 s)
# Wavelength units: Angstrom
wave	flux
7000.0	1511931.2973022456
7010.0	1528088.3789062498
7020.0	1557776.6952514646
7030.0	1586779.2739868162
7040.0	1605169.5632934568
7050.0	1631577.9342651365
7060.0	1628139.6789550777
7070.0	1648374.8092651365
7080.0	1680499.1531372068
7090.0	1697010.8718872066
7100.0	1719179.664611816
7110.0	1746970.7107543943
7120.0	1772649.4216918943
7130.0	1788569.4808959956
7140.0	1810822.845458984
7150.0	1837960.6552124019
7160.0	1867398.6511230466
7170.0	1889799.8046874998
7180.0	1919910.7360839841
7190.0	1947481.6513061519
7200.0	1975782.8903198238
7210.0	1997952.46887207
7220.0	2031773.5977172847
7230.0	2060899.3225097654
7240.0	2086197.0672607417
7250.0	2122362.6937866206
7260.0	2148983.566284179
7270.0	2180071.8078613277
7280.0	2215034.7671508784
7290.0	2244707.611083984
7300.0	2288958.9157104488
7310.0	2312681.2210083003
7320.0	2361747.9858398433
7330.0	2396362.1597290034
7340.0	2406464.2410278316
7350.0	2423447.875976562
7360.0	2461079.025268554
7370.0	2507320.14465332
7380.0	2529328.9108276363
7390.0	2549072.8073120113
7400.0	2584003.311157226
7410.0	2610933.822631835
7420.0	2629486.434936523
7430.0	2673248.7792968745
7440.0	2708824.569702148
7450.0	2725930.81665039
7460.0	2763197.2198486323
7470.0	2799814.4836425777
7480.0	2831354.797363281
7490.0	2873303.6499023433
7500.0	2915317.993164062
7510.0	2941378.387451171
7520.0	2978381.3629150386
7530.0	3023123.6877441397
7540.0	3059682.250976562
7550.0	3100232.1319580073
7560.0	3141294.5404052725
7570.0	3182962.1582031245
7580.0	3213216.0491943355
7590.0	3236513.8702392573
7600.0	3260160.9039306636
7610.0	3295652.603149413
7620.0	3332902.7404785147
7630.0	3340689.453124999
7640.0	3337648.4985351553
7650.0	3297780.7617187495
7660.0	3178416.397094726
7670.0	2805066.121101379
7680.0	3337092.7429199214
7690.0	3394565.460205077
7700.0	2936733.8619232173
7710.0	3473508.1787109366
7720.0	3630372.268676757
7730.0	3740313.3697509756
7740.0	3817081.741333007
7750.0	3868770.3247070303
7760.0	3921875.488281249
7770.0	3962818.557739257
7780.0	4023709.121704101
7790.0	4069512.466430663
7800.0	4095644.927978515
7810.0	4199805.48095703
7820.0	4249283.7982177725
7830.0	4281185.867309569
7840.0	4324231.170654296
7850.0	4375368.896484374
7860.0	4441832.839965819
7870.0	4485750.64086914
7880.0	4579750.64086914
7890.0	4641602.371215819
7900.0	4673155.990600585
7910.0	4722076.553344726
7920.0	4733290.435791015
7930.0	4811454.010009765
7940.0	4883045.654296874
7950.0	4894973.709106444
7960.0	5021009.8724365225
7970.0	5057717.819213866
7980.0	5114475.601196288
7990.0	5155542.510986327
8000.0	5235272.888183593
8010.0	5266004.577636718
8020.0	5354255.310058593
8030.0	5426620.727539062
8040.0	5507883.8806152325
8050.0	5522519.226074218
8060.0	5602208.068847654
8070.0	5700767.669677733
8080.0	5809263.122558592
8090.0	5892659.82055664
8100.0	6045460.144042968
8110.0	6120735.778808593
8120.0	6228106.903076171
8130.0	6425867.49267578
8140.0	6568268.524169921
8150.0	6711008.422851561
8160.0	6873741.363525389
8170.0	6961564.11743164
8180.0	7196586.395263671
8190.0	7054090.209960937
8200.0	6706872.192382812
8210.0	6678039.52026367
8220.0	6998000.946044921
8230.0	6954113.952636718
8240.0	7188321.228027343
8250.0	7139978.302001951
8260.0	7245452.178955076
8270.0	7369972.534179687
8280.0	7266272.247314451
8290.0	7112560.974121093
8300.0	7476588.043212889
8310.0	7338946.807861326
8320.0	7456337.097167967
8330.0	7684139.343261718
8340.0	7695747.772216796
8350.0	7616067.443847655
8360.0	7732035.156249999
8370.0	7831852.905273437
8380.0	8012652.709960936
8390.0	7858431.396484373
8400.0	8015313.781738279
8410.0	8645215.94238281
8420.0	8441421.783447264
8430.0	8470763.79394531
8440.0	8052638.244628904
8450.0	8027664.916992186
8460.0	8082749.511718749
8470.0	8153723.266601561
8480.0	8259554.779052733
8490.0	8333676.239013671
8500.0	8451162.994384764
8510.0	8514719.268798826
8520.0	8625563.568115233
8530.0	8674005.645751951
8540.0	8739045.440673826
8550.0	8889902.31323242
8560.0	9015317.291259764
8570.0	9080837.280273436
8580.0	9217444.000244139
8590.0	9205566.070556639
8600.0	9268561.82861328
8610.0	9388484.283447264
8620.0	9521578.369140623
8630.0	9592504.882812498
8640.0	9649010.86425781
8650.0	9728387.695312498
8660.0	9887592.315673826
8670.0	9962829.803466795
8680.0	9975017.089843748
8690.0	10056857.574462889
8700.0	10075693.32885742
8710.0	10122451.47705078
8720.0	10286972.412109373
8730.0	10507217.346191403
8740.0	10534275.268554686
8750.0	10680469.909667965
8760.0	11004100.524902342
8770.0	11061381.103515623
8780.0	11278235.107421871
8790.0	11426148.925781246
8800.0	11331749.938964842
8810.0	11890056.76269531
8820.0	12075711.05957031
8830.0	12303954.040527342
8840.0	12875536.010742184
8850.0	12853563.537597654
8860.0	12671949.462890623
8870.0	11805131.713867186
8880.0	11852258.178710936
8890.0	12242001.89208984
8900.0	12291607.849121092
8910.0	12776471.923828123
8920.0	12414701.843261717
8930.0	13139096.61865234
8940.0	12926772.521972654
8950.0	12931743.041992186
8960.0	12933801.20849609
8970.0	13349436.584472653
8980.0	13655829.406738278
8990.0	13689485.107421871
9000.0	14270499.694824215
9010.0	14972012.02392578
9020.0	14829011.352539059
9030.0	14472755.065917965
9040.0	14458110.351562498
9050.0	15822056.030273436
9060.0	15591625.183105465
9070.0	15580398.559570309
9080.0	19019435.363769528
9090.0	17534110.351562496
9100.0	16814988.098144528
9110.0	17566993.164062496
9120.0	19588076.171874996
9130.0	19248972.167968746
9140.0	18571891.174316403
9150.0	20185314.331054684
9160.0	21423135.19287109
9170.0	21504173.461914055
9180.0	20526895.14160156
9190.0	23272693.11523437
9200.0	21464690.67382812
9210.0	18636463.439941403
9220.0	17257321.289062496
9230.0	16859627.502441403
9240.0	16568303.833007809
9250.0	17099814.20898437
9260.0	17103315.917968746
9270.0	17323813.476562496
9280.0	16638255.432128903
9290.0	16835666.93115234
9300.0	16989109.374999996
9310.0	16976408.020019528
9320.0	17508670.53222656
9330.0	17293077.08740234
9340.0	18240186.401367184
9350.0	17535453.73535156
9360.0	18111694.09179687
9370.0	17996391.23535156
9380.0	18917910.461425778
9390.0	18655407.897949215
9400.0	19411836.85302734
9410.0	19314559.20410156
9420.0	20945805.358886715
9430.0	20700253.906249996
9440.0	20129722.351074215
9450.0	20196846.984863278
9460.0	21475259.338378903
9470.0	20328125.305175778
9480.0	22271994.995117184
9490.0	24108631.835937496
9500.0	21440840.698242184
9510.0	22039056.518554684
9520.0	23582025.024414055
9530.0	23510500.36621093
9540.0	25473649.902343746
9550.0	24181336.303710934
9560.0	24519829.956054684
9570.0	24834215.94238281
9580.0	28756473.02246093
9590.0	27840763.793945305
9600.0	26059860.473632805
9610.0	28239162.597656246
9620.0	26146136.230468746
9630.0	30405950.92773437
9640.0	27136123.046874996
9650.0	29501453.735351555
9660.0	31471091.43066406
9670.0	32313905.151367184
9680.0	32924518.79882812
9690.0	33161128.295898434
9700.0	34540859.86328124
9710.0	32290372.314453118
9720.0	33853173.461914055
9730.0	29643086.66992187
9740.0	29088941.16210937
9750.0	29502099.121093746
9760.0	30829552.61230468
9770.0	30155160.644531246
9780.0	31192525.26855468
9790.0	32885588.745117184
9800.0	32998566.28417968
9810.0	31199679.443359368
9820.0	28417858.886718746
9830.0	30029658.691406243
9840.0	31800220.703124996
9850.0	32047200.683593746
9860.0	32892924.68261718
9870.0	34716952.63671874
9880.0	32060584.106445305
9890.0	37255874.02343749
9900.0	25770668.945312496
9910.0	22773880.61523437
9920.0	23276221.679687496
9930.0	24289515.74707031
9940.0	25271069.21386718
9950.0	26209310.546874993
9960.0	26378970.703124996
9970.0	28003872.070312496
9980.0	26643229.370117184
9990.0	25398279.174804684
10000.0	26896604.064941403
10010.0	27359128.479003903
10020.0	27904739.92919921
10030.0	29848394.40917968
10040.0	27697507.50732421
10050.0	29569418.457031246
10060.0	26740679.748535153
10070.0	28648724.426269528
10080.0	30966356.384277336
10090.0	30200995.97167968
10100.0	33233192.993164055
10110.0	30435882.93457031
10120.0	31283691.467285153
10130.0	33061050.170898434
10140.0	29473046.813964836
10150.0	33385411.74316406
10160.0	30650216.125488278
10170.0	30433151.123046868
10180.0	34591914.97802734
10190.0	32092609.25292968
10200.0	31327897.52197265
10210.0	35408184.692382805
10220.0	31376222.351074215
10230.0	34585731.750488274
10240.0	37115998.840332024
10250.0	35186124.75585937
10260.0	31172220.336914055
10270.0	32073948.852539055
10280.0	31734105.285644528
10290.0	34069444.641113274
10300.0	33034301.696777336
10310.0	36585835.81542968
10320.0	34142834.289550774
10330.0	36277020.56884765
10340.0	35096815.85693359
10350.0	37339353.39355468
10360.0	39197351.56249999
10370.0	40005554.19921874
10380.0	38655304.68749999
10390.0	37682293.82324218
10400.0	39639076.965332024
10410.0	45393518.61572265
10420.0	38588486.81640624
10430.0	35690715.69824218
10440.0	43890917.17529296
10450.0	47625960.38818359
10460.0	54522867.91992186
10470.0	36776381.4086914
10480.0	40301785.64453124
10490.0	47146587.4633789
10500.0	45379078.85742187
10510.0	43273347.473144524
10520.0	38711235.961914055
10530.0	52025452.94189452
10540.0	50345350.28076171
10550.0	50700411.19384765
10560.0	44381322.14355468
10570.0	40970984.86328124
10580.0	53724478.75976562
10590.0	51301037.719726555
10600.0	54674272.70507812
10610.0	48401814.941406235
10620.0	46222647.094726555
10630.0	53053005.37109374
10640.0	65777136.718749985
10650.0	59272705.44433592
10660.0	55090879.63867187
10670.0	47601287.96386718
10680.0	57565461.30371092
10690.0	66015077.63671874
10700.0	59715874.38964842
10710.0	64149434.81445311
10720.0	71377582.76367186
10730.0	61283388.42773436
10740.0	71685511.23046874
10750.0	73858881.9580078
10760.0	77662375.1220703
10770.0	81526202.39257811
10780.0	87699420.65429686
10790.0	80346157.47070311
10800.0	81732554.68749999
10810.0	75459908.69140624
10820.0	78887182.25097655
10830.0	89564240.11230467
10840.0	99290409.42382811
10850.0	91065705.07812497
10860.0	88170155.27343749
10870.0	85289978.51562499
10880.0	93672725.83007811
10890.0	74767756.10351561
10900.0	84425543.45703124
10910.0	84721968.50585935
10920.0	89165083.98437499
10930.0	86193791.74804686
10940.0	84509501.70898436
10950.0	87609142.57812497
10960.0	78158973.14453124
10970.0	86407490.23437499
10980.0	81565999.75585936
10990.0	80237394.77539061
11000.0	78208864.62402342
11010.0	82009612.18261717
11020.0	85944921.50878905
11030.0	70945972.53417967
11040.0	71276416.01562499
11050.0	73007402.09960936
11060.0	70679051.8798828
11070.0	68394640.62499999
11080.0	71552174.56054686
11090.0	74356108.27636717
11100.0	69145289.42871092
11110.0	68941001.0986328
11120.0	75671772.70507811
11130.0	77594891.11328124
11140.0	73228445.92285155
11150.0	74939010.13183592
11160.0	79294531.12792967
11170.0	73254051.39160155
11180.0	87292952.63671874
11190.0	79885306.7626953
11200.0	75044741.45507811
11210.0	77072330.81054686
11220.0	84139573.24218749
11230.0	82235345.8251953
11240.0	88769950.80566405
11250.0	89252975.09765624
11260.0	88843307.37304686
11270.0	88286544.67773436
11280.0	90614909.05761717
11290.0	91422041.38183592
11300.0	84065145.75195311
11310.0	93051610.22949216
11320.0	89648141.7236328
11330.0	88061791.25976561
11340.0	83000265.50292967
11350.0	70301778.93066405
11360.0	88771121.09374999
11370.0	87839406.98242186
11380.0	75852514.7705078
11390.0	84960612.67089842
11400.0	89047982.66601561
11410.0	78440712.52441405
11420.0	91875515.99121092
11430.0	92006831.54296874
11440.0	81167030.02929686
11450.0	95000971.43554686
11460.0	98679704.10156247
11470.0	93171776.61132811
11480.0	90625471.9238281
11490.0	105498652.34374999
11500.0	104458325.68359374
11510.0	100514986.32812499
11520.0	102246571.4111328
11530.0	98410665.64941405
11540.0	94201935.30273436
11550.0	109617698.73046872
11560.0	107829085.93749999
11570.0	102878914.55078124
11580.0	106702588.9892578
11590.0	111777060.91308591
11600.0	99428129.39453122
11610.0	100043155.27343749
11620.0	106726726.92871092
11630.0	111233485.71777342
11640.0	96707513.67187499
11650.0	116987005.61523436
11660.0	100807881.10351561
11670.0	110347493.89648436
11680.0	107904883.54492185
11690.0	79483371.2158203
11700.0	97653349.12109372
11710.0	109123827.39257811
11720.0	114857335.69335936
11730.0	111513986.5722656
11740.0	106840718.01757811
11750.0	111214593.0175781
11760.0	100786423.82812499
11770.0	87366493.65234372
11780.0	78745968.62792967
11790.0	105084502.19726561
11800.0	110794867.18749999
11810.0	110600382.32421874
11820.0	109797352.05078122
11830.0	118620020.26367185
11840.0	114765014.89257811
11850.0	118247926.26953124
11860.0	115100322.02148435
11870.0	123448112.30468747
11880.0	120003063.47656247
11890.0	110938442.13867185
11900.0	121194224.36523435
11910.0	121673509.0332031
11920.0	124281928.95507811
11930.0	129128166.99218749
11940.0	110879836.91406249
11950.0	108242101.07421874
11960.0	111650095.45898436
11970.0	104851566.16210936
11980.0	96629573.97460936
11990.0	104742517.57812499
12000.0	99163497.80273436
12010.0	102598215.82031249
12020.0	103105706.78710936
12030.0	105704899.6582031
12040.0	121355800.04882811
12050.0	115050858.88671872
12060.0	143529612.79296872
12070.0	117066821.04492185
12080.0	134351991.69921872
12090.0	116130664.30664061
12100.0	133600955.81054685
12110.0	110906835.93749999
12120.0	119308856.93359372
12130.0	123454804.93164061
12140.0	140426659.17968747
12150.0	140453852.05078122
12160.0	137062466.30859372
12170.0	139742439.20898435
12180.0	144289132.81249997
12190.0	144607214.35546872
12200.0	132431337.64648435
12210.0	133924498.77929686
12220.0	132546440.91796874
12230.0	131543302.24609374
12240.0	140941529.5410156
12250.0	157781580.3222656
12260.0	153544714.59960935
12270.0	152650429.19921872
12280.0	162155146.7285156
12290.0	156322678.46679685
12300.0	151021529.05273435
12310.0	160747367.91992185
12320.0	144237549.0722656
12330.0	149389452.3925781
12340.0	159696244.87304685
12350.0	144593309.57031247
12360.0	151791030.27343747
12370.0	157800970.70312497
12380.0	155120026.85546872
12390.0	143453084.47265622
12400.0	149168432.37304685
12410.0	123879796.63085936
12420.0	120366395.75195311
12430.0	126976131.83593749
12440.0	115746492.4316406
12450.0	153576903.07617185
12460.0	147703784.4238281
12470.0	155356251.70898435
12480.0	142518159.66796872
12490.0	157011733.15429685
12500.0	143247321.5332031
12510.0	153837525.14648435
12520.0	130149985.83984374
12530.0	132377775.87890622
12540.0	162979137.9394531
12550.0	147254567.6269531
12560.0	153832330.81054685
12570.0	174570026.36718747
12580.0	154135091.30859372
12590.0	161139929.44335935
12600.0	162243690.6738281
12610.0	181419433.34960935
12620.0	153654442.6269531
12630.0	162682431.15234372
12640.0	155382487.79296872
12650.0	160991922.36328122
12660.0	169331412.10937497
12670.0	180776993.16406247
12680.0	175151984.86328122
12690.0	187719787.10937497
12700.0	173431427.2460937
12710.0	176390229.00390622
12720.0	190915255.3710937
12730.0	190954318.35937497
12740.0	173068864.99023432
12750.0	167797267.8222656
12760.0	185754051.75781244
12770.0	181731194.82421872
12780.0	178606594.72656247
12790.0	191064182.12890622
12800.0	185446811.03515622
12810.0	180846005.37109372
12820.0	192001392.33398435
12830.0	178748025.39062497
12840.0	185546421.63085935
12850.0	193013636.23046872
12860.0	164734517.33398435
12870.0	189859140.86914057
12880.0	184841606.93359372
12890.0	186020577.88085935
12900.0	198170771.24023435
12910.0	187967056.64062497
12920.0	184123127.68554682
12930.0	184264610.10742185
12940.0	209399921.87499997
12950.0	183032186.03515622
12960.0	209343532.22656244
12970.0	209151884.2773437
12980.0	214335397.46093744
12990.0	201366696.28906247
13000.0	211402493.65234372
13010.0	201158106.9335937
13020.0	212450519.53124994
13030.0	207609792.48046872
13040.0	220592091.0644531
13050.0	210361418.70117182
13060.0	222965044.92187497
13070.0	197518198.24218747
13080.0	211411220.94726557
13090.0	201705701.90429685
13100.0	207743385.2539062
13110.0	218206104.00390622
13120.0	222202047.85156244
13130.0	208802437.9882812
13140.0	210561851.56249997
13150.0	215650406.24999997
13160.0	210554438.96484372
13170.0	214875155.7617187
13180.0	199476025.87890622
13190.0	216752486.8164062
13200.0	201152801.75781244
13210.0	203754912.10937497
13220.0	201799388.18359372
13230.0	205105270.0195312
13240.0	197550893.55468747
13250.0	175812828.85742185
13260.0	198894842.0410156
13270.0	176303737.79296872
13280.0	179994934.08203122
13290.0	185793939.45312494
13300.0	171277667.4804687
13310.0	152602561.52343747
13320.0	129671722.16796872
13330.0	124660820.80078124
13340.0	137114604.00390622
13350.0	94468063.47656247
13360.0	109586485.83984374
13370.0	102124810.6689453
13380.0	102813115.35644528
13390.0	107838609.61914061
13400.0	116206349.12109374
13410.0	119400500.48828124
13420.0	99223959.47265622
13430.0	95224262.45117186
13440.0	111620226.31835936
13450.0	100600635.00976561
13460.0	109502030.88378905
13470.0	101673201.78222655
13480.0	93911804.44335936
13490.0	113469423.82812499
13500.0	107042265.38085935
13510.0	102158291.87011717
13520.0	98475258.17871092
13530.0	108021023.19335936
13540.0	90247210.44921874
13550.0	95310172.11914061
13560.0	105822671.87499997
13570.0	105064026.4892578
13580.0	101241893.92089842
13590.0	102299865.23437497
13600.0	105236065.42968747
13610.0	105337085.44921874
13620.0	90534912.84179685
13630.0	112951653.80859372
13640.0	108581742.67578122
13650.0	104211190.42968749
13660.0	111087159.66796874
13670.0	104950600.09765622
13680.0	105504726.31835935
13690.0	103658393.79882811
13700.0	103842341.0644531
13710.0	98973984.37499999
13720.0	105268029.05273436
13730.0	106226742.43164061
13740.0	101272238.76953124
13750.0	104973944.09179686
13760.0	107379442.38281249
13770.0	102971140.62499999
13780.0	117375132.32421874
13790.0	107799693.35937497
13800.0	119388678.9550781
13810.0	112000342.04101561
13820.0	121189543.94531249
13830.0	101974859.86328124
13840.0	117473989.74609374
13850.0	112506172.85156247
13860.0	112345287.59765622
13870.0	114667189.20898436
13880.0	106833614.99023436
13890.0	121054005.85937497
13900.0	112928301.26953124
13910.0	105495901.36718749
13920.0	108957427.36816405
13930.0	112096798.46191403
13940.0	108360296.63085936
13950.0	107812719.11621092
13960.0	111348438.35449217
13970.0	111151510.9863281
13980.0	104859354.85839842
13990.0	112547465.20996092
14000.0	105234919.1894531
14010.0	103681564.94140624
14020.0	116763474.36523436
14030.0	111306928.95507811
14040.0	104851375.48828122
14050.0	106932315.91796874
14060.0	124169731.20117185
14070.0	104124077.63671874
14080.0	107837292.48046874
14090.0	107595589.59960936
14100.0	105697142.57812499
14110.0	108930688.59863278
14120.0	102816015.01464842
14130.0	115627814.94140624
14140.0	107785457.51953122
14150.0	105365542.72460935
14160.0	113652555.66406247
14170.0	105026638.67187499
14180.0	100319034.42382811
14190.0	106410414.30664061
14200.0	107341679.93164061
14210.0	109181004.88281249
14220.0	106696302.49023436
14230.0	106744834.47265624
14240.0	105977361.08398436
14250.0	107759516.35742185
14260.0	102145014.40429686
14270.0	109694785.88867185
14280.0	105299833.74023435
14290.0	96906188.23242186
14300.0	119746593.26171874
14310.0	118512979.49218747
14320.0	106054198.73046872
14330.0	107158642.08984372
14340.0	99571901.12304686
14350.0	116959400.63476561
14360.0	114089295.41015622
14370.0	111675064.45312497
14380.0	114544281.49414061
14390.0	115586753.54003905
14400.0	108954954.71191405
14410.0	106762085.69335935
14420.0	108746213.37890624
14430.0	120759766.60156247
14440.0	117877506.46972653
14450.0	106269344.11621092
14460.0	115590783.93554686
14470.0	108790332.76367185
14480.0	118044830.56640624
14490.0	126046814.6972656
14500.0	116609720.21484372
14510.0	108835241.4550781
14520.0	133358270.26367185
14530.0	123082603.02734374
14540.0	111050780.51757811
14550.0	130111209.96093749
14560.0	116517672.36328124
14570.0	113582707.2753906
14580.0	123827290.52734374
14590.0	129063607.42187499
14600.0	128628285.64453122
14610.0	125710883.78906247
