# Flux units: erg / (cm m2 s)
# Wavelength units: Angstrom
wave	flux
7000.0	796682.5141906737
7010.0	807977.2415161132
7020.0	820417.6902770995
7030.0	833762.1841430662
7040.0	846554.1267395018
7050.0	859507.873535156
7060.0	870476.4060974119
7070.0	883069.3283081054
7080.0	897057.0831298826
7090.0	909421.5660095213
7100.0	922344.4595336913
7110.0	936481.7199707029
7120.0	950164.8902893065
7130.0	962570.4574584959
7140.0	976104.3472290038
7150.0	990271.9001770017
7160.0	1005302.2003173826
7170.0	1018958.3358764646
7180.0	1034053.283691406
7190.0	1048680.278778076
7200.0	1063651.885986328
7210.0	1077855.5908203123
7220.0	1093767.0326232908
7230.0	1109161.3769531248
7240.0	1124050.5142211912
7250.0	1140101.0742187498
7260.0	1155533.56552124
7270.0	1171581.2339782713
7280.0	1187662.3878479002
7290.0	1203816.6770935056
7300.0	1220279.991149902
7310.0	1236397.6593017576
7320.0	1253067.8825378416
7330.0	1269604.5341491697
7340.0	1286285.175323486
7350.0	1303312.5534057615
7360.0	1320289.4515991206
7370.0	1337480.5526733396
7380.0	1354705.253601074
7390.0	1372210.998535156
7400.0	1389873.5504150388
7410.0	1407584.4421386716
7420.0	1425102.1118164058
7430.0	1443377.876281738
7440.0	1461550.628662109
7450.0	1479560.264587402
7460.0	1497777.3971557613
7470.0	1516478.7979125972
7480.0	1535071.6552734373
7490.0	1553483.2992553709
7500.0	1572290.1916503904
7510.0	1591439.6972656245
7520.0	1610267.524719238
7530.0	1629091.8807983396
7540.0	1648210.166931152
7550.0	1667545.0363159177
7560.0	1686670.1660156245
7570.0	1706094.4824218748
7580.0	1725951.5075683591
7590.0	1744634.7351074214
7600.0	1762719.0704345698
7610.0	1781340.2175903318
7620.0	1799117.8665161128
7630.0	1814908.8211059566
7640.0	1830521.9268798826
7650.0	1848811.43951416
7660.0	1871695.6787109373
7670.0	1677551.8445968626
7680.0	1917291.6870117185
7690.0	1938997.077941894
7700.0	1783702.2781372068
7710.0	1985353.4469604488
7720.0	2009314.0869140623
7730.0	2040183.1207275386
7740.0	2072090.3320312495
7750.0	2102966.644287109
7760.0	2132956.3293457027
7770.0	2162210.0296020503
7780.0	2191881.1340332027
7790.0	2220833.9004516597
7800.0	2234225.059509277
7810.0	2277284.645080566
7820.0	2308483.863830566
7830.0	2337385.9176635738
7840.0	2366995.422363281
7850.0	2396061.1648559566
7860.0	2426718.8644409175
7870.0	2456776.084899902
7880.0	2487433.197021484
7890.0	2517988.876342773
7900.0	2549748.397827148
7910.0	2580583.404541015
7920.0	2611130.447387695
7930.0	2642971.572875976
7940.0	2673712.509155273
7950.0	2676249.0539550777
7960.0	2737760.0250244136
7970.0	2771055.9234619136
7980.0	2804233.520507812
7990.0	2836972.305297851
8000.0	2869454.513549804
8010.0	2903306.9458007803
8020.0	2937275.4211425777
8030.0	2971364.395141601
8040.0	3004172.02758789
8050.0	3038843.185424804
8060.0	3074578.186035156
8070.0	3108857.177734374
8080.0	3143821.2738037105
8090.0	3178219.207763671
8100.0	3216338.745117187
8110.0	3250353.2104492183
8120.0	3288042.9229736323
8130.0	3325395.721435546
8140.0	3361593.2617187495
8150.0	3400580.154418945
8160.0	3437331.2835693355
8170.0	3472572.8912353506
8180.0	3511009.0332031245
8190.0	3544550.0640869136
8200.0	3567028.900146484
8210.0	3625711.593627929
8220.0	3667740.737915038
8230.0	3706116.867065429
8240.0	3747851.88293457
8250.0	3782878.08227539
8260.0	3826430.8624267573
8270.0	3868461.380004882
8280.0	3908474.6856689444
8290.0	3947608.276367187
8300.0	3995081.222534179
8310.0	4034028.549194335
8320.0	4079305.084228515
8330.0	4119937.5457763663
8340.0	4163694.3817138663
8350.0	4208070.693969726
8360.0	4252007.659912108
8370.0	4295923.889160155
8380.0	4343666.900634765
8390.0	4377361.862182616
8400.0	4423510.498046874
8410.0	4482084.77783203
8420.0	4526121.520996093
8430.0	4570421.783447265
8440.0	4592799.6673583975
8450.0	4629308.792114257
8460.0	4669376.12915039
8470.0	4716427.55126953
8480.0	4769740.066528319
8490.0	4814272.338867187
8500.0	4867527.359008788
8510.0	4914702.667236327
8520.0	4962113.708496093
8530.0	5010854.400634765
8540.0	5065656.188964843
8550.0	5127015.77758789
8560.0	5176592.651367187
8570.0	5227257.14111328
8580.0	5286417.663574217
8590.0	5334579.376220702
8600.0	5386046.752929687
8610.0	5433304.382324218
8620.0	5482127.10571289
8630.0	5532658.538818358
8640.0	5584582.122802733
8650.0	5643225.280761718
8660.0	5714473.602294921
8670.0	5769560.180664062
8680.0	5820691.772460937
8690.0	5856355.407714842
8700.0	5851825.714111327
8710.0	5922590.148925779
8720.0	5972638.00048828
8730.0	6057325.042724608
8740.0	6076917.755126952
8750.0	6180599.639892576
8760.0	6275150.756835937
8770.0	6336115.020751952
8780.0	6408730.010986327
8790.0	6442701.324462889
8800.0	6412896.362304687
8810.0	6545649.9938964825
8820.0	6669745.544433592
8830.0	6716886.840820312
8840.0	6850337.21923828
8850.0	6824913.421630858
8860.0	6901929.687499998
8870.0	6841162.26196289
8880.0	6929637.481689452
8890.0	7019573.699951171
8900.0	7063617.5231933575
8910.0	7201966.674804686
8920.0	7176013.549804686
8930.0	7305813.232421874
8940.0	7380273.315429687
8950.0	7381809.295654295
8960.0	7477580.444335937
8970.0	7557687.896728514
8980.0	7672313.690185546
8990.0	7740993.0114746075
9000.0	7840831.69555664
9010.0	8007987.152099608
9020.0	8042121.917724608
9030.0	8039302.734374998
9040.0	8155284.179687498
9050.0	8351969.421386717
9060.0	8255225.128173826
9070.0	8417160.12573242
9080.0	8768368.713378904
9090.0	8710138.671874998
9100.0	8707806.732177733
9110.0	8791910.46142578
9120.0	9066078.887939451
9130.0	9090491.241455076
9140.0	9127286.651611326
9150.0	9306498.748779295
9160.0	9437855.743408201
9170.0	9560593.811035154
9180.0	9487894.866943358
9190.0	9865080.718994139
9200.0	9726948.791503904
9210.0	9550850.769042967
9220.0	9621115.722656248
9230.0	9427480.377197264
9240.0	9644342.132568358
9250.0	9791639.556884764
9260.0	9865577.636718748
9270.0	9892614.196777342
9280.0	9791001.861572264
9290.0	9974771.514892576
9300.0	10005892.791748045
9310.0	10021706.237792967
9320.0	10259463.83666992
9330.0	10230387.054443358
9340.0	10565795.68481445
9350.0	10237785.400390623
9360.0	10609143.52416992
9370.0	10665806.884765623
9380.0	10947457.031249998
9390.0	10811486.511230467
9400.0	10984719.421386717
9410.0	11062982.910156248
9420.0	11455130.615234373
9430.0	11543714.782714842
9440.0	11478603.942871092
9450.0	11628256.77490234
9460.0	11715214.78271484
9470.0	11822450.01220703
9480.0	12258076.11083984
9490.0	12580988.769531248
9500.0	11641769.409179686
9510.0	12253564.086914059
9520.0	12739179.199218748
9530.0	12730723.26660156
9540.0	13132974.24316406
9550.0	12851067.19970703
9560.0	13198114.685058592
9570.0	12935503.479003903
9580.0	13722049.499511715
9590.0	13828013.610839842
9600.0	13447436.218261717
9610.0	13809361.206054684
9620.0	13522887.451171873
9630.0	14388578.979492186
9640.0	13434610.412597653
9650.0	13706204.772949215
9660.0	14595960.693359373
9670.0	14883129.82177734
9680.0	14289112.182617184
9690.0	14440125.854492184
9700.0	15127818.420410153
9710.0	14474379.82177734
9720.0	15073802.917480465
9730.0	14892504.211425778
9740.0	14923915.588378904
9750.0	15288715.515136717
9760.0	15272900.085449217
9770.0	15473922.119140621
9780.0	15560722.778320309
9790.0	15157219.482421871
9800.0	15998401.000976559
9810.0	16150921.874999996
9820.0	15692292.236328123
9830.0	16025166.748046871
9840.0	16581931.823730467
9850.0	16896157.65380859
9860.0	17062139.09912109
9870.0	17085154.90722656
9880.0	17235753.906249996
9890.0	17776537.35351562
9900.0	14778475.280761715
9910.0	14191042.114257809
9920.0	14191297.302246092
9930.0	14552603.63769531
9940.0	14932233.398437496
9950.0	15262742.00439453
9960.0	15308394.775390623
9970.0	15363513.000488278
9980.0	15304921.508789059
9990.0	15354896.057128903
10000.0	15640664.276123045
10010.0	15948451.263427733
10020.0	16069062.7746582
10030.0	16848685.363769528
10040.0	16253072.38769531
10050.0	16577089.263916014
10060.0	15829308.166503903
10070.0	16470801.757812498
10080.0	17006326.232910153
10090.0	17143433.19702148
10100.0	17615936.859130856
10110.0	17407960.021972653
10120.0	17033884.88769531
10130.0	17338368.347167965
10140.0	17129176.635742184
10150.0	17417796.874999996
10160.0	17400179.260253903
10170.0	17533294.86083984
10180.0	17966819.91577148
10190.0	17896382.049560543
10200.0	17952705.84106445
10210.0	18615679.44335937
10220.0	18110804.32128906
10230.0	18551842.346191403
10240.0	19112899.932861324
10250.0	19305556.57958984
10260.0	18512592.102050778
10270.0	19035169.86083984
10280.0	19099595.062255856
10290.0	19387918.487548824
10300.0	19302904.357910153
10310.0	20231639.007568356
10320.0	19769246.82617187
10330.0	20627829.132080074
10340.0	19853459.991455074
10350.0	20787505.432128903
10360.0	21173471.832275387
10370.0	22397156.37207031
10380.0	21288317.62695312
10390.0	20976289.916992184
10400.0	22098932.73925781
10410.0	23409653.93066406
10420.0	21628557.06787109
10430.0	21192301.330566403
10440.0	23491387.573242184
10450.0	25472621.154785153
10460.0	26884527.28271484
10470.0	22031412.231445305
10480.0	23171118.225097653
10490.0	25407759.826660153
10500.0	24374558.471679684
10510.0	24374913.085937496
10520.0	23338997.131347653
10530.0	25791495.178222653
10540.0	27266319.763183586
10550.0	27259015.808105465
10560.0	26848969.970703118
10570.0	25076059.265136715
10580.0	27414614.624023434
10590.0	27388595.458984368
10600.0	29329501.70898437
10610.0	29255338.378906243
10620.0	27563658.81347656
10630.0	30850352.29492187
10640.0	32301339.78271484
10650.0	29308988.098144528
10660.0	28946244.445800774
10670.0	28989836.242675778
10680.0	30735044.4946289
10690.0	31975644.836425774
10700.0	31747011.047363274
10710.0	30656881.958007805
10720.0	33074226.92871093
10730.0	31565905.45654296
10740.0	31318659.179687496
10750.0	34029025.81787109
10760.0	32997585.57128906
10770.0	35313640.747070305
10780.0	37641263.12255859
10790.0	36149771.54541015
10800.0	37348506.83593749
10810.0	34480102.23388671
10820.0	35353207.45849609
10830.0	36781896.606445305
10840.0	40442095.336914055
10850.0	38068729.43115234
10860.0	36996784.91210937
10870.0	36955264.70947265
10880.0	39677716.430664055
10890.0	34092909.05761718
10900.0	37393948.364257805
10910.0	36015418.39599609
10920.0	39167100.891113274
10930.0	40020909.54589843
10940.0	38635949.89013671
10950.0	39203175.23193359
10960.0	37170403.19824218
10970.0	39504678.58886718
10980.0	37494622.55859374
10990.0	38401949.95117187
11000.0	37514060.79101562
11010.0	39384666.137695305
11020.0	38154839.78271484
11030.0	36289052.79541015
11040.0	35858275.207519524
11050.0	37316942.07763671
11060.0	37033364.50195312
11070.0	36191922.11914062
11080.0	36891083.86230468
11090.0	37071648.31542968
11100.0	35919668.88427734
11110.0	35025053.22265624
11120.0	38157003.4790039
11130.0	38949676.879882805
11140.0	38567423.76708984
11150.0	38188645.99609374
11160.0	39474851.379394524
11170.0	38749795.532226555
11180.0	42208369.750976555
11190.0	39759092.46826171
11200.0	38701934.387207024
11210.0	39550252.746582024
11220.0	41386626.15966796
11230.0	41694038.94042968
11240.0	43286554.32128905
11250.0	42749613.03710937
11260.0	43629884.887695305
11270.0	43722218.38378905
11280.0	44386140.01464843
11290.0	44948260.375976555
11300.0	41852227.41699218
11310.0	45928697.387695305
11320.0	45872870.36132812
11330.0	43112527.40478515
11340.0	41070916.25976562
11350.0	39258267.883300774
11360.0	42953549.07226562
11370.0	43209015.01464843
11380.0	38279143.98193359
11390.0	40633702.6977539
11400.0	40591659.05761718
11410.0	37323594.48242187
11420.0	44705484.61914062
11430.0	44869719.60449217
11440.0	44580373.53515624
11450.0	47629666.137695305
11460.0	49041270.141601555
11470.0	48182315.30761718
11480.0	45695038.2080078
11490.0	51377969.23828124
11500.0	52445989.50195312
11510.0	50992954.223632805
11520.0	51775954.65087889
11530.0	49514411.80419921
11540.0	48629756.71386718
11550.0	53528389.160156235
11560.0	51599517.211914055
11570.0	51472857.5439453
11580.0	52270889.7705078
11590.0	52082961.42578124
11600.0	51102030.15136718
11610.0	49279204.58984374
11620.0	51520010.375976555
11630.0	54554359.61914061
11640.0	50679466.430664055
11650.0	54825346.313476555
11660.0	49614085.083007805
11670.0	52468402.58789061
11680.0	48048630.85937499
11690.0	39162926.879882805
11700.0	43262331.54296874
11710.0	50514156.86035155
11720.0	53708863.76953124
11730.0	53701743.16406249
11740.0	51948938.35449217
11750.0	51663982.17773437
11760.0	47355046.997070305
11770.0	41410791.74804687
11780.0	39832628.540039055
11790.0	48337156.24999999
11800.0	52923113.03710937
11810.0	54672204.83398437
11820.0	55822773.925781235
11830.0	58361598.38867186
11840.0	57490317.26074217
11850.0	59440228.6376953
11860.0	58783070.19042968
11870.0	60503697.02148437
11880.0	59472318.23730468
11890.0	56532001.22070311
11900.0	61611972.04589842
11910.0	62684330.32226561
11920.0	64039735.59570311
11930.0	63919845.94726561
11940.0	60443819.70214843
11950.0	61333157.226562485
11960.0	62739914.91699217
11970.0	57868546.63085936
11980.0	54375225.7080078
11990.0	61276680.297851555
12000.0	58522105.71289062
12010.0	61632923.46191405
12020.0	61316654.907226555
12030.0	67376724.36523436
12040.0	62384038.69628905
12050.0	64531917.72460936
12060.0	73412634.27734374
12070.0	66236308.34960936
12080.0	69578968.13964842
12090.0	64180996.093749985
12100.0	70373607.5439453
12110.0	62934898.80371093
12120.0	66724299.438476555
12130.0	68971327.02636717
12140.0	72563741.57714842
12150.0	74438913.69628905
12160.0	70882904.17480467
12170.0	71038953.00292967
12180.0	73054867.55371092
12190.0	77047536.2548828
12200.0	70534107.17773436
12210.0	71310497.07031249
12220.0	77443785.52246092
12230.0	74916627.80761717
12240.0	75109501.95312499
12250.0	76045931.51855467
12260.0	76988122.1923828
12270.0	79477394.89746092
12280.0	79962509.64355467
12290.0	78304532.95898436
12300.0	79455096.67968749
12310.0	84205713.62304685
12320.0	79333762.45117186
12330.0	79756461.18164061
12340.0	83789983.39843749
12350.0	80222742.67578124
12360.0	82318161.13281249
12370.0	83347603.51562499
12380.0	79455972.90039061
12390.0	77420182.61718749
12400.0	81129466.18652342
12410.0	71751673.33984374
12420.0	69929382.9345703
12430.0	63192493.89648436
12440.0	58628067.62695312
12450.0	78357971.19140624
12460.0	79846548.58398436
12470.0	81387742.91992186
12480.0	80531691.16210936
12490.0	81918811.27929686
12500.0	70931224.36523436
12510.0	78573953.73535155
12520.0	60071561.40136718
12530.0	61434884.39941405
12540.0	78881079.95605467
12550.0	77634053.8330078
12560.0	82056069.82421874
12570.0	87996203.97949217
12580.0	84225667.60253905
12590.0	86134844.36035155
12600.0	86886650.51269528
12610.0	90398442.99316405
12620.0	81677482.66601561
12630.0	89223650.75683592
12640.0	83018330.07812499
12650.0	84207037.35351561
12660.0	88149963.74511717
12670.0	94526955.68847653
12680.0	93118218.99414061
12690.0	95038221.43554686
12700.0	90835083.98437499
12710.0	95049882.32421872
12720.0	99984750.24414061
12730.0	97207079.58984372
12740.0	91538704.95605466
12750.0	90759354.24804686
12760.0	98754579.34570311
12770.0	94570494.14062499
12780.0	95874484.00878905
12790.0	98716512.08496092
12800.0	96490167.35839841
12810.0	99201753.41796874
12820.0	98306248.2910156
12830.0	95754353.7597656
12840.0	99974701.41601561
12850.0	94673325.19531249
12860.0	87234782.59277342
12870.0	95798411.2548828
12880.0	95114512.20703124
12890.0	91688521.11816405
12900.0	100026932.00683592
12910.0	98749234.61914061
12920.0	96038450.3173828
12930.0	89013264.28222653
12940.0	100932252.56347655
12950.0	91111918.57910155
12960.0	104271742.91992185
12970.0	101594584.47265622
12980.0	106665380.37109372
12990.0	100330857.17773436
13000.0	106312742.91992186
13010.0	99335098.87695311
13020.0	101778021.48437499
13030.0	104437811.03515622
13040.0	105350477.53906249
13050.0	101483281.49414061
13060.0	111081674.07226561
13070.0	93064783.4472656
13080.0	111081621.33789061
13090.0	100493708.74023436
13100.0	101990852.7832031
13110.0	110588439.94140624
13120.0	112118390.38085936
13130.0	107271739.25781247
13140.0	108798015.13671874
13150.0	109454121.09374999
13160.0	108731193.11523436
13170.0	107992092.77343749
13180.0	106824747.07031247
13190.0	113176926.75781249
13200.0	102629336.18164061
13210.0	108263282.47070311
13220.0	107156391.11328122
13230.0	106418789.79492185
13240.0	102497643.06640624
13250.0	98582746.82617186
13260.0	106736567.13867185
13270.0	94127644.04296874
13280.0	100357131.59179686
13290.0	99156377.19726561
13300.0	95032119.62890624
13310.0	87973858.03222655
13320.0	72074100.09765624
13330.0	80897647.82714842
13340.0	80339811.76757811
13350.0	63513052.8564453
13360.0	64709618.16406249
13370.0	61449746.94824218
13380.0	62116449.829101555
13390.0	64441211.914062485
13400.0	64390818.11523437
13410.0	69485888.06152342
13420.0	61933888.793945305
13430.0	61652685.05859374
13440.0	66193970.58105468
13450.0	62645541.87011717
13460.0	68111658.20312499
13470.0	63187893.6767578
13480.0	58538136.10839843
13490.0	65773926.02539062
13500.0	65862840.9423828
13510.0	63797318.35937499
13520.0	62103296.14257812
13530.0	66876753.66210937
13540.0	60343005.73730467
13550.0	60938025.63476562
13560.0	64446041.38183593
13570.0	64503295.532226555
13580.0	64991691.77246092
13590.0	65905561.76757812
13600.0	66901234.4970703
13610.0	65927220.94726561
13620.0	60957854.24804687
13630.0	71004758.42285155
13640.0	72175021.72851561
13650.0	67066679.19921874
13660.0	74584761.23046874
13670.0	71406740.84472655
13680.0	70048250.48828124
13690.0	68545911.49902342
13700.0	71318995.72753905
13710.0	69733898.80371092
13720.0	72327799.07226561
13730.0	71977657.59277342
13740.0	72458867.06542967
13750.0	74586338.37890624
13760.0	75781675.78124999
13770.0	74279967.28515624
13780.0	77537890.01464842
13790.0	76523186.88964842
13800.0	80784669.92187499
13810.0	72259132.32421874
13820.0	78774389.28222655
13830.0	67375523.80371092
13840.0	79688013.91601561
13850.0	71981079.2236328
13860.0	71124098.7548828
13870.0	80753239.01367186
13880.0	70609370.36132811
13890.0	77478208.37402342
13900.0	74884156.3720703
13910.0	71298375.97656249
13920.0	71269880.49316405
13930.0	73838424.9267578
13940.0	73101758.05664061
13950.0	71393685.18066405
13960.0	71180469.72656249
13970.0	72751680.29785155
13980.0	70735833.74023436
13990.0	75331494.75097655
14000.0	71680051.14746092
14010.0	69271877.44140624
14020.0	78319405.63964842
14030.0	77172455.93261717
14040.0	73426409.17968749
14050.0	71542656.24999999
14060.0	85853465.0878906
14070.0	72481154.78515624
14080.0	74070091.18652342
14090.0	72090496.33789061
14100.0	74594478.88183592
14110.0	75331546.9970703
14120.0	69676357.17773436
14130.0	77309548.58398436
14140.0	71032444.4580078
14150.0	74474025.63476561
14160.0	79729499.51171874
14170.0	73854340.45410155
14180.0	71754958.25195311
14190.0	71067522.70507811
14200.0	75793503.90624999
14210.0	77302017.82226561
14220.0	75801328.49121092
14230.0	73770036.98730467
14240.0	71083625.36621092
14250.0	77074296.38671874
14260.0	73480666.38183592
14270.0	77745089.59960936
14280.0	75789513.18359374
14290.0	69823023.80371092
14300.0	83376924.31640624
14310.0	81875829.2236328
14320.0	75393148.68164061
14330.0	79089112.91503905
14340.0	69474333.98437499
14350.0	80119167.96874999
14360.0	81791639.16015624
14370.0	78854363.03710936
14380.0	80093098.51074217
14390.0	79833744.87304686
14400.0	77500606.44531249
14410.0	77362450.19531249
14420.0	79289992.43164061
14430.0	85045351.68457028
14440.0	83031140.01464842
14450.0	74248377.31933592
14460.0	83953759.76562499
14470.0	79263045.16601561
14480.0	84054610.83984374
14490.0	87009080.81054686
14500.0	80321891.84570311
14510.0	76735912.84179686
14520.0	94118796.14257811
14530.0	89298971.8017578
14540.0	81685064.08691405
14550.0	89277083.74023436
14560.0	81822813.84277342
14570.0	78108224.24316405
14580.0	90392068.35937499
14590.0	93800390.62499999
14600.0	92020416.74804686
14610.0	90151431.15234374
14620.0	83714398.43749999
14630.0	79411857.66601561
14640.0	91050006.34765624
14650.0	90480652.34374999
14660.0	93456533.20312499
14670.0	94190947.50976561
14680.0	84453926.26953124
14690.0	82924851.07421874
