# Flux units: erg / (cm m2 s)
# Wavelength units: Angstrom
wave	flux
7000.0	151193132031999.97
7010.0	152808837631999.97
7020.0	155777669119999.97
7030.0	158677927935999.97
7040.0	160516956671999.97
7050.0	163157794815999.97
7060.0	162813968895999.97
7070.0	164837479935999.97
7080.0	168049917951999.97
7090.0	169701089279999.97
7100.0	171917967871999.97
7110.0	174697073663999.97
7120.0	177264941055999.94
7130.0	178856948735999.94
7140.0	181082285055999.94
7150.0	183796067327999.97
7160.0	186739866623999.97
7170.0	188979981311999.97
7180.0	191991072767999.97
7190.0	194748167167999.97
7200.0	197578292223999.97
7210.0	199795248127999.97
7220.0	203177359359999.97
7230.0	206089933823999.97
7240.0	208619708415999.94
7250.0	212236266495999.94
7260.0	214898357247999.97
7270.0	218007184383999.97
7280.0	221503476735999.94
7290.0	224470764543999.97
7300.0	228895892479999.97
7310.0	231268122623999.97
7320.0	236174801919999.97
7330.0	239636217855999.94
7340.0	240646424575999.94
7350.0	242344788991999.97
7360.0	246107905023999.97
7370.0	250732013567999.94
7380.0	252932894719999.97
7390.0	254907282431999.97
7400.0	258400334847999.94
7410.0	261093388287999.94
7420.0	262948641791999.97
7430.0	267324876799999.94
7440.0	270882461695999.94
7450.0	272593081343999.97
7460.0	276319724543999.97
7470.0	279981451263999.97
7480.0	283135482879999.94
7490.0	287330369535999.94
7500.0	291531800575999.94
7510.0	294137842687999.94
7520.0	297838137343999.94
7530.0	302312371199999.94
7540.0	305968227327999.94
7550.0	310023211007999.94
7560.0	314129455103999.94
7570.0	318296218623999.94
7580.0	321321609215999.94
7590.0	323651387391999.94
7600.0	326016092159999.94
7610.0	329565265919999.94
7620.0	333290277887999.94
7630.0	334068948991999.94
7640.0	333764854783999.94
7650.0	329778078719999.94
7660.0	317841640447999.94
7670.0	280506617087999.94
7680.0	333709278207999.94
7690.0	339456546815999.94
7700.0	293673387263999.94
7710.0	347350818815999.94
7720.0	363037224959999.94
7730.0	374031341567999.94
7740.0	381708175359999.94
7750.0	386877030399999.94
7760.0	392187549695999.94
7770.0	396281858047999.94
7780.0	402370912255999.94
7790.0	406951247871999.9
7800.0	409564499967999.94
7810.0	419980548095999.94
7820.0	424928387071999.9
7830.0	428118589439999.94
7840.0	432423120895999.9
7850.0	437536890879999.94
7860.0	444183287807999.94
7870.0	448575066111999.9
7880.0	457975072767999.94
7890.0	464160235519999.94
7900.0	467315601407999.94
7910.0	472207656959999.94
7920.0	473329047551999.9
7930.0	481145405439999.94
7940.0	488304570367999.94
7950.0	489497366527999.94
7960.0	502100985855999.9
7970.0	505771778047999.94
7980.0	511447556095999.9
7990.0	515554254847999.94
8000.0	523527284735999.9
8010.0	526600460287999.94
8020.0	535425527807999.94
8030.0	542662070271999.9
8040.0	550788386815999.9
8050.0	552251924479999.9
8060.0	560220813311999.9
8070.0	570076770303999.9
8080.0	580926310399999.9
8090.0	589265987583999.9
8100.0	604546033663999.9
8110.0	612073582591999.9
8120.0	622810699775999.9
8130.0	642586759167999.9
8140.0	656826859519999.9
8150.0	671100837887999.9
8160.0	687374137343999.9
8170.0	696156420095999.9
8180.0	719658643455999.9
8190.0	705409028095999.9
8200.0	670687219711999.9
8210.0	667803963391999.9
8220.0	699800100863999.8
8230.0	695411400703999.8
8240.0	718832127999999.9
8250.0	713997832191999.9
8260.0	724545220607999.9
8270.0	736997257215999.9
8280.0	726627225599999.9
8290.0	711256100863999.8
8300.0	747658801151999.9
8310.0	733894680575999.9
8320.0	745633714175999.9
8330.0	768413933567999.9
8340.0	769574785023999.8
8350.0	761606750207999.9
8360.0	773203517439999.9
8370.0	783185293311999.9
8380.0	801265274879999.9
8390.0	785843130367999.9
8400.0	801531383807999.9
8410.0	864521601023999.8
8420.0	844142182399999.9
8430.0	847076380671999.9
8440.0	805263835135999.9
8450.0	802766499839999.9
8460.0	808274943999999.9
8470.0	815372320767999.9
8480.0	825955471359999.9
8490.0	833367629823999.8
8500.0	845116313599999.9
8510.0	851471929343999.8
8520.0	862556364799999.9
8530.0	867400564735999.9
8540.0	873904553983999.8
8550.0	888990240767999.9
8560.0	901531742207999.9
8570.0	908083732479999.9
8580.0	921744404479999.9
8590.0	920556605439999.9
8600.0	926856187903999.8
8610.0	938848436223999.8
8620.0	952157847551999.8
8630.0	959250501631999.8
8640.0	964901089279999.9
8650.0	972838776831999.8
8660.0	988759240703999.8
8670.0	996282982399999.9
8680.0	997501706239999.9
8690.0	1005685759999999.9
8700.0	1007569342463999.8
8710.0	1012245168127999.9
8720.0	1028697239551999.8
8730.0	1050721746943999.8
8740.0	1053427539967999.9
8750.0	1068047003647999.9
8760.0	1100410052607999.9
8770.0	1106138116095999.9
8780.0	1127823527935999.8
8790.0	1142614896639999.8
8800.0	1133175013375999.8
8810.0	1189005684735999.8
8820.0	1207571128319999.8
8830.0	1230395404287999.8
8840.0	1287553609727999.8
8850.0	1285356355583999.8
8860.0	1267194937343999.8
8870.0	1180513173503999.8
8880.0	1185225822207999.8
8890.0	1224200191999999.8
8900.0	1229160783871999.8
8910.0	1277647192063999.8
8920.0	1241470193663999.8
8930.0	1313909669887999.8
8940.0	1292677267455999.8
8950.0	1293174308863999.8
8960.0	1293380132863999.8
8970.0	1334943686655999.8
8980.0	1365582958591999.8
8990.0	1368948523007999.8
9000.0	1427049967615999.8
9010.0	1497201188863999.8
9020.0	1482901143551999.8
9030.0	1447275519999999.8
9040.0	1445811044351999.8
9050.0	1582205616127999.5
9060.0	1559162519551999.8
9070.0	1558039871487999.5
9080.0	1901943513087999.5
9090.0	1753411035135999.8
9100.0	1681498800127999.5
9110.0	1756699320319999.8
9120.0	1958807617535999.8
9130.0	1924897234943999.5
9140.0	1857189142527999.5
9150.0	2018531442687999.5
9160.0	2142313504767999.5
9170.0	2150417350655999.8
9180.0	2052689534975999.8
9190.0	2327269351423999.5
9200.0	2146469076991999.8
9210.0	1863646363647999.5
9220.0	1725732151295999.8
9230.0	1685962760191999.8
9240.0	1656830394367999.5
9250.0	1709981417471999.8
9260.0	1710331609087999.5
9270.0	1732381360127999.5
9280.0	1663825551359999.8
9290.0	1683566682111999.8
9300.0	1698910945279999.8
9310.0	1697640808447999.5
9320.0	1750867050495999.8
9330.0	1729307713535999.8
9340.0	1824018653183999.5
9350.0	1753545383935999.8
9360.0	1811169411071999.8
9370.0	1799639146495999.8
9380.0	1891791052799999.8
9390.0	1865540796415999.8
9400.0	1941183684607999.5
9410.0	1931455930367999.5
9420.0	2094580539391999.8
9430.0	2070025428991999.8
9440.0	2012972236799999.8
9450.0	2019684704255999.8
9460.0	2147525943295999.8
9470.0	2032812539903999.5
9480.0	2227199533055999.8
9490.0	2410863190015999.5
9500.0	2144084090879999.5
9510.0	2203905654783999.5
9520.0	2358202523647999.5
9530.0	2351050047487999.5
9540.0	2547364986879999.5
9550.0	2418133614591999.5
9560.0	2451983040511999.5
9570.0	2483421650943999.5
9580.0	2875647328255999.0
9590.0	2784076382207999.5
9600.0	2605986054143999.5
9610.0	2823916265471999.5
9620.0	2614613663743999.5
9630.0	3040595116031999.5
9640.0	2713612320767999.5
9650.0	2950145376255999.0
9660.0	3147109203967999.5
9670.0	3231390515199999.5
9680.0	3292451897343999.5
9690.0	3316112850943999.5
9700.0	3454086021119999.5
9710.0	3229037232127999.5
9720.0	3385317359615999.0
9730.0	2964308705279999.5
9740.0	2908894117887999.5
9750.0	2950209937407999.5
9760.0	3082955284479999.5
9770.0	3015516110847999.5
9780.0	3119252537343999.5
9790.0	3288558927871999.5
9800.0	3299856662527999.5
9810.0	3119967993855999.0
9820.0	2841785892863999.5
9830.0	3002965917695999.0
9840.0	3180022120447999.5
9850.0	3204720099327999.5
9860.0	3289292488703999.5
9870.0	3471695282175999.0
9880.0	3206058434559999.5
9890.0	3725587406847999.0
9900.0	2577066926079999.5
9910.0	2277388034047999.5
9920.0	2327622189055999.5
9930.0	2428951617535999.5
9940.0	2527106949119999.5
9950.0	2620931063807999.5
9960.0	2637897097215999.5
9970.0	2800387211263999.5
9980.0	2664322949119999.5
9990.0	2539827937279999.5
10000.0	2689660407807999.5
10010.0	2735912869887999.5
10020.0	2790474014719999.5
10030.0	2984839471103999.5
10040.0	2769750745087999.5
10050.0	2956941881343999.5
10060.0	2674067992575999.5
10070.0	2864872452095999.0
10080.0	3096635641855999.0
10090.0	3020099608575999.0
10100.0	3323319328767999.5
10110.0	3043588308991999.5
10120.0	3128369151999999.5
10130.0	3306105020415999.0
10140.0	2947304693759999.5
10150.0	3338541178879999.5
10160.0	3065021644799999.5
10170.0	3043315122175999.0
10180.0	3459191537663999.5
10190.0	3209260949503999.5
10200.0	3132789784575999.0
10210.0	3540818477055999.0
10220.0	3137622237183999.5
10230.0	3458573205503999.5
10240.0	3711599910911999.5
10250.0	3518612512767999.0
10260.0	3117222068223999.5
10270.0	3207394902015999.0
10280.0	3173410533375999.0
10290.0	3406944497663999.5
10300.0	3303430184959999.5
10310.0	3658583588863999.5
10320.0	3414283460607999.5
10330.0	3627702075391999.5
10340.0	3509681635327999.0
10350.0	3733935357951999.5
10360.0	3919735185407999.0
10370.0	4000555450367999.0
10380.0	3865530499071999.5
10390.0	3768229380095999.0
10400.0	3963907702783999.5
10410.0	4539351908351999.0
10420.0	3858848727039999.5
10430.0	3569071570943999.5
10440.0	4389091753983999.5
10450.0	4762596057087999.0
10460.0	5452286820351999.0
10470.0	3677638164479999.5
10480.0	4030178607103999.5
10490.0	4714658766847999.0
10500.0	4537907896319999.0
10510.0	4327334699007999.0
10520.0	3871123628031999.5
10530.0	5202545328127999.0
10540.0	5034535084031999.0
10550.0	5070041145343999.0
10560.0	4438132244479999.0
10570.0	4097098514431999.5
10580.0	5372447883263999.0
10590.0	5130103816191999.0
10600.0	5467427332095999.0
10610.0	4840181555199999.0
10620.0	4622264762367999.0
10630.0	5305300541439999.0
10640.0	6577713700863999.0
10650.0	5927270547455999.0
10660.0	5509088034815999.0
10670.0	4760128864255999.0
10680.0	5756546203647999.0
10690.0	6601507782655999.0
10700.0	5971587514367999.0
10710.0	6414943551487999.0
10720.0	7137758412799999.0
10730.0	6128338878463999.0
10740.0	7168551247871998.0
10750.0	7385888268287999.0
10760.0	7766237577215998.0
10770.0	8152620302335998.0
10780.0	8769942110207999.0
10790.0	8034615828479999.0
10800.0	8173255532543999.0
10810.0	7545990914047999.0
10820.0	7888718340095998.0
10830.0	8956424060927999.0
10840.0	9929041002495998.0
10850.0	9106570493951998.0
10860.0	8817015488511998.0
10870.0	8528997826559998.0
10880.0	9367272603647998.0
10890.0	7476775632895998.0
10900.0	8442554417151998.0
10910.0	8472196988927999.0
10920.0	8916508524543999.0
10930.0	8619379212287999.0
10940.0	8450950299647999.0
10950.0	8760914321407999.0
10960.0	7815897391103999.0
10970.0	8640749060095998.0
10980.0	8156599992319999.0
10990.0	8023739629567999.0
11000.0	7820886523903999.0
11010.0	8200961277951998.0
11020.0	8594492178431998.0
11030.0	7094597337087999.0
11040.0	7127641653247999.0
11050.0	7300740202495998.0
11060.0	7067905196031998.0
11070.0	6839464099839999.0
11080.0	7155217448959999.0
11090.0	7435610906623999.0
11100.0	6914528944127999.0
11110.0	6894100217855999.0
11120.0	7567177351167999.0
11130.0	7759489114111998.0
11140.0	7322844602367999.0
11150.0	7493901074431998.0
11160.0	7929453117439999.0
11170.0	7325405200383999.0
11180.0	8729295273983999.0
11190.0	7988530741247999.0
11200.0	7504474193919999.0
11210.0	7707233116159999.0
11220.0	8413957414911998.0
11230.0	8223534579711998.0
11240.0	8876995084287999.0
11250.0	8925297508351998.0
11260.0	8884330790911998.0
11270.0	8828654518271998.0
11280.0	9061490982911998.0
11290.0	9142204252159998.0
11300.0	8406514679807999.0
11310.0	9305161039871998.0
11320.0	8964814127103999.0
11330.0	8806179225599998.0
11340.0	8300026642431998.0
11350.0	7030177923071998.0
11360.0	8877112213503999.0
11370.0	8783940698111998.0
11380.0	7585251524607999.0
11390.0	8496061382655998.0
11400.0	8904798289919998.0
11410.0	7844071276543999.0
11420.0	9187551707135998.0
11430.0	9200683220991998.0
11440.0	8116703002623999.0
11450.0	9500097101823998.0
11460.0	9867970510847998.0
11470.0	9317177786367998.0
11480.0	9062547324927998.0
11490.0	1.0549865267199998e+16
11500.0	1.0445832650751998e+16
11510.0	1.0051498770431998e+16
11520.0	1.0224657203199998e+16
11530.0	9841066622975998.0
11540.0	9420193562623998.0
11550.0	1.0961769938943998e+16
11560.0	1.0782908678143998e+16
11570.0	1.0287891513343998e+16
11580.0	1.0670258946047998e+16
11590.0	1.1177706209279998e+16
11600.0	9942812999679998.0
11610.0	1.0004315635711998e+16
11620.0	1.0672672784383998e+16
11630.0	1.1123348652031998e+16
11640.0	9670751420415998.0
11650.0	1.1698700517375998e+16
11660.0	1.0080788234239998e+16
11670.0	1.1034749468671998e+16
11680.0	1.0790488457215998e+16
11690.0	7948337184767999.0
11700.0	9765334974463998.0
11710.0	1.0912382746623998e+16
11720.0	1.1485733683199998e+16
11730.0	1.1151398764543996e+16
11740.0	1.0684071772159998e+16
11750.0	1.1121459412991998e+16
11760.0	1.0078642421759998e+16
11770.0	8736649445375998.0
11780.0	7874596929535998.0
11790.0	1.0508450299903998e+16
11800.0	1.1079486881791998e+16
11810.0	1.1060038254591998e+16
11820.0	1.0979735240703998e+16
11830.0	1.1862002171903996e+16
11840.0	1.1476501479423996e+16
11850.0	1.1824792682495998e+16
11860.0	1.1510032302079998e+16
11870.0	1.2344811225087998e+16
11880.0	1.2000306495487998e+16
11890.0	1.1093844295679998e+16
11900.0	1.2119422533631998e+16
11910.0	1.2167350878207998e+16
11920.0	1.2428192940031998e+16
11930.0	1.2912816652287998e+16
11940.0	1.1087983656959998e+16
11950.0	1.0824210137087998e+16
11960.0	1.1165009625087998e+16
11970.0	1.0485156659199998e+16
11980.0	9662957551615998.0
11990.0	1.0474251878399998e+16
12000.0	9916349857791998.0
12010.0	1.0259821576191998e+16
12020.0	1.0310570770431998e+16
12030.0	1.0570489987071998e+16
12040.0	1.2135580008447998e+16
12050.0	1.1505086005247998e+16
12060.0	1.4352961372159998e+16
12070.0	1.1706682114047998e+16
12080.0	1.3435199258623996e+16
12090.0	1.1613066526719998e+16
12100.0	1.3360095674367998e+16
12110.0	1.1090683772927998e+16
12120.0	1.1930885685247998e+16
12130.0	1.2345480609791998e+16
12140.0	1.4042666008575998e+16
12150.0	1.4045385162751996e+16
12160.0	1.3706246733823996e+16
12170.0	1.3974243917823996e+16
12180.0	1.4428913336319998e+16
12190.0	1.4460721496063996e+16
12200.0	1.3243133788159998e+16
12210.0	1.3392449994751998e+16
12220.0	1.3254644072447998e+16
12230.0	1.3154330312703996e+16
12240.0	1.4094153023487998e+16
12250.0	1.5778158116863996e+16
12260.0	1.5354471677951996e+16
12270.0	1.5265042890751996e+16
12280.0	1.6215514906623996e+16
12290.0	1.5632268165119998e+16
12300.0	1.5102153097215998e+16
12310.0	1.6074736861183996e+16
12320.0	1.4423754997759998e+16
12330.0	1.4938945388543996e+16
12340.0	1.5969624784895998e+16
12350.0	1.4459331051519998e+16
12360.0	1.5179103109119998e+16
12370.0	1.5780097294335998e+16
12380.0	1.5512002822143996e+16
12390.0	1.4345308602367998e+16
12400.0	1.4916843241471996e+16
12410.0	1.2387979804671998e+16
12420.0	1.2036639604735998e+16
12430.0	1.2697613271039998e+16
12440.0	1.1574649389055998e+16
12450.0	1.5357690413055998e+16
12460.0	1.4770378506239998e+16
12470.0	1.5535625142271996e+16
12480.0	1.4251816124415998e+16
12490.0	1.5701173305343996e+16
12500.0	1.4324732329983996e+16
12510.0	1.5383752572927998e+16
12520.0	1.3014998597631998e+16
12530.0	1.3237777596415998e+16
12540.0	1.6297913827327998e+16
12550.0	1.4725457002495998e+16
12560.0	1.5383233167359998e+16
12570.0	1.7457002872831996e+16
12580.0	1.5413509357567998e+16
12590.0	1.6113992794111996e+16
12600.0	1.6224369082367998e+16
12610.0	1.8141943529471996e+16
12620.0	1.5365444435967998e+16
12630.0	1.6268243238911996e+16
12640.0	1.5538249072639998e+16
12650.0	1.6099192406015998e+16
12660.0	1.6933141315583996e+16
12670.0	1.8077699571711996e+16
12680.0	1.7515198480383996e+16
12690.0	1.8771978682367996e+16
12700.0	1.7343142854655998e+16
12710.0	1.7639023083519996e+16
12720.0	1.9091525566463996e+16
12730.0	1.9095432232959996e+16
12740.0	1.7306886504447998e+16
12750.0	1.6779727011839996e+16
12760.0	1.8575405252607996e+16
12770.0	1.8173119758335996e+16
12780.0	1.7860659511295998e+16
12790.0	1.9106418196479996e+16
12800.0	1.8544681271295996e+16
12810.0	1.8084600430591996e+16
12820.0	1.9200139395071996e+16
12830.0	1.7874802769919996e+16
12840.0	1.8554642235391996e+16
12850.0	1.9301363711999996e+16
12860.0	1.6473451757567998e+16
12870.0	1.8985914367999996e+16
12880.0	1.8484160757759996e+16
12890.0	1.8602057826303996e+16
12900.0	1.9817076981759996e+16
12910.0	1.8796705906687996e+16
12920.0	1.8412313051135996e+16
12930.0	1.8426460962815996e+16
12940.0	2.0939992006655996e+16
12950.0	1.8303218745343996e+16
12960.0	2.0934353420287996e+16
12970.0	2.0915188596735996e+16
12980.0	2.1433539985407996e+16
12990.0	2.0136669872127996e+16
13000.0	2.1140249378815996e+16
13010.0	2.0115811008511996e+16
13020.0	2.1245051928575996e+16
13030.0	2.0760979275775996e+16
13040.0	2.2059209261055996e+16
13050.0	2.1036142002175996e+16
13060.0	2.2296504532991996e+16
13070.0	1.9751820099583996e+16
13080.0	2.1141122383871996e+16
13090.0	2.0170570104831996e+16
13100.0	2.0774338723839996e+16
13110.0	2.1820610510847996e+16
13120.0	2.2220205096959996e+16
13130.0	2.0880243916799996e+16
13140.0	2.1056185237503996e+16
13150.0	2.1565040754687996e+16
13160.0	2.1055444025343996e+16
13170.0	2.1487515631615996e+16
13180.0	1.9947602739199996e+16
13190.0	2.1675249008639996e+16
13200.0	2.0115280330751996e+16
13210.0	2.0375491248127996e+16
13220.0	2.0179938967551996e+16
13230.0	2.0510527356927996e+16
13240.0	1.9755089330175996e+16
13250.0	1.7581282852863996e+16
13260.0	1.9889484300287996e+16
13270.0	1.7630373871615998e+16
13280.0	1.7999493660671996e+16
13290.0	1.8579394068479996e+16
13300.0	1.7127766982655998e+16
13310.0	1.5260256190463996e+16
13320.0	1.2967172308991998e+16
13330.0	1.2466082234367998e+16
13340.0	1.3711460630527998e+16
13350.0	9446806421503998.0
13360.0	1.0958648639487998e+16
13370.0	1.0212481089535998e+16
13380.0	1.0281311518719998e+16
13390.0	1.0783861030911998e+16
13400.0	1.1620634935295998e+16
13410.0	1.1940050059263996e+16
13420.0	9922396012543998.0
13430.0	9522426281983998.0
13440.0	1.1162022739967998e+16
13450.0	1.0060063539199998e+16
13460.0	1.0950203236351998e+16
13470.0	1.0167320207359998e+16
13480.0	9391180414975998.0
13490.0	1.1346942394367998e+16
13500.0	1.0704226615295998e+16
13510.0	1.0215829274623998e+16
13520.0	9847525933055998.0
13530.0	1.0802102435839998e+16
13540.0	9024721092607998.0
13550.0	9531017347071998.0
13560.0	1.0582267232255998e+16
13570.0	1.0506402807807998e+16
13580.0	1.0124189417471998e+16
13590.0	1.0229986582527998e+16
13600.0	1.0523606638591998e+16
13610.0	1.0533708660735998e+16
13620.0	9053491232767998.0
13630.0	1.1295165464575998e+16
13640.0	1.0858174332927998e+16
13650.0	1.0421119090687998e+16
13660.0	1.1108716118015998e+16
13670.0	1.0495060099071998e+16
13680.0	1.0550472671231998e+16
13690.0	1.0365839458303998e+16
13700.0	1.0384234070015998e+16
13710.0	9897398452223998.0
13720.0	1.0526802903039998e+16
13730.0	1.0622674272255998e+16
13740.0	1.0127223881727998e+16
13750.0	1.0497394475007998e+16
13760.0	1.0737944281087998e+16
13770.0	1.0297114148863998e+16
13780.0	1.1737513328639998e+16
13790.0	1.0779969486847998e+16
13800.0	1.1938867937279998e+16
13810.0	1.1200034275327998e+16
13820.0	1.2118954442751998e+16
13830.0	1.0197486043135998e+16
13840.0	1.1747399090175998e+16
13850.0	1.1250617401343996e+16
13860.0	1.1234528788479998e+16
13870.0	1.1466718920703996e+16
13880.0	1.0683361542143998e+16
13890.0	1.2105400664063996e+16
13900.0	1.1292830187519998e+16
13910.0	1.0549590130687998e+16
13920.0	1.0895742713855998e+16
13930.0	1.1209679880191998e+16
13940.0	1.0836029833215998e+16
13950.0	1.0781271916543998e+16
13960.0	1.1134843879423996e+16
13970.0	1.1115151114239998e+16
13980.0	1.0485935538175998e+16
13990.0	1.1254746595327998e+16
14000.0	1.0523491926015998e+16
14010.0	1.0368156565503998e+16
14020.0	1.1676347416575998e+16
14030.0	1.1130692976639998e+16
14040.0	1.0485137719295998e+16
14050.0	1.0693231656959998e+16
14060.0	1.2416973307903996e+16
14070.0	1.0412407848959998e+16
14080.0	1.0783729319935998e+16
14090.0	1.0759559053311998e+16
14100.0	1.0569714221055998e+16
14110.0	1.0893068910591998e+16
14120.0	1.0281601564671998e+16
14130.0	1.1562781507583996e+16
14140.0	1.0778545815551998e+16
