# Flux units: erg / (cm m2 s)
# Wavelength units: Angstrom
wave	flux
7000.0	124680164863999.97
7010.0	126435037695999.98
7020.0	128244723711999.98
7030.0	130087548927999.97
7040.0	131923059711999.98
7050.0	133771758591999.98
7060.0	135614907903999.97
7070.0	137494782463999.97
7080.0	139426330623999.97
7090.0	141345317887999.97
7100.0	143276944895999.97
7110.0	145266518015999.97
7120.0	147257714687999.97
7130.0	149240148991999.97
7140.0	151256181247999.97
7150.0	153314859519999.97
7160.0	155397223423999.97
7170.0	157477663743999.97
7180.0	159605869055999.97
7190.0	161747155967999.97
7200.0	163907802111999.97
7210.0	166089550335999.97
7220.0	168300690943999.97
7230.0	170526576639999.97
7240.0	172754987007999.97
7250.0	175033335807999.97
7260.0	177309761535999.94
7270.0	179617646591999.97
7280.0	181945298943999.97
7290.0	184300069887999.97
7300.0	186680284159999.97
7310.0	189056990207999.97
7320.0	191484100607999.97
7330.0	193913605119999.97
7340.0	196356520959999.97
7350.0	198822680575999.94
7360.0	201318313983999.97
7370.0	203838060543999.97
7380.0	206358566911999.97
7390.0	208913283071999.97
7400.0	211508246527999.97
7410.0	214109944831999.97
7420.0	216708091903999.97
7430.0	219400864767999.94
7440.0	222070609919999.97
7450.0	224753937407999.94
7460.0	227471010815999.94
7470.0	230222518271999.97
7480.0	232978655231999.97
7490.0	235755615231999.97
7500.0	238563273727999.94
7510.0	241397909503999.97
7520.0	244229635071999.97
7530.0	247078439935999.94
7540.0	249956815871999.97
7550.0	252860706815999.94
7560.0	255740087295999.94
7570.0	258664985599999.94
7580.0	261647646719999.94
7590.0	264543489023999.97
7600.0	267380254719999.94
7610.0	270216433663999.97
7620.0	272964552703999.97
7630.0	275317812223999.97
7640.0	277279730687999.94
7650.0	278597871615999.94
7660.0	278374663167999.94
7670.0	254696194047999.94
7680.0	286540012543999.94
7690.0	290158918655999.94
7700.0	268251846143999.97
7710.0	296708916223999.94
7720.0	302676089855999.94
7730.0	307726959615999.94
7740.0	312285266943999.94
7750.0	316467737599999.94
7760.0	320461031423999.94
7770.0	324331537407999.94
7780.0	328193269759999.94
7790.0	332028546047999.94
7800.0	334355573759999.94
7810.0	339608267775999.94
7820.0	343559878655999.94
7830.0	347367882751999.94
7840.0	351324764159999.94
7850.0	355214204927999.94
7860.0	359195744255999.94
7870.0	363114022911999.9
7880.0	367137411071999.9
7890.0	371178602495999.94
7900.0	375328743423999.94
7910.0	379342356479999.94
7920.0	383409999871999.9
7930.0	387645237247999.94
7940.0	391836069887999.94
7950.0	393904322559999.94
7960.0	400327081983999.94
7970.0	404606513151999.9
7980.0	408978642943999.94
7990.0	413299199999999.94
8000.0	417600669695999.94
8010.0	422036582399999.94
8020.0	426535000063999.94
8030.0	431070326783999.94
8040.0	435440670719999.94
8050.0	439960985599999.94
8060.0	444680163327999.94
8070.0	449266847743999.94
8080.0	453955465215999.9
8090.0	458561705983999.94
8100.0	463631982591999.9
8110.0	468181778431999.9
8120.0	473178812415999.9
8130.0	478224320511999.9
8140.0	483055419391999.9
8150.0	488308447231999.9
8160.0	493204279295999.9
8170.0	497889667071999.9
8180.0	502984527871999.9
8190.0	507271440383999.94
8200.0	510083264511999.9
8210.0	517748561919999.9
8220.0	523502972927999.94
8230.0	528563103743999.94
8240.0	534127407103999.94
8250.0	538787166207999.94
8260.0	544490668031999.9
8270.0	549934481407999.94
8280.0	554956474367999.94
8290.0	559838545919999.9
8300.0	566422511615999.9
8310.0	571262302207999.9
8320.0	577162893311999.9
8330.0	582590894079999.9
8340.0	588407349247999.9
8350.0	593862178815999.9
8360.0	599662376959999.9
8370.0	605467428863999.9
8380.0	611871698943999.9
8390.0	615882526719999.9
8400.0	622237528063999.9
8410.0	630555078655999.9
8420.0	635849416703999.9
8430.0	641618452479999.9
8440.0	645133416447999.9
8450.0	650274867199999.9
8460.0	655804680191999.9
8470.0	662107176959999.9
8480.0	668696061951999.9
8490.0	674647029759999.9
8500.0	681203773439999.9
8510.0	687468707839999.9
8520.0	693933539327999.9
8530.0	699922550783999.8
8540.0	706429358079999.9
8550.0	713707479039999.9
8560.0	720304021503999.8
8570.0	726833827839999.9
8580.0	733954547711999.9
8590.0	739897790463999.8
8600.0	746298511359999.9
8610.0	752695754751999.9
8620.0	759235551231999.9
8630.0	765730029567999.9
8640.0	772440100863999.8
8650.0	779332304895999.9
8660.0	787323080703999.8
8670.0	794217234431999.9
8680.0	800664477695999.9
8690.0	805735227391999.9
8700.0	808625836031999.9
8710.0	816540639231999.9
8720.0	823069114367999.9
8730.0	832738545663999.8
8740.0	837751521279999.9
8750.0	848070938623999.8
8760.0	857945513983999.8
8770.0	865270321151999.8
8780.0	873938747391999.8
8790.0	880499728383999.8
8800.0	879956897791999.8
8810.0	895153762303999.8
8820.0	906401378303999.8
8830.0	913499688959999.9
8840.0	926668062719999.9
8850.0	928985395199999.9
8860.0	938962194431999.8
8870.0	937920163839999.9
8880.0	948581036031999.8
8890.0	957498347519999.9
8900.0	964933554175999.9
8910.0	977629859839999.9
8920.0	980203261951999.8
8930.0	992056737791999.8
8940.0	1002092478463999.8
8950.0	1005970681855999.9
8960.0	1016112783359999.9
8970.0	1024711540735999.9
8980.0	1037085474815999.9
8990.0	1046165708799999.8
9000.0	1056179937279999.8
9010.0	1072163815423999.8
9020.0	1080364339199999.8
9030.0	1080771977215999.9
9040.0	1094528524287999.9
9050.0	1112818425855999.9
9060.0	1111533535231999.8
9070.0	1124889919487999.9
9080.0	1159746375679999.8
9090.0	1155481059327999.8
9100.0	1159859970047999.8
9110.0	1170428473343999.8
9120.0	1197277593599999.8
9130.0	1201272168447999.8
9140.0	1203980271615999.8
9150.0	1225848811519999.8
9160.0	1242089607167999.8
9170.0	1253515624447999.8
9180.0	1250142511103999.8
9190.0	1284551213055999.8
9200.0	1277429788671999.8
9210.0	1265499709439999.8
9220.0	1271702073343999.8
9230.0	1267089997823999.8
9240.0	1285433532415999.8
9250.0	1297533841407999.8
9260.0	1306604797951999.8
9270.0	1313213542399999.8
9280.0	1310838452223999.8
9290.0	1326465282047999.8
9300.0	1335853608959999.8
9310.0	1341340884991999.8
9320.0	1362439143423999.8
9330.0	1363241443327999.8
9340.0	1386420449279999.8
9350.0	1370933030911999.8
9360.0	1402044010495999.8
9370.0	1408496705535999.8
9380.0	1435954208767999.5
9390.0	1432803598335999.8
9400.0	1449090195455999.8
9410.0	1459196444671999.8
9420.0	1489282850815999.8
9430.0	1501516906495999.8
9440.0	1496698634239999.8
9450.0	1514743660543999.8
9460.0	1531008122879999.8
9470.0	1533360087039999.8
9480.0	1569856610303999.8
9490.0	1599983550463999.8
9500.0	1551358722047999.5
9510.0	1584754761727999.5
9520.0	1620025753599999.8
9530.0	1628313427967999.5
9540.0	1662252089343999.8
9550.0	1654894059519999.8
9560.0	1671253204991999.8
9570.0	1665219813375999.8
9580.0	1742624014335999.8
9590.0	1737750200319999.8
9600.0	1721128861695999.8
9610.0	1753511477247999.5
9620.0	1742059216895999.8
9630.0	1811010076671999.8
9640.0	1771381358591999.8
9650.0	1802485424127999.5
9660.0	1849137692671999.8
9670.0	1878112976895999.8
9680.0	1882568278015999.8
9690.0	1877524054015999.8
9700.0	1928543084543999.5
9710.0	1899825520639999.8
9720.0	1923481935871999.8
9730.0	1915700748287999.5
9740.0	1913599631359999.8
9750.0	1941719474175999.8
9760.0	1958917275647999.5
9770.0	1969012899839999.8
9780.0	1992149344255999.8
9790.0	1987856719871999.8
9800.0	2017400258559999.8
9810.0	2016478502911999.8
9820.0	1991374503935999.8
9830.0	2017715953663999.5
9840.0	2057746866175999.8
9850.0	2080139206655999.8
9860.0	2104568037375999.8
9870.0	2121408102399999.5
9880.0	2116316307455999.8
9890.0	2177953308671999.8
9900.0	1961647751167999.5
9910.0	1918011867135999.8
9920.0	1927259914239999.8
9930.0	1960037056511999.8
9940.0	1993650806783999.5
9950.0	2020838465535999.8
9960.0	2033367064575999.8
9970.0	2052710653951999.8
9980.0	2047575244799999.8
9990.0	2048329252863999.5
10000.0	2082272923647999.5
10010.0	2105334788095999.8
10020.0	2123478237183999.5
10030.0	2181910568959999.5
10040.0	2146469556223999.5
10050.0	2179230281727999.5
10060.0	2126626918399999.5
10070.0	2184020787199999.5
10080.0	2230428758015999.8
10090.0	2241982324735999.8
10100.0	2292362543103999.5
10110.0	2266696077311999.5
10120.0	2259246051327999.5
10130.0	2295305125887999.5
10140.0	2268008472575999.5
10150.0	2319016001535999.5
10160.0	2305363378175999.5
10170.0	2312235339775999.5
10180.0	2373590904831999.5
10190.0	2359299551231999.5
10200.0	2361695416319999.5
10210.0	2432500789247999.5
10220.0	2383593283583999.5
10230.0	2433839378431999.5
10240.0	2481056231423999.5
10250.0	2490832433151999.5
10260.0	2432429649919999.5
10270.0	2476315471871999.5
10280.0	2475279785983999.5
10290.0	2515848232959999.5
10300.0	2513612324863999.5
10310.0	2589900865535999.5
10320.0	2557221478399999.5
10330.0	2629156442111999.5
10340.0	2583644381183999.5
10350.0	2648013254655999.5
10360.0	2691914764287999.5
10370.0	2756956323839999.5
10380.0	2712669077503999.5
10390.0	2691921149951999.5
10400.0	2788314636287999.5
10410.0	2879146913791999.5
10420.0	2754100621311999.5
10430.0	2716843425791999.5
10440.0	2896946880511999.5
10450.0	3022017150975999.0
10460.0	3179762237439999.5
10470.0	2790362374143999.5
10480.0	2885023289343999.5
10490.0	3062422605823999.5
10500.0	3034454106111999.5
10510.0	3021534543871999.5
10520.0	2904176738303999.5
10530.0	3151773728767999.5
10540.0	3205540044799999.5
10550.0	3229089325055999.0
10560.0	3118424506367999.5
10570.0	3034501267455999.0
10580.0	3289002024959999.5
10590.0	3299882754047999.5
10600.0	3407932047359999.5
10610.0	3345525260287999.5
10620.0	3224766849023999.5
10630.0	3452560818175999.0
10640.0	3694545027071999.5
10650.0	3549430259711999.5
10660.0	3486613987327999.0
10670.0	3360428244991999.5
10680.0	3614365827071999.5
10690.0	3802776780799999.5
10700.0	3724673867775999.0
10710.0	3758590926847999.0
10720.0	3893979512831999.5
10730.0	3811672940543999.5
10740.0	3830428385279999.5
10750.0	3958842023935999.0
10760.0	3986534883327999.0
10770.0	4171313922047999.0
10780.0	4366696996863999.5
10790.0	4236000649215999.0
10800.0	4242519916543999.5
10810.0	4176520437759999.0
10820.0	4173641859071999.5
10830.0	4339414859775999.0
10840.0	4597315674111999.0
10850.0	4421005770751999.5
10860.0	4359401586687999.0
10870.0	4414255177727999.0
10880.0	4656296910847999.0
10890.0	4177964974079999.0
10900.0	4481186316287999.0
10910.0	4451896033279999.0
10920.0	4597590835199999.0
10930.0	4656106405887999.0
10940.0	4537701244927999.0
10950.0	4606943600639999.0
10960.0	4417298677759999.0
10970.0	4611816087551999.0
10980.0	4462750220287999.0
10990.0	4533033476095999.0
11000.0	4481319428095999.0
11010.0	4601386344447999.0
11020.0	4506251493375999.0
11030.0	4325419876351999.5
11040.0	4355461963775999.0
11050.0	4448600793087999.0
11060.0	4411325530111999.5
11070.0	4342873006079999.0
11080.0	4451612647423999.5
11090.0	4494899396607999.0
11100.0	4404716797951999.5
11110.0	4341849628671999.5
11120.0	4618908827647999.0
11130.0	4688151199743999.0
11140.0	4609639088127999.0
11150.0	4656947806207999.0
11160.0	4735099199487999.0
11170.0	4652187246591999.0
11180.0	5002604847103999.0
11190.0	4769328005119999.0
11200.0	4698082828287999.0
11210.0	4744517173247999.0
11220.0	4939012112383999.0
11230.0	4957921869823999.0
11240.0	5117691518975999.0
11250.0	5097899507711999.0
11260.0	5180781559807999.0
11270.0	5134331502591999.0
11280.0	5238521413631999.0
11290.0	5268174962687999.0
11300.0	5031197016063999.0
11310.0	5382408323071999.0
11320.0	5347567615999999.0
11330.0	5217242365951999.0
11340.0	5069789085695999.0
11350.0	4842056679423999.0
11360.0	5199669690367999.0
11370.0	5224675713023999.0
11380.0	4776209924095999.0
11390.0	5030207848447999.0
11400.0	5058920202239999.0
11410.0	4758696566783999.0
11420.0	5368638226431999.0
11430.0	5358759002111999.0
11440.0	5303490117631999.0
11450.0	5659986575359999.0
11460.0	5772172509183999.0
11470.0	5653408890879999.0
11480.0	5462955835391999.0
11490.0	6032953769983999.0
11500.0	6097272029183999.0
11510.0	5942646472703999.0
11520.0	6018105040895999.0
11530.0	5857977819135999.0
11540.0	5776796106751998.0
11550.0	6246831767551998.0
11560.0	6124017631231998.0
11570.0	6108960817151998.0
11580.0	6186806616063999.0
11590.0	6184413569023999.0
11600.0	5961120874495999.0
11610.0	5801000075263999.0
11620.0	6158934269951998.0
11630.0	6435811090431998.0
11640.0	5890800664575999.0
11650.0	6469391843327999.0
11660.0	6001183735807999.0
11670.0	6285517340671998.0
11680.0	5958355845119999.0
11690.0	5116177489919999.0
11700.0	5571328860159999.0
11710.0	6166389145599999.0
11720.0	6444660523007999.0
11730.0	6429337829375999.0
11740.0	6307689709567999.0
11750.0	6276476551167999.0
11760.0	5951821201407999.0
11770.0	5398838673407999.0
11780.0	5216321683455999.0
11790.0	6056201994239999.0
11800.0	6441770696703999.0
11810.0	6558151360511998.0
11820.0	6605298106367999.0
11830.0	6831787474943999.0
11840.0	6766486732799999.0
11850.0	6900430733311998.0
11860.0	6883351511039999.0
11870.0	7051365154815998.0
11880.0	6949739806719999.0
11890.0	6586752106495999.0
11900.0	7166664114175998.0
11910.0	7247734341631998.0
11920.0	7391862439935998.0
11930.0	7406087127039999.0
11940.0	6935658823679999.0
11950.0	6918953418751998.0
11960.0	6996031143935998.0
11970.0	6633076211711998.0
11980.0	6360363204607999.0
11990.0	6688365182975999.0
12000.0	6629470207999999.0
12010.0	6736691544063999.0
12020.0	6767740485631998.0
12030.0	6903677927423999.0
12040.0	7438625947647999.0
12050.0	7224817434623999.0
12060.0	8265029713919998.0
12070.0	7354386612223999.0
12080.0	8091131740159999.0
12090.0	7213015121919999.0
12100.0	7915645796351998.0
12110.0	7169128579071998.0
12120.0	7533168017407999.0
12130.0	7815745273855998.0
12140.0	8272598433791998.0
12150.0	8337332027391998.0
12160.0	8204223922175998.0
12170.0	8336166797311998.0
12180.0	8434376278015998.0
12190.0	8423539720191998.0
12200.0	8107105189887999.0
12210.0	8027921547263999.0
12220.0	8041476259839999.0
12230.0	8015061598207999.0
12240.0	8438126657535998.0
12250.0	9064151613439998.0
12260.0	8839316078591998.0
12270.0	8850355093503999.0
12280.0	9226383278079998.0
12290.0	8962121416703999.0
12300.0	8941080854527999.0
12310.0	9171137413119998.0
12320.0	8689913266175998.0
12330.0	8847045410815998.0
12340.0	8987018477567999.0
12350.0	8720277225471998.0
12360.0	8805655625727999.0
12370.0	9147422048255998.0
12380.0	9012321812479998.0
12390.0	8780053446655998.0
12400.0	8997206360063999.0
12410.0	8139742101503999.0
12420.0	8217601409023999.0
12430.0	7794705793023999.0
12440.0	7412735803391998.0
12450.0	9084896002047998.0
12460.0	9057079361535998.0
12470.0	9136237756415998.0
12480.0	9011667009535998.0
12490.0	9262400536575998.0
12500.0	8651569676287999.0
12510.0	9086801444863998.0
12520.0	7783181910015998.0
12530.0	7711107268607999.0
12540.0	9332235943935998.0
12550.0	9326701510655998.0
12560.0	9308257976319998.0
12570.0	1.0252845023231998e+16
12580.0	9545178759167998.0
12590.0	9768219066367998.0
12600.0	1.0019541909503998e+16
12610.0	1.0445318782975998e+16
12620.0	9658164772863998.0
12630.0	1.0112641892351998e+16
12640.0	9589485486079998.0
12650.0	1.0001844518911998e+16
12660.0	1.0185775497215998e+16
12670.0	1.0687865012223998e+16
12680.0	1.0439595524095998e+16
12690.0	1.0953906225151998e+16
12700.0	1.0444278480895998e+16
12710.0	1.0892038455295998e+16
12720.0	1.1231200346111998e+16
12730.0	1.1345401348095998e+16
12740.0	1.0714131660799998e+16
12750.0	1.0308705976319998e+16
12760.0	1.1220287520767998e+16
12770.0	1.1002575699967998e+16
12780.0	1.1051090362367998e+16
12790.0	1.1581964550143996e+16
12800.0	1.1153155407871998e+16
12810.0	1.1192551129087998e+16
12820.0	1.1388646195199998e+16
12830.0	1.1128257593343996e+16
12840.0	1.1447727046655998e+16
12850.0	1.1467786518527998e+16
12860.0	1.0561148846079998e+16
12870.0	1.1168323436543996e+16
12880.0	1.1146374053887998e+16
12890.0	1.1313706385407998e+16
12900.0	1.1729004281855998e+16
12910.0	1.1595979063295998e+16
12920.0	1.1295818498047998e+16
12930.0	1.0657812496383998e+16
12940.0	1.2126241079295998e+16
12950.0	1.1558952845311998e+16
12960.0	1.2880770072575998e+16
12970.0	1.2432715644927998e+16
12980.0	1.2582670991359998e+16
12990.0	1.2152990334975998e+16
13000.0	1.2668435595263996e+16
13010.0	1.2128795918335998e+16
13020.0	1.2493695975423996e+16
13030.0	1.2333604831231998e+16
13040.0	1.2700637495295998e+16
13050.0	1.2178381881343996e+16
13060.0	1.3220097015807998e+16
13070.0	1.1845636587519998e+16
13080.0	1.3082815971327998e+16
13090.0	1.2311678173183996e+16
13100.0	1.2597286895615998e+16
13110.0	1.3081053691903996e+16
13120.0	1.3150725079039998e+16
13130.0	1.2640616415231998e+16
13140.0	1.2757923266559998e+16
13150.0	1.3083496513535998e+16
13160.0	1.2899859300351998e+16
13170.0	1.2920211341311998e+16
13180.0	1.2482992865279998e+16
13190.0	1.3249102970879998e+16
13200.0	1.2221343596543996e+16
13210.0	1.2732027699199998e+16
13220.0	1.2490688757759998e+16
13230.0	1.2733096230911998e+16
13240.0	1.2155109408767998e+16
13250.0	1.1566488911871998e+16
13260.0	1.2512173654015998e+16
13270.0	1.1437905084415998e+16
13280.0	1.1830349398015998e+16
13290.0	1.1806509367295998e+16
13300.0	1.1307837227007998e+16
13310.0	1.0595839803391998e+16
13320.0	9243332788223998.0
13330.0	9697850736639998.0
13340.0	9897023438847998.0
13350.0	8128200916991998.0
13360.0	8506828537855998.0
13370.0	8171679825919999.0
13380.0	8266803970047999.0
13390.0	8520011644927999.0
13400.0	8719560327167999.0
13410.0	9067536187391998.0
13420.0	8258810347519998.0
13430.0	8206796652543999.0
13440.0	8796952199167999.0
13450.0	8390090080255998.0
13460.0	8874722164735998.0
13470.0	8440036229119998.0
13480.0	7993574555647999.0
13490.0	8812456574975998.0
13500.0	8713676111871998.0
13510.0	8554208018431998.0
13520.0	8356894965759998.0
13530.0	8862493147135998.0
13540.0	8080320970751998.0
13550.0	8224168558591998.0
13560.0	8630065774591998.0
13570.0	8668267184127999.0
13580.0	8649242558463999.0
13590.0	8739671556095998.0
13600.0	8840867119103999.0
13610.0	8853134770175998.0
13620.0	8248842452991998.0
13630.0	9238970466303998.0
13640.0	9290192289791998.0
13650.0	8897128235007999.0
13660.0	9467144175615998.0
13670.0	9196715671551998.0
13680.0	9162126835711998.0
13690.0	8928594624511998.0
13700.0	9188893982719998.0
13710.0	9021701898239998.0
13720.0	9299851968511998.0
13730.0	9300792967167998.0
13740.0	9280448036863998.0
13750.0	9440129728511998.0
13760.0	9584617750527998.0
13770.0	9431657349119998.0
13780.0	9829599444991998.0
13790.0	9627588870143998.0
13800.0	1.0138645118975998e+16
13810.0	9468926296063998.0
13820.0	1.0029442023423998e+16
13830.0	8976811180031998.0
13840.0	1.0050009202687998e+16
13850.0	9582295924735998.0
13860.0	9499778826239998.0
13870.0	1.0138316275711998e+16
13880.0	9394967429119998.0
13890.0	1.0138076856319998e+16
13900.0	9717300969471998.0
13910.0	9369574883327998.0
13920.0	9518766751743998.0
13930.0	9714176851967998.0
13940.0	9559522820095998.0
13950.0	9471731777535998.0
13960.0	9523005898751998.0
13970.0	9658230783999998.0
13980.0	9381799772159998.0
13990.0	9804807749631998.0
14000.0	9456957816831998.0
14010.0	9312461357055998.0
14020.0	1.0068007157759998e+16
14030.0	9905606705151998.0
14040.0	9517955006463998.0
14050.0	9582276329471998.0
14060.0	1.0736274145279998e+16
14070.0	9546583474175998.0
14080.0	9674026336255998.0
14090.0	9609678913535998.0
14100.0	9775302524927998.0
14110.0	9790010884095998.0
14120.0	9306559283199998.0
14130.0	1.0097629724671998e+16
14140.0	9601963261951998.0
14150.0	9752636260351998.0
14160.0	1.0202712735743998e+16
14170.0	9679040069631998.0
14180.0	9418307944447998.0
14190.0	9570788622335998.0
14200.0	9928330969087998.0
14210.0	1.0044183134207998e+16
14220.0	9867263705087998.0
14230.0	9793517912063998.0
14240.0	9550110031871998.0
14250.0	9983886852095998.0
14260.0	9647777415167998.0
14270.0	1.0111026069503998e+16
14280.0	9885042229247998.0
14290.0	9335935483903998.0
14300.0	1.0602216685567998e+16
14310.0	1.0510638563327998e+16
14320.0	9905406656511998.0
14330.0	1.0217530851327998e+16
14340.0	9376312950783998.0
14350.0	1.0494805098495998e+16
14360.0	1.0511384035327998e+16
14370.0	1.0251676286975998e+16
14380.0	1.0439147339775998e+16
