# Flux units: erg / (cm m2 s)
# Wavelength units: Angstrom
wave	flux
7000.0	241060.69087982172
7010.0	245139.75238800046
7020.0	249291.14532470697
7030.0	253517.77553558344
7040.0	257776.79157257074
7050.0	262049.89814758295
7060.0	266399.76882934564
7070.0	270820.88279724115
7080.0	275335.39199829096
7090.0	279859.00974273676
7100.0	284456.6583633422
7110.0	289133.7404251098
7120.0	293866.61815643305
7130.0	298619.4524765014
7140.0	303451.02787017816
7150.0	308343.10626983637
7160.0	313287.1580123901
7170.0	318268.05496215814
7180.0	323360.01396179193
7190.0	328500.2536773681
7200.0	333700.72555541986
7210.0	338940.77110290516
7220.0	344284.7900390624
7230.0	349679.59022521967
7240.0	355124.82070922846
7250.0	360675.33493041986
7260.0	366257.38334655756
7270.0	371922.3194122313
7280.0	377656.6143035888
7290.0	383458.4980010985
7300.0	389353.9428710937
7310.0	395275.2838134765
7320.0	401313.77410888666
7330.0	407393.00155639637
7340.0	413495.53680419916
7350.0	419675.57144165033
7360.0	425984.9548339843
7370.0	432372.67494201654
7380.0	438788.3911132812
7390.0	445276.44348144525
7400.0	451877.981185913
7410.0	458519.50263977045
7420.0	465197.2713470458
7430.0	472074.40567016596
7440.0	478968.37615966785
7450.0	485883.34655761713
7460.0	492953.84407043445
7470.0	500094.0380096435
7480.0	507286.6306304931
7490.0	514615.96107482904
7500.0	522010.52856445307
7510.0	529430.58013916
7520.0	536970.3617095946
7530.0	544619.1196441649
7540.0	552321.5675354003
7550.0	560122.4403381346
7560.0	567964.557647705
7570.0	575929.4815063475
7580.0	583985.1055145263
7590.0	592032.4325561522
7600.0	600189.1574859618
7610.0	608483.751296997
7620.0	616865.243911743
7630.0	625184.4081878661
7640.0	633524.0306854247
7650.0	641689.7239685057
7660.0	648860.8016967772
7670.0	592316.4827823638
7680.0	667562.515258789
7690.0	676715.7630920409
7700.0	621740.9744262694
7710.0	695082.6339721679
7720.0	705278.781890869
7730.0	715167.0150756835
7740.0	724908.2794189452
7750.0	734595.115661621
7760.0	744408.1344604491
7770.0	754239.9406433104
7780.0	764320.9304809569
7790.0	774393.5775756835
7800.0	784388.7825012206
7810.0	795061.4051818846
7820.0	805472.5723266599
7830.0	815877.6969909667
7840.0	826424.0951538085
7850.0	837131.6909790038
7860.0	848017.1394348143
7870.0	858953.1517028807
7880.0	870084.0759277343
7890.0	881280.5099487304
7900.0	892511.2495422361
7910.0	903713.29498291
7920.0	915025.6004333495
7930.0	926744.6327209471
7940.0	938498.8441467284
7950.0	949870.5101013182
7960.0	962296.8940734861
7970.0	974169.4755554198
7980.0	986360.2027893064
7990.0	998554.8973083494
8000.0	1010934.7877502439
8010.0	1023359.3978881835
8020.0	1036019.2413330077
8030.0	1048793.0335998533
8040.0	1061670.4063415525
8050.0	1074453.5789489744
8060.0	1087599.2050170896
8070.0	1100872.96295166
8080.0	1114383.9874267576
8090.0	1127842.4873352048
8100.0	1141760.6277465818
8110.0	1155435.8062744138
8120.0	1169449.6421813963
8130.0	1183964.8094177244
8140.0	1198538.8526916502
8150.0	1212988.64364624
8160.0	1227948.188781738
8170.0	1242432.6667785642
8180.0	1258253.8871765134
8190.0	1271936.8667602537
8200.0	1283175.323486328
8210.0	1298621.1776733396
8220.0	1314655.5709838865
8230.0	1329282.531738281
8240.0	1345644.0582275388
8250.0	1360225.7156372068
8260.0	1375921.1807250974
8270.0	1391919.3420410154
8280.0	1407129.71496582
8290.0	1422299.9496459956
8300.0	1439360.8779907222
8310.0	1454854.3548583982
8320.0	1471498.809814453
8330.0	1488459.6099853513
8340.0	1504793.663024902
8350.0	1521001.6784667966
8360.0	1538013.214111328
8370.0	1554948.4710693357
8380.0	1572360.1455688472
8390.0	1588751.3885498045
8400.0	1606416.3894653316
8410.0	1626265.9835815427
8420.0	1642699.2263793943
8430.0	1660023.7197875972
8440.0	1675310.3256225584
8450.0	1692599.182128906
8460.0	1710472.389221191
8470.0	1728655.1742553709
8480.0	1747538.9785766597
8490.0	1766029.975891113
8500.0	1785322.4639892576
8510.0	1803926.5975952144
8520.0	1823413.5665893552
8530.0	1842057.6553344724
8540.0	1861323.6236572263
8550.0	1881672.424316406
8560.0	1901487.2589111326
8570.0	1921218.0557250974
8580.0	1941559.8678588863
8590.0	1960847.099304199
8600.0	1980819.198608398
8610.0	2001428.3599853513
8620.0	2022209.0454101558
8630.0	2042633.346557617
8640.0	2063421.2722778318
8650.0	2084100.9826660152
8660.0	2105976.867675781
8670.0	2127109.1308593745
8680.0	2147877.0217895503
8690.0	2169238.563537597
8700.0	2190628.479003906
8710.0	2210577.827453613
8720.0	2234166.122436523
8730.0	2257581.520080566
8740.0	2278668.8842773433
8750.0	2301953.163146972
8760.0	2326795.822143554
8770.0	2349225.8834838863
8780.0	2373091.8426513667
8790.0	2396415.290832519
8800.0	2404326.080322265
8810.0	2446215.354919433
8820.0	2470714.447021484
8830.0	2495676.5823364253
8840.0	2523934.5703124995
8850.0	2547792.182922363
8860.0	2569481.323242187
8870.0	2584322.0520019527
8880.0	2608371.1853027334
8890.0	2634611.0839843745
8900.0	2659222.518920898
8910.0	2687241.9891357417
8920.0	2708049.5910644527
8930.0	2738987.4114990225
8940.0	2762294.7082519527
8950.0	2784735.7940673823
8960.0	2812364.074707031
8970.0	2840208.953857421
8980.0	2869008.2550048823
8990.0	2893558.8073730464
9000.0	2925822.0062255855
9010.0	2956317.6269531245
9020.0	2981101.5014648433
9030.0	3003807.540893554
9040.0	3030552.200317382
9050.0	3069994.4000244136
9060.0	3094476.959228515
9070.0	3120340.8355712886
9080.0	3184759.4909667964
9090.0	3196412.109374999
9100.0	3214385.5438232417
9110.0	3250091.1254882803
9120.0	3302006.3476562495
9130.0	3324252.792358398
9140.0	3344682.3272705073
9150.0	3393088.302612304
9160.0	3438244.4610595694
9170.0	3465867.4774169917
9180.0	3485434.3109130855
9190.0	3551293.838500976
9200.0	3554434.0972900386
9210.0	3547304.870605468
9220.0	3556106.7504882803
9230.0	3575379.852294921
9240.0	3611710.1440429683
9250.0	3644391.5710449214
9260.0	3674652.17590332
9270.0	3706500.411987304
9280.0	3727304.4891357413
9290.0	3758156.9366455073
9300.0	3795802.169799804
9310.0	3824445.068359374
9320.0	3860947.616577148
9330.0	3889598.3123779288
9340.0	3921354.2938232413
9350.0	3949179.946899413
9360.0	3990187.881469726
9370.0	4018752.7313232413
9380.0	4066185.4400634756
9390.0	4095154.1137695303
9400.0	4135143.5241699214
9410.0	4167166.9006347647
9420.0	4218785.446166991
9430.0	4246780.197143554
9440.0	4274160.94970703
9450.0	4307044.7845458975
9460.0	4356215.270996093
9470.0	4371746.536254882
9480.0	4425232.2845458975
9490.0	4491455.886840819
9500.0	4488484.35974121
9510.0	4531705.566406249
9520.0	4584002.441406249
9530.0	4616990.737915038
9540.0	4685669.90661621
9550.0	4698970.03173828
9560.0	4729703.842163085
9570.0	4782187.911987304
9580.0	4877019.561767577
9590.0	4899010.3607177725
9600.0	4903006.530761718
9610.0	4984797.485351562
9620.0	4970848.0072021475
9630.0	5087120.376586913
9640.0	5064958.999633788
9650.0	5152506.134033202
9660.0	5222133.422851562
9670.0	5261890.106201171
9680.0	5320544.219970702
9690.0	5375955.749511718
9700.0	5428190.765380858
9710.0	5422709.259033202
9720.0	5498317.443847655
9730.0	5443183.990478515
9740.0	5470019.775390624
9750.0	5514405.975341796
9760.0	5573044.128417968
9770.0	5610795.288085937
9780.0	5665418.60961914
9790.0	5753699.188232421
9800.0	5786565.58227539
9810.0	5786243.31665039
9820.0	5772581.939697265
9830.0	5846553.070068358
9840.0	5913895.782470702
9850.0	5962410.583496093
9860.0	6011246.795654296
9870.0	6095898.925781249
9880.0	6070430.297851562
9890.0	6241440.856933592
9900.0	6051524.780273436
9910.0	6024093.56689453
9920.0	6085729.583740233
9930.0	6153478.088378905
9940.0	6206932.28149414
9950.0	6275167.510986326
9960.0	6318465.118408202
9970.0	6403333.923339843
9980.0	6413355.163574218
9990.0	6409334.77783203
10000.0	6487253.2806396475
10010.0	6544732.666015624
10020.0	6599682.739257811
10030.0	6681493.194580076
10040.0	6670100.494384765
10050.0	6766799.148559568
10060.0	6747248.779296874
10070.0	6820788.391113279
10080.0	6929325.698852537
10090.0	6948356.658935546
10100.0	7069519.897460937
10110.0	7038928.222656249
10120.0	7121634.460449218
10130.0	7209956.497192381
10140.0	7155828.536987303
10150.0	7292949.768066405
10160.0	7272593.399047851
10170.0	7309722.564697264
10180.0	7470920.776367186
10190.0	7445164.337158202
10200.0	7471525.894165038
10210.0	7619706.35986328
10220.0	7558146.194458006
10230.0	7702767.9138183575
10240.0	7811951.14135742
10250.0	7791158.508300779
10260.0	7727050.155639647
10270.0	7795869.2474365225
10280.0	7838293.777465819
10290.0	7950574.7985839825
10300.0	7963442.321777343
10310.0	8112419.418334959
10320.0	8087054.199218748
10330.0	8183270.095825193
10340.0	8220952.301025389
10350.0	8325445.343017577
10360.0	8428681.152343748
10370.0	8497527.374267576
10380.0	8499987.228393553
10390.0	8532363.998413084
10400.0	8617718.841552733
10410.0	8847147.827148436
10420.0	8709094.070434568
10430.0	8664601.104736326
10440.0	8965506.088256834
10450.0	9122713.088989256
10460.0	9353760.23864746
10470.0	8897050.613403318
10480.0	9051869.049072264
10490.0	9302443.572998045
10500.0	9296145.889282225
10510.0	9266049.026489256
10520.0	9197912.307739256
10530.0	9692338.745117186
10540.0	9669687.606811522
10550.0	9708808.761596678
10560.0	9574065.07873535
10570.0	9526040.49682617
10580.0	9987283.630371092
10590.0	9976775.772094725
10600.0	10144006.515502928
10610.0	9936628.204345701
10620.0	9969171.768188475
10630.0	10211440.124511717
10640.0	10759027.664184568
10650.0	10544107.208251951
10660.0	10476597.930908201
10670.0	10260501.251220701
10680.0	10602593.444824217
10690.0	10995169.189453123
10700.0	10804881.65283203
10710.0	11030949.67651367
10720.0	11376864.868164059
10730.0	11016674.92675781
10740.0	11524366.66870117
10750.0	11684715.45410156
10760.0	11908251.342773436
10770.0	12059841.217041014
10780.0	12385109.619140623
10790.0	12097278.900146483
10800.0	12266518.035888668
10810.0	12038995.391845701
10820.0	12291607.330322264
10830.0	12890417.694091795
10840.0	13310425.781249998
10850.0	13037766.57104492
10860.0	12985387.359619137
10870.0	12838948.425292967
10880.0	13214177.124023436
10890.0	12483775.756835936
10900.0	12883440.88745117
10910.0	13010588.68408203
10920.0	13236013.549804686
10930.0	13067962.799072264
10940.0	13090885.528564451
10950.0	13303635.772705076
10960.0	12973707.580566404
10970.0	13401778.045654293
10980.0	13306091.674804686
10990.0	13234183.288574215
11000.0	13242807.159423826
11010.0	13420668.823242186
11020.0	13821966.644287106
11030.0	13117837.677001951
11040.0	13193801.57470703
11050.0	13288075.988769528
11060.0	13244127.807617186
11070.0	13239453.521728512
11080.0	13433793.151855465
11090.0	13634778.747558592
11100.0	13438417.633056637
11110.0	13519412.658691403
11120.0	13822765.624999996
11130.0	13907399.444580076
11140.0	13831385.22338867
11150.0	13942567.474365233
11160.0	14288914.093017576
11170.0	13974869.537353514
11180.0	14750530.792236324
11190.0	14477014.221191404
11200.0	14263377.227783201
11210.0	14519016.38793945
11220.0	14837295.71533203
11230.0	14813560.241699217
11240.0	15160451.721191404
11250.0	15318641.204833983
11260.0	15261400.756835936
11270.0	15443191.223144528
11280.0	15536043.701171871
11290.0	15690076.507568358
11300.0	15438904.327392576
11310.0	15808702.423095701
11320.0	15706624.511718748
11330.0	15738432.647705076
11340.0	15512847.77832031
11350.0	14899249.969482418
11360.0	15990678.131103514
11370.0	15965987.152099608
11380.0	15607573.638916012
11390.0	16048641.998291014
11400.0	16416511.871337889
11410.0	16075871.490478514
11420.0	16503360.870361324
11430.0	16670663.696289059
11440.0	15990233.03222656
11450.0	16820347.198486324
11460.0	17054352.32543945
11470.0	16934695.09887695
11480.0	16960044.586181637
11490.0	17688459.625244137
11500.0	17655480.22460937
11510.0	17542529.38842773
11520.0	17701701.78222656
11530.0	17620236.877441403
11540.0	17444621.03271484
11550.0	18330064.05639648
11560.0	18382737.304687496
11570.0	18009158.996582028
11580.0	18401958.374023434
11590.0	18896018.18847656
11600.0	18177824.95117187
11610.0	18431053.49731445
11620.0	18731421.905517574
11630.0	18946937.43896484
11640.0	18298073.913574215
11650.0	19605027.679443356
11660.0	18692329.3762207
11670.0	19167088.195800778
11680.0	19344914.03198242
11690.0	17966844.97070312
11700.0	19044201.965332028
11710.0	19510141.326904293
11720.0	20004831.542968746
11730.0	19782999.999999996
11740.0	19497653.503417965
11750.0	19976547.027587887
11760.0	19413358.551025387
11770.0	19085934.631347653
11780.0	18591926.788330074
11790.0	20081166.839599606
11800.0	20303589.44702148
11810.0	20333382.90405273
11820.0	20296135.131835934
11830.0	21162880.706787106
11840.0	20881893.890380856
11850.0	21332029.846191403
11860.0	21006508.850097653
11870.0	21819535.76660156
11880.0	21535534.08813476
11890.0	21249309.05151367
11900.0	21725171.02050781
11910.0	21750227.78320312
11920.0	21987231.140136715
11930.0	22589214.660644524
11940.0	21533979.309082028
11950.0	21464733.093261715
11960.0	21784017.089843746
11970.0	21418778.198242184
11980.0	21080796.264648434
11990.0	21682233.64257812
12000.0	21286045.98999023
12010.0	21678378.021240227
12020.0	21723861.328124996
12030.0	21948060.852050778
12040.0	23031835.57128906
12050.0	22804949.15771484
12060.0	24830632.995605465
12070.0	22905730.468749993
12080.0	24075762.268066403
12090.0	23205362.670898434
12100.0	24321382.26318359
12110.0	22977847.778320305
12120.0	23533726.623535153
12130.0	23815060.729980465
12140.0	25229112.487792965
12150.0	25177795.104980465
12160.0	25191289.733886715
12170.0	25175321.41113281
12180.0	25836098.266601555
12190.0	26002271.606445305
12200.0	25166713.50097656
12210.0	25373273.68164062
12220.0	25437370.910644528
12230.0	25529378.784179684
12240.0	26135988.34228515
12250.0	27363316.28417968
12260.0	27243506.225585934
12270.0	27126538.20800781
12280.0	28058036.621093746
12290.0	28002745.30029296
12300.0	27512884.643554684
12310.0	28371471.862792965
12320.0	27166375.67138671
12330.0	27698544.189453118
12340.0	28738112.182617184
12350.0	27549248.77929687
12360.0	28438542.23632812
12370.0	28739863.647460934
12380.0	28755118.40820312
12390.0	27890302.062988274
12400.0	28501045.227050778
12410.0	26495703.73535156
12420.0	26179757.995605465
12430.0	27076759.582519524
12440.0	26349588.806152336
12450.0	29097269.592285153
12460.0	28693117.980957028
12470.0	29605929.93164062
12480.0	28456326.59912109
12490.0	29955206.481933586
12500.0	29003676.818847653
12510.0	29775216.43066406
12520.0	28438161.37695312
12530.0	28733163.20800781
12540.0	30908153.44238281
12550.0	29450513.54980468
12560.0	30362774.902343743
12570.0	31989873.718261715
12580.0	30354545.104980465
12590.0	31103734.191894528
12600.0	31226167.968749996
12610.0	33124688.23242187
12620.0	30670227.416992184
12630.0	31690346.37451171
12640.0	31207575.80566406
12650.0	31683483.64257812
12660.0	32581312.744140618
12670.0	33615757.75146484
12680.0	33239371.032714836
12690.0	34275828.36914062
12700.0	33396213.195800778
12710.0	33534421.630859368
12720.0	34853395.56884765
12730.0	34991086.66992187
12740.0	33507328.85742187
12750.0	33337461.914062496
12760.0	34797050.53710937
12770.0	34811449.21874999
12780.0	34419428.10058593
12790.0	35669285.64453124
12800.0	35131551.63574218
12810.0	35013490.66162109
12820.0	36356473.32763671
12830.0	34890115.90576171
12840.0	35690775.57373046
12850.0	36552359.86328124
12860.0	33959489.99023437
12870.0	36600040.77148437
12880.0	36048521.301269524
12890.0	36168692.87109374
12900.0	37634290.03906249
12910.0	36485666.74804687
12920.0	36124495.422363274
12930.0	36899041.5649414
12940.0	39308242.91992187
12950.0	36349946.899414055
12960.0	38700573.24218749
12970.0	39182281.98242187
12980.0	39989246.94824218
12990.0	38771047.485351555
13000.0	39573661.01074218
13010.0	38724526.73339843
13020.0	39968783.69140624
13030.0	39627748.22998046
13040.0	41429358.032226555
13050.0	40576138.54980468
13060.0	41372010.62011718
13070.0	39200068.05419921
13080.0	40240280.21240234
13090.0	39606539.00146484
13100.0	40294736.450195305
13110.0	41344459.594726555
13120.0	42252699.70703124
13130.0	40622573.73046874
13140.0	40850612.915039055
13150.0	41383995.11718749
13160.0	41233741.57714843
13170.0	41791838.684082024
13180.0	40285730.40771484
13190.0	42000401.61132812
13200.0	41006678.40576171
13210.0	40783861.38916015
13220.0	41278070.31249999
13230.0	41475320.495605454
13240.0	41038042.66357421
13250.0	38434603.45458984
13260.0	41003017.27294921
13270.0	39002042.602539055
13280.0	39062361.32812499
13290.0	40003099.06005859
13300.0	38525089.72167968
13310.0	36458730.71289062
13320.0	34641391.54052734
13330.0	33736249.02343749
13340.0	35336633.48388671
13350.0	31058276.428222653
13360.0	32885954.406738278
13370.0	32100923.095703118
13380.0	32144090.698242184
13390.0	32748968.994140618
13400.0	33656759.21630859
13410.0	34232271.48437499
13420.0	31792297.424316403
13430.0	31552849.426269524
13440.0	33445648.376464836
13450.0	32195909.545898434
13460.0	33234649.658203118
13470.0	32473637.87841796
13480.0	31542326.35498046
13490.0	33828769.04296874
13500.0	33276915.22216796
13510.0	32927634.82666015
13520.0	32581730.65185546
13530.0	33632220.70312499
13540.0	31557075.988769524
13550.0	32081262.512207024
13560.0	33691166.137695305
13570.0	33565356.9946289
13580.0	33229098.022460934
13590.0	33239665.28320312
13600.0	33690603.820800774
13610.0	33951703.00292968
13620.0	32278821.96044921
13630.0	35102112.48779296
13640.0	34453722.65624999
13650.0	34189619.01855468
13660.0	35026779.96826171
13670.0	34320981.9946289
13680.0	34352031.00585937
13690.0	34370365.11230468
13700.0	34382267.82226562
13710.0	33768871.704101555
13720.0	34646089.172363274
13730.0	34966654.29687499
13740.0	34289875.18310546
13750.0	34742328.00292968
13760.0	35219072.93701171
13770.0	34672095.88623046
13780.0	36713674.25537109
13790.0	35486665.89355468
13800.0	36811935.54687499
13810.0	36177699.27978515
13820.0	37232338.989257805
13830.0	35008819.03076171
13840.0	37043730.71289062
13850.0	36292485.29052734
13860.0	36536983.9477539
13870.0	36687119.62890624
13880.0	36115744.81201171
13890.0	37567272.64404296
13900.0	36943033.7524414
13910.0	36275545.77636718
13920.0	36529046.997070305
13930.0	37281489.13574218
13940.0	36594263.488769524
13950.0	36553756.59179687
13960.0	37338787.04833984
13970.0	37418406.43310546
13980.0	36807528.25927734
13990.0	37894345.15380859
14000.0	36663872.92480468
14010.0	36723688.17138671
14020.0	38633874.99999999
14030.0	37751070.80078124
14040.0	36973636.23046874
14050.0	37305821.04492187
14060.0	39581563.72070312
14070.0	37279240.051269524
14080.0	37924684.50927734
14090.0	37742766.66259765
14100.0	37506239.13574218
14110.0	38202984.06982421
14120.0	37261778.68652343
14130.0	39216562.805175774
14140.0	38206308.04443359
14150.0	37892980.22460937
14160.0	39162480.83496093
14170.0	38021144.653320305
14180.0	37514750.18310546
14190.0	38282601.92871093
14200.0	38379338.31787109
14210.0	38823263.67187499
14220.0	38860981.62841796
14230.0	38578286.07177734
14240.0	38837417.114257805
14250.0	39122317.62695312
14260.0	38336672.85156249
14270.0	39598964.477539055
14280.0	38869655.883789055
14290.0	37782580.81054687
14300.0	41193533.38623046
14310.0	41063988.891601555
14320.0	39327441.46728515
14330.0	39418084.83886718
14340.0	38252429.992675774
14350.0	40999720.45898437
14360.0	40898989.68505859
14370.0	40685791.625976555
14380.0	40934132.446289055
14390.0	41084617.980957024
14400.0	40087874.69482421
14410.0	40101677.61230468
14420.0	40419623.96240234
14430.0	42390631.16455077
14440.0	41745518.43261718
14450.0	40351056.39648437
14460.0	41633358.64257812
14470.0	40927856.567382805
14480.0	42356501.70898437
14490.0	43502917.114257805
14500.0	42374850.83007811
14510.0	41120666.01562499
14520.0	44671187.499999985
14530.0	43410463.25683593
14540.0	41705666.50390624
14550.0	44417108.032226555
14560.0	42605607.78808593
14570.0	42137358.76464842
14580.0	43732418.090820305
14590.0	44733023.86474609
14600.0	44834199.523925774
14610.0	44373802.368164055
14620.0	43306544.067382805
14630.0	42886456.054687485
14640.0	44860393.188476555
14650.0	44716086.547851555
