# Flux units: erg / (cm m2 s)
# Wavelength units: Angstrom
wave	flux
7000.0	17747766591999.996
7010.0	18058695167999.996
7020.0	18373887039999.996
7030.0	18693461759999.996
7040.0	19017502655999.996
7050.0	19344654399999.996
7060.0	19679043263999.996
7070.0	20016660863999.996
7080.0	20358863423999.996
7090.0	20705709055999.996
7100.0	21057222655999.996
7110.0	21413515903999.996
7120.0	21774599551999.992
7130.0	22140478591999.992
7140.0	22511004031999.992
7150.0	22885446143999.996
7160.0	23264309631999.992
7170.0	23648341631999.992
7180.0	24037783423999.996
7190.0	24432103935999.996
7200.0	24831440255999.996
7210.0	25235909247999.996
7220.0	25645545599999.996
7230.0	26060539647999.996
7240.0	26480772991999.992
7250.0	26906358015999.996
7260.0	27337312383999.996
7270.0	27773742591999.992
7280.0	28215535231999.992
7290.0	28663121023999.996
7300.0	29116087167999.996
7310.0	29574702975999.992
7320.0	30039096191999.992
7330.0	30509221119999.996
7340.0	30984238591999.992
7350.0	31466086783999.996
7360.0	31953811583999.996
7370.0	32447401983999.996
7380.0	32945581055999.992
7390.0	33451377535999.992
7400.0	33963309951999.992
7410.0	34481154303999.996
7420.0	35005067007999.996
7430.0	35535976575999.99
7440.0	36072650111999.99
7450.0	36615878527999.99
7460.0	37165449599999.99
7470.0	37721401855999.99
7480.0	38283825279999.99
7490.0	38852974975999.99
7500.0	39428594559999.99
7510.0	40010993151999.99
7520.0	40599961727999.99
7530.0	41195642367999.99
7540.0	41798171007999.99
7550.0	42407580543999.99
7560.0	43022769535999.99
7570.0	43645926143999.984
7580.0	44277211391999.99
7590.0	44914178047999.99
7600.0	45558103551999.99
7610.0	46209212671999.99
7620.0	46866526463999.984
7630.0	47528049151999.99
7640.0	48189900799999.99
7650.0	48835138047999.99
7660.0	49293741567999.99
7670.0	45141363263999.984
7680.0	50864522495999.99
7690.0	51593508863999.984
7700.0	47646822399999.99
7710.0	53036779263999.984
7720.0	53854579711999.99
7730.0	54623232767999.99
7740.0	55387671807999.99
7750.0	56155575295999.99
7760.0	56929671679999.99
7770.0	57711347455999.99
7780.0	58500993279999.99
7790.0	59298539775999.99
7800.0	60091849215999.99
7810.0	60918551551999.984
7820.0	61742207743999.984
7830.0	62573464831999.984
7840.0	63413168639999.99
7850.0	64261962495999.99
7860.0	65119343615999.99
7870.0	65985307135999.99
7880.0	66860190207999.99
7890.0	67743963391999.984
7900.0	68636066047999.99
7910.0	69537084927999.99
7920.0	70447153151999.98
7930.0	71366358783999.98
7940.0	72294637823999.98
7950.0	73210877183999.98
7960.0	74179283455999.98
7970.0	75135005951999.98
7980.0	76101621503999.98
7990.0	77077037055999.98
8000.0	78061489663999.98
8010.0	79056690175999.98
8020.0	80060970495999.98
8030.0	81074957055999.98
8040.0	82098664447999.98
8050.0	83132471039999.98
8060.0	84176068351999.98
8070.0	85229049855999.98
8080.0	86293427199999.98
8090.0	87366841855999.98
8100.0	88450515455999.98
8110.0	89544451583999.98
8120.0	90649143295999.98
8130.0	91763624447999.97
8140.0	92889824767999.97
8150.0	94025289215999.98
8160.0	95172161023999.98
8170.0	96328923647999.97
8180.0	97497233919999.98
8190.0	98677145599999.98
8200.0	99851750399999.98
8210.0	101068573183999.98
8220.0	102278908927999.97
8230.0	103502539263999.98
8240.0	104737841663999.98
8250.0	105983715327999.97
8260.0	107240333823999.98
8270.0	108506445823999.97
8280.0	109786897919999.98
8290.0	111076964351999.98
8300.0	112378720767999.97
8310.0	113691101695999.98
8320.0	115016552959999.98
8330.0	116348955647999.97
8340.0	117694142463999.97
8350.0	119047120383999.97
8360.0	120411463679999.98
8370.0	121786881023999.97
8380.0	123175494655999.98
8390.0	124573800959999.98
8400.0	125981631487999.97
8410.0	127406000127999.97
8420.0	128841409535999.98
8430.0	130287393279999.97
8440.0	131744578559999.97
8450.0	133216437247999.97
8460.0	134698850303999.97
8470.0	136194070527999.97
8480.0	137703582207999.97
8490.0	139223056383999.97
8500.0	140756251647999.97
8510.0	142301538303999.97
8520.0	143858733055999.97
8530.0	145428539903999.97
8540.0	147011143167999.97
8550.0	148607617023999.97
8560.0	150215876607999.97
8570.0	151834227199999.97
8580.0	153470249471999.97
8590.0	155117094399999.97
8600.0	156776001023999.97
8610.0	158447245823999.97
8620.0	160130902015999.97
8630.0	161830397439999.97
8640.0	163543012863999.97
8650.0	165266353663999.97
8660.0	167007121919999.97
8670.0	168758216703999.97
8680.0	170522021375999.97
8690.0	172298252287999.97
8700.0	174081861631999.97
8710.0	175887141887999.97
8720.0	177702948863999.97
8730.0	179536323583999.97
8740.0	181377088511999.97
8750.0	183239394303999.97
8760.0	185113654271999.97
8770.0	186997603327999.97
8780.0	188899592191999.97
8790.0	190809451519999.97
8800.0	192213642239999.97
8810.0	194675743743999.97
8820.0	196634099711999.97
8830.0	198602541055999.94
8840.0	200589071359999.97
8850.0	202578202623999.97
8860.0	204592962559999.97
8870.0	206606146559999.97
8880.0	208652092415999.94
8890.0	210702849023999.97
8900.0	212769178623999.97
8910.0	214854338559999.97
8920.0	216939761663999.97
8930.0	219055588351999.97
8940.0	221182420991999.97
8950.0	223309801471999.97
8960.0	225477194751999.97
8970.0	227633519615999.94
8980.0	229833117695999.94
8990.0	232020177919999.97
9000.0	234246477823999.97
9010.0	236477934591999.97
9020.0	238720796671999.97
9030.0	240968432639999.97
9040.0	243250984959999.97
9050.0	245542725631999.97
9060.0	247827924991999.97
9070.0	250153846783999.97
9080.0	252508810239999.97
9090.0	254842345471999.97
9100.0	257212862463999.97
9110.0	259600032767999.94
9120.0	262021617663999.97
9130.0	264414270463999.97
9140.0	266848405503999.97
9150.0	269311564799999.94
9160.0	271777471487999.94
9170.0	274256311295999.94
9180.0	276743525375999.94
9190.0	279282495487999.94
9200.0	281787042815999.94
9210.0	284301878271999.94
9220.0	286855998463999.94
9230.0	289177167871999.94
9240.0	292011914239999.94
9250.0	294614031359999.94
9260.0	297225043967999.94
9270.0	299843138559999.94
9280.0	302411912191999.94
9290.0	305063793663999.94
9300.0	307817248767999.94
9310.0	310471956479999.94
9320.0	313225461759999.94
9330.0	315925363711999.94
9340.0	318594124799999.94
9350.0	321312728063999.94
9360.0	324207784959999.94
9370.0	326955621375999.94
9380.0	329887187967999.94
9390.0	332678285311999.94
9400.0	335534253055999.94
9410.0	338384076799999.94
9420.0	341304003583999.94
9430.0	344202471423999.94
9440.0	347076009983999.94
9450.0	350000005119999.94
9460.0	352953225215999.94
9470.0	355837673471999.9
9480.0	358791317503999.94
9490.0	361947619327999.94
9500.0	364725993471999.9
9510.0	367888996351999.9
9520.0	370954924031999.9
9530.0	373987256319999.94
9540.0	377154973695999.94
9550.0	380182751231999.9
9560.0	383176519679999.94
9570.0	386346274815999.94
9580.0	389650300927999.94
9590.0	392771084287999.94
9600.0	395829000191999.9
9610.0	399083886591999.9
9620.0	402129795071999.9
9630.0	405577089023999.94
9640.0	408663085055999.94
9650.0	411992229887999.94
9660.0	415369687039999.94
9670.0	418632185855999.94
9680.0	421954603007999.94
9690.0	425264736255999.94
9700.0	428681361407999.94
9710.0	431914895359999.94
9720.0	435322574847999.94
9730.0	438686607359999.94
9740.0	442056194047999.94
9750.0	445547311103999.94
9760.0	448911656959999.94
9770.0	452444164095999.9
9780.0	455934146559999.94
9790.0	459344103423999.94
9800.0	462941726719999.94
9810.0	466446309375999.9
9820.0	469892122623999.94
9830.0	473476128767999.94
9840.0	477109696511999.9
9850.0	480742803455999.9
9860.0	484375932927999.94
9870.0	488008478719999.94
9880.0	491576825855999.9
9890.0	495397736447999.94
9900.0	498293501951999.9
9910.0	501640925183999.94
9920.0	505284194303999.94
9930.0	509176150015999.9
9940.0	513025947647999.94
9950.0	516894259199999.9
9960.0	520655398911999.9
9970.0	524456130559999.9
9980.0	528182032383999.94
9990.0	531917432831999.9
10000.0	535890828287999.94
10010.0	539813608447999.94
10020.0	543715773439999.9
10030.0	547811234815999.9
10040.0	551473137663999.94
10050.0	555476912127999.94
10060.0	559021809663999.94
10070.0	563254307839999.9
10080.0	567406682111999.9
10090.0	571399440383999.9
10100.0	575562905599999.9
10110.0	579413189631999.9
10120.0	583344881663999.9
10130.0	587526015999999.9
10140.0	591373243391999.9
10150.0	595646769151999.9
10160.0	599631818751999.9
10170.0	603731804159999.9
10180.0	608105792511999.9
10190.0	612147877887999.9
10200.0	616269844479999.9
10210.0	620765173759999.9
10220.0	624637744127999.9
10230.0	629092432895999.9
10240.0	633488361471999.9
10250.0	637750812671999.9
10260.0	641621495807999.9
10270.0	646122159103999.9
10280.0	650360612863999.9
10290.0	654827842559999.9
10300.0	659089938431999.9
10310.0	663815079935999.9
10320.0	667944909823999.9
10330.0	672650551295999.9
10340.0	676719217663999.9
10350.0	681450631167999.9
10360.0	686030750719999.9
10370.0	690790199295999.9
10380.0	694916890623999.9
10390.0	699224651775999.9
10400.0	704227028991999.9
10410.0	709111508991999.9
10420.0	712928761855999.9
10430.0	717161713663999.8
10440.0	722712008703999.8
10450.0	727979767807999.9
10460.0	733316589567999.9
10470.0	735705198591999.9
10480.0	740779540479999.9
10490.0	746395381759999.9
10500.0	750833696767999.9
10510.0	755334813695999.9
10520.0	759365623807999.9
10530.0	765368520703999.8
10540.0	770538989567999.9
10550.0	775326445567999.9
10560.0	779378323455999.9
10570.0	783571365887999.9
10580.0	789841221631999.9
10590.0	794611445759999.9
10600.0	800170348543999.8
10610.0	804777342975999.9
10620.0	808658548735999.9
10630.0	815092449279999.9
10640.0	821619494911999.9
10650.0	825038329855999.9
10660.0	829612863487999.9
10670.0	833900849151999.9
10680.0	840474189823999.8
10690.0	846785179647999.9
10700.0	851366817791999.9
10710.0	856056244223999.8
10720.0	862289987583999.8
10730.0	866680238079999.9
10740.0	871771267071999.8
10750.0	877951805439999.9
10760.0	882994634751999.8
10770.0	889563887615999.9
10780.0	896199989247999.9
10790.0	900649596927999.9
10800.0	905783941119999.9
10810.0	909811759103999.8
10820.0	915648319487999.9
10830.0	922007992319999.9
10840.0	929548439551999.8
10850.0	933063491583999.8
10860.0	937946046463999.8
10870.0	943481073663999.8
10880.0	950400956415999.9
10890.0	951480068095999.9
10900.0	959495434239999.9
10910.0	964322883583999.8
10920.0	971153635327999.9
10930.0	976754221055999.9
10940.0	981047717887999.9
10950.0	987149387775999.9
10960.0	990325940223999.8
10970.0	997790095359999.9
10980.0	1001822642175999.9
10990.0	1007571251199999.9
11000.0	1012430876671999.8
11010.0	1018781550591999.8
11020.0	1024198230015999.9
11030.0	1027665954815999.9
11040.0	1033257334783999.8
11050.0	1039490650111999.8
11060.0	1044127866879999.8
11070.0	1049757079551999.8
11080.0	1055980578815999.9
11090.0	1062006077439999.8
11100.0	1066711656447999.9
11110.0	1070305765375999.9
11120.0	1079406505983999.8
11130.0	1085408436223999.8
11140.0	1090253969407999.9
11150.0	1095777447935999.9
11160.0	1103751354367999.9
11170.0	1107255496703999.8
11180.0	1117740591103999.8
11190.0	1120478691327999.9
11200.0	1124700780543999.8
11210.0	1132276240383999.8
11220.0	1138792880127999.8
11230.0	1146184628223999.8
11240.0	1153168332799999.8
11250.0	1158966648831999.8
11260.0	1165689436159999.8
11270.0	1172164427775999.8
11280.0	1178751539199999.8
11290.0	1185299066879999.8
11300.0	1187576918015999.8
11310.0	1197391212543999.8
11320.0	1202680651775999.8
11330.0	1207423383551999.8
11340.0	1209448056831999.8
11350.0	1212394024959999.8
11360.0	1224631851007999.8
11370.0	1231405615103999.8
11380.0	1233173000191999.8
11390.0	1242268094463999.8
11400.0	1249118697471999.8
11410.0	1251252262911999.8
11420.0	1264090431487999.8
11430.0	1269597454335999.8
11440.0	1273633906687999.8
11450.0	1285498890239999.8
11460.0	1293466044415999.8
11470.0	1298204350463999.8
11480.0	1302056742911999.8
11490.0	1316134014975999.8
11500.0	1321876193279999.8
11510.0	1326653288447999.8
11520.0	1334247643135999.8
11530.0	1337637412863999.8
11540.0	1341809405951999.8
11550.0	1356430635007999.8
11560.0	1359934459903999.8
11570.0	1366334935039999.8
11580.0	1374062331903999.8
11590.0	1380212668415999.8
11600.0	1382654844927999.8
11610.0	1388588437503999.8
11620.0	1398405685247999.5
11630.0	1410246930431999.8
11640.0	1407981592575999.8
11650.0	1423587655679999.8
11660.0	1420626677759999.8
11670.0	1432852824063999.8
11680.0	1434276970495999.8
11690.0	1427799769087999.5
11700.0	1443148566527999.5
11710.0	1457913147391999.8
11720.0	1468123742207999.5
11730.0	1473094508543999.8
11740.0	1478587314175999.8
11750.0	1485693489151999.8
11760.0	1486560165887999.5
11770.0	1486360326143999.8
11780.0	1486022332415999.8
11790.0	1508886953983999.8
11800.0	1521013858303999.8
11810.0	1529660596223999.8
11820.0	1536845713407999.5
11830.0	1549336518655999.8
11840.0	1552869445631999.8
11850.0	1563154767871999.8
11860.0	1569239986175999.8
11870.0	1579336810495999.8
11880.0	1585189355519999.8
11890.0	1586835599359999.8
11900.0	1601842003967999.5
11910.0	1610021670911999.8
11920.0	1620103548927999.5
11930.0	1628052963327999.5
11940.0	1625615716351999.8
11950.0	1633017806847999.5
11960.0	1642128527359999.8
11970.0	1642003296255999.8
11980.0	1644843126783999.8
11990.0	1655533506559999.8
12000.0	1662480297983999.8
12010.0	1671510884351999.8
12020.0	1678466248703999.8
12030.0	1688038162431999.8
12040.0	1705777504255999.8
12050.0	1708317147135999.8
12060.0	1738421268479999.8
12070.0	1723693035519999.8
12080.0	1747321737215999.8
12090.0	1736910266367999.5
12100.0	1757756870655999.8
12110.0	1749917814783999.5
12120.0	1765682081791999.8
12130.0	1777825226751999.8
12140.0	1795273748479999.8
12150.0	1803887112191999.8
12160.0	1805673861119999.8
12170.0	1816949645311999.8
12180.0	1826467643391999.8
12190.0	1837148405759999.8
12200.0	1834793730047999.5
12210.0	1839985008639999.8
12220.0	1848334323711999.8
12230.0	1855517597695999.8
12240.0	1870887456767999.5
12250.0	1893883703295999.8
12260.0	1895828811775999.8
12270.0	1904137527295999.8
12280.0	1921560461311999.8
12290.0	1921455214591999.8
12300.0	1928220581887999.5
12310.0	1940907130879999.8
12320.0	1937562386431999.8
12330.0	1946762625023999.5
12340.0	1959512752127999.5
12350.0	1960616693759999.8
12360.0	1970808512511999.8
12370.0	1985336057855999.8
12380.0	1990822166527999.5
12390.0	1993435013119999.8
12400.0	2007881351167999.5
12410.0	1992545259519999.8
12420.0	2002817245183999.5
12430.0	1998030012415999.8
12440.0	1994494541823999.5
12450.0	2043180797951999.8
12460.0	2052050640895999.8
12470.0	2063802490879999.5
12480.0	2069360541695999.8
12490.0	2079571701759999.5
12500.0	2067788976127999.5
12510.0	2091833802751999.8
12520.0	2063767789567999.5
12530.0	2070040477695999.8
12540.0	2119649046527999.5
12550.0	2125989122047999.5
12560.0	2139811143679999.5
12570.0	2170965082111999.8
12580.0	2160326262783999.5
12590.0	2176642854911999.8
12600.0	2185682010111999.8
12610.0	2210039197695999.8
12620.0	2192598454271999.8
12630.0	2225912500223999.5
12640.0	2203011960831999.8
12650.0	2227526082559999.5
12660.0	2240653160447999.5
12670.0	2272524447743999.5
12680.0	2271369879551999.5
12690.0	2293856870399999.5
12700.0	2281758396415999.5
12710.0	2308644208639999.5
12720.0	2328443510783999.5
12730.0	2336996036607999.5
12740.0	2326121631743999.5
12750.0	2319622258687999.5
12760.0	2357017972735999.5
12770.0	2360666681343999.5
12780.0	2372399456255999.5
12790.0	2394368172031999.5
12800.0	2386435862527999.5
12810.0	2399111770111999.5
12820.0	2410189520895999.5
12830.0	2409501708287999.5
12840.0	2429764239359999.5
12850.0	2438200193023999.5
12860.0	2416909176831999.5
12870.0	2447756771327999.5
12880.0	2451376476159999.5
12890.0	2466400366591999.5
12900.0	2490888507391999.5
12910.0	2494541107199999.5
12920.0	2492124270591999.5
12930.0	2477235060735999.5
12940.0	2541233971199999.5
12950.0	2511569473535999.5
12960.0	2559944671231999.5
12970.0	2557027962879999.5
12980.0	2589695053823999.5
12990.0	2571813167103999.5
13000.0	2605489278975999.5
13010.0	2587246366719999.5
13020.0	2603913445375999.5
13030.0	2622394855423999.5
13040.0	2635814699007999.5
13050.0	2630351310847999.5
13060.0	2684586602495999.5
13070.0	2612155502591999.5
13080.0	2689568759807999.5
13090.0	2664419049471999.5
13100.0	2669658623999999.5
13110.0	2713014157311999.5
13120.0	2728481685503999.5
13130.0	2716064505855999.5
13140.0	2727934640127999.5
13150.0	2740534222847999.5
13160.0	2742969901055999.5
13170.0	2754906451967999.5
13180.0	2748766892031999.5
13190.0	2789491318783999.5
13200.0	2758454558719999.5
13210.0	2787939393535999.0
13220.0	2786205515775999.0
13230.0	2798015152127999.5
13240.0	2782576435199999.5
13250.0	2768149110783999.5
13260.0	2816873586687999.5
13270.0	2776422645759999.5
13280.0	2803958128639999.5
13290.0	2811421040639999.5
13300.0	2791263674367999.5
13310.0	2775287595007999.5
13320.0	2722804006911999.5
13330.0	2750789779455999.5
13340.0	2769137721343999.5
13350.0	2696340209663999.5
13360.0	2722454581247999.5
13370.0	2702958014463999.5
13380.0	2717610770431999.5
13390.0	2739310399487999.5
13400.0	2751988539391999.5
13410.0	2788586684415999.0
13420.0	2736870895615999.5
13430.0	2751248719871999.5
13440.0	2794310680575999.0
13450.0	2767854567423999.5
13460.0	2806685519871999.5
13470.0	2787678588927999.5
13480.0	2757519908863999.5
13490.0	2821211643903999.5
13500.0	2820061233151999.5
13510.0	2831804100607999.5
13520.0	2825747992575999.0
13530.0	2856999772159999.5
13540.0	2811380269055999.0
13550.0	2814874411007999.5
13560.0	2865185759231999.5
13570.0	2874999939071999.5
13580.0	2886161432575999.0
13590.0	2890473578495999.0
13600.0	2904592138239999.5
13610.0	2923204362239999.5
13620.0	2882581635071999.5
13630.0	2966649208831999.5
13640.0	2974340685823999.5
13650.0	2956776284159999.5
13660.0	3002966335487999.5
13670.0	2994818531327999.5
13680.0	2992076275711999.5
13690.0	2983368581119999.5
13700.0	3012752171007999.5
13710.0	3008050339839999.5
13720.0	3034534567935999.0
13730.0	3047254777855999.0
13740.0	3050096861183999.5
13750.0	3067256061951999.5
13760.0	3087603728383999.5
13770.0	3083393286143999.5
13780.0	3119936806911999.5
13790.0	3111003119615999.0
13800.0	3149012844543999.5
13810.0	3111691067391999.5
13820.0	3149759938559999.5
13830.0	3083982086143999.5
13840.0	3177519710207999.5
13850.0	3140143300607999.5
13860.0	3144573550591999.5
13870.0	3200817209343999.5
13880.0	3163806580735999.0
13890.0	3213564100607999.5
13900.0	3202172870655999.0
13910.0	3186226528255999.0
13920.0	3198085668863999.5
13930.0	3230415642623999.5
13940.0	3216796647423999.5
13950.0	3213721583615999.0
13960.0	3233236967423999.5
13970.0	3256736260095999.0
13980.0	3248325525503999.5
13990.0	3289420726271999.5
14000.0	3255684046847999.5
14010.0	3259933982719999.5
14020.0	3326842494975999.0
14030.0	3320739332095999.0
14040.0	3293302718463999.5
14050.0	3299678232575999.0
14060.0	3404717965311999.5
14070.0	3327975448575999.0
14080.0	3344939638783999.5
14090.0	3335809556479999.5
14100.0	3358723825663999.5
14110.0	3374624505855999.0
14120.0	3329483841535999.0
14130.0	3418620960767999.5
14140.0	3372379856895999.0
14150.0	3399132864511999.5
14160.0	3450165075967999.5
14170.0	3410789072895999.0
14180.0	3394627764223999.5
14190.0	3401722257407999.5
14200.0	3446974930943999.5
14210.0	3466820468735999.0
14220.0	3473395081215999.0
14230.0	3460339916799999.5
14240.0	3448403845119999.5
14250.0	3502893948927999.0
14260.0	3477278728191999.5
14270.0	3531178909695999.0
14280.0	3512409784319999.5
14290.0	3468675842047999.0
14300.0	3594905182207999.0
14310.0	3592693022719999.5
14320.0	3543354720255999.0
14330.0	3580505686015999.0
14340.0	3487174787071999.5
14350.0	3620227186687999.0
14360.0	3638029500415999.0
14370.0	3622141542399999.5
14380.0	3635999948799999.5
14390.0	3637586558975999.0
14400.0	3615293071359999.5
14410.0	3633441267711999.5
14420.0	3655062781951999.5
14430.0	3718987014143999.5
14440.0	3699130802175999.0
14450.0	3640046657535999.0
14460.0	3733033779199999.5
14470.0	3699455246335999.0
14480.0	3758358667263999.5
14490.0	3784793219071999.5
14500.0	3743459598335999.0
14510.0	3708547833855999.0
14520.0	3861135548415999.0
14530.0	3832017797119999.5
14540.0	3772680552447999.0
14550.0	3860431503359999.5
