# Flux units: erg / (cm m2 s)
# Wavelength units: Angstrom
wave	flux
7000.0	184277.07481384274
7010.0	187490.64350128168
7020.0	190748.92425537104
7030.0	194052.74581909177
7040.0	197402.1940231323
7050.0	200781.60572052
7060.0	204238.32321166986
7070.0	207726.7913818359
7080.0	211263.43345642087
7090.0	214847.02301025385
7100.0	218478.65200042722
7110.0	222160.06088256833
7120.0	225890.46287536618
7130.0	229669.21329498288
7140.0	233495.92971801755
7150.0	237362.6108169555
7160.0	241274.27005767816
7170.0	245238.41190338132
7180.0	249259.89723205563
7190.0	253331.31027221674
7200.0	257453.61804962152
7210.0	261628.24440002438
7220.0	265856.27746582025
7230.0	270139.531135559
7240.0	274475.956916809
7250.0	278867.9637908935
7260.0	283314.41879272455
7270.0	287817.63362884516
7280.0	292375.58650970453
7290.0	296993.49117279047
7300.0	301666.407585144
7310.0	306396.9078063964
7320.0	311187.364578247
7330.0	316036.9625091552
7340.0	320944.2930221557
7350.0	325912.41645812977
7360.0	330942.0127868652
7370.0	336032.26661682123
7380.0	341184.5912933349
7390.0	346399.63912963856
7400.0	351678.43246459955
7410.0	357016.035079956
7420.0	362415.20881652826
7430.0	367890.5925750732
7440.0	373421.46301269525
7450.0	379020.3323364257
7460.0	384684.8049163818
7470.0	390414.3810272216
7480.0	396209.7625732421
7490.0	402076.166152954
7500.0	408007.8773498534
7510.0	414008.33129882807
7520.0	420076.95579528797
7530.0	426214.8513793944
7540.0	432422.8515624999
7550.0	438702.10075378406
7560.0	445037.1208190917
7570.0	451456.48765563953
7580.0	457961.1320495605
7590.0	464523.7560272216
7600.0	471157.3047637939
7610.0	477864.78042602533
7620.0	484640.7890319823
7630.0	491475.0766754149
7640.0	498352.56767272943
7650.0	505219.6578979491
7660.0	511770.84350585926
7670.0	471603.464603424
7680.0	526527.3227691649
7690.0	533895.6756591796
7700.0	496706.666946411
7710.0	548835.2642059325
7720.0	556708.6544036864
7730.0	564502.2506713866
7740.0	572327.407836914
7750.0	580210.3538513182
7760.0	588165.0028228759
7770.0	596199.0108489989
7780.0	604318.4509277343
7790.0	612517.8794860839
7800.0	620716.1483764647
7810.0	629177.5474548339
7820.0	637643.1808471679
7830.0	646183.6662292479
7840.0	654821.5293884276
7850.0	663547.1534729003
7860.0	672365.5433654784
7870.0	681266.5557861327
7880.0	690262.5160217284
7890.0	699351.7494201659
7900.0	708532.0777893065
7910.0	717790.9545898436
7920.0	727148.4603881835
7930.0	736614.9826049804
7940.0	746169.0979003905
7950.0	755669.6701049804
7960.0	765559.2498779295
7970.0	775383.689880371
7980.0	785330.1506042479
7990.0	795361.0877990721
8000.0	805481.5025329589
8010.0	815718.8072204589
8020.0	826050.0373840331
8030.0	836482.5286865233
8040.0	847007.8620910642
8050.0	857635.486602783
8060.0	868372.8446960448
8070.0	879200.6072998045
8080.0	890154.0031433104
8090.0	901188.5719299314
8100.0	912341.1331176755
8110.0	923581.6841125486
8120.0	934953.960418701
8130.0	946428.5964965819
8140.0	958022.4533081054
8150.0	969711.441040039
8160.0	981516.6931152341
8170.0	993404.5600891111
8180.0	1005437.3359680173
8190.0	1017534.1567993162
8200.0	1029374.702453613
8210.0	1042027.290344238
8220.0	1054495.2278137205
8230.0	1067045.77255249
8240.0	1079767.0249938963
8250.0	1092527.8320312498
8260.0	1105456.302642822
8270.0	1118464.3630981443
8280.0	1131586.7691040037
8290.0	1144791.7900085447
8300.0	1158223.7205505369
8310.0	1171654.0870666502
8320.0	1185284.4009399412
8330.0	1198968.0442810056
8340.0	1212778.396606445
8350.0	1226643.3448791502
8360.0	1240650.363922119
8370.0	1254773.9677429197
8380.0	1269055.8891296384
8390.0	1283319.6067810056
8400.0	1297817.8787231443
8410.0	1312582.824707031
8420.0	1327247.0474243162
8430.0	1342068.8476562498
8440.0	1356876.037597656
8450.0	1371934.9288940427
8460.0	1387115.5166625974
8470.0	1402452.8808593745
8480.0	1417961.0061645505
8490.0	1433526.0925292966
8500.0	1449280.0140380857
8510.0	1465116.2109374998
8520.0	1481097.2061157224
8530.0	1497168.28918457
8540.0	1513389.1754150388
8550.0	1529796.5316772459
8560.0	1546297.485351562
8570.0	1562874.588012695
8580.0	1579683.8378906248
8590.0	1596516.5023803709
8600.0	1613513.6718749995
8610.0	1630633.9874267576
8620.0	1647868.7667846677
8630.0	1665267.6773071287
8640.0	1682852.4627685545
8650.0	1700456.37512207
8660.0	1718405.2505493162
8670.0	1736350.7690429685
8680.0	1754395.4315185545
8690.0	1772508.8653564448
8700.0	1790689.9108886716
8710.0	1808964.1952514646
8720.0	1827731.9869995113
8730.0	1846672.7218627925
8740.0	1865334.7396850584
8750.0	1884624.5956420896
8760.0	1903997.764587402
8770.0	1923277.6260375972
8780.0	1942807.2814941404
8790.0	1962377.1743774412
8800.0	1975755.9738159175
8810.0	2002210.670471191
8820.0	2022283.7371826167
8830.0	2042492.2180175777
8840.0	2063061.8438720698
8850.0	2083432.2738647456
8860.0	2104091.54510498
8870.0	2124134.971618652
8880.0	2145234.8632812495
8890.0	2166240.844726562
8900.0	2187504.3258666988
8910.0	2209057.723999023
8920.0	2230070.6558227534
8930.0	2252097.579956054
8940.0	2273825.5386352534
8950.0	2295230.346679687
8960.0	2317674.4918823238
8970.0	2339845.7565307613
8980.0	2362720.3598022456
8990.0	2385036.0488891597
9000.0	2408013.6566162105
9010.0	2431350.509643554
9020.0	2454370.910644531
9030.0	2476845.497131347
9040.0	2500420.318603515
9050.0	2524667.1066284175
9060.0	2547450.5996704097
9070.0	2571514.6789550777
9080.0	2597882.0495605464
9090.0	2620837.8906249995
9100.0	2644698.6236572256
9110.0	2669469.635009765
9120.0	2695864.151000976
9130.0	2719832.5500488277
9140.0	2744019.7448730464
9150.0	2770799.1638183584
9160.0	2797011.810302734
9170.0	2822374.5269775386
9180.0	2847050.5676269527
9190.0	2875387.4359130855
9200.0	2899441.574096679
9210.0	2922757.8582763663
9220.0	2947935.1043701167
9230.0	2970864.334106445
9240.0	3000309.7991943355
9250.0	3027133.45336914
9260.0	3053783.8592529288
9270.0	3080492.248535156
9280.0	3105575.164794921
9290.0	3132691.6198730464
9300.0	3161683.8226318355
9310.0	3188446.3348388663
9320.0	3217348.2055664053
9330.0	3244392.761230468
9340.0	3271537.2314453116
9350.0	3298503.7536621084
9360.0	3329625.869750976
9370.0	3357122.421264648
9380.0	3389118.2556152334
9390.0	3417059.951782226
9400.0	3447125.96130371
9410.0	3476058.502197265
9420.0	3507729.3243408194
9430.0	3537208.5266113277
9440.0	3565771.6217041006
9450.0	3595690.9790039053
9460.0	3627282.119750976
9470.0	3654772.4151611323
9480.0	3686608.5662841788
9490.0	3722284.8510742183
9500.0	3746903.8085937495
9510.0	3780415.0543212886
9520.0	3813197.0214843745
9530.0	3844012.268066406
9540.0	3879291.1529541006
9550.0	3908472.335815429
9560.0	3938095.5505371084
9570.0	3971831.03942871
9580.0	4011063.0340576163
9590.0	4041583.023071288
9600.0	4069732.7423095694
9610.0	4106468.261718749
9620.0	4133374.3591308584
9630.0	4175586.4410400386
9640.0	4202686.889648437
9650.0	4240478.790283202
9660.0	4278117.416381835
9670.0	4311293.182373046
9680.0	4348272.8118896475
9690.0	4382328.353881835
9700.0	4418989.807128905
9710.0	4448653.640747069
9720.0	4485367.752075194
9730.0	4513965.225219726
9740.0	4547204.605102538
9750.0	4584247.573852538
9760.0	4619902.16064453
9770.0	4655596.0540771475
9780.0	4693510.07080078
9790.0	4731346.862792968
9800.0	4767521.896362304
9810.0	4800468.1243896475
9820.0	4831625.701904296
9830.0	4870568.435668944
9840.0	4909827.423095702
9850.0	4948156.661987304
9860.0	4986166.793823241
9870.0	5027199.432373046
9880.0	5057083.31298828
9890.0	5107963.821411132
9900.0	5111737.8997802725
9910.0	5135802.902221679
9920.0	5176502.471923827
9930.0	5220515.197753905
9940.0	5260872.924804686
9950.0	5302953.124999999
9960.0	5342748.3825683575
9970.0	5385326.934814452
9980.0	5421486.083984374
9990.0	5451156.799316405
10000.0	5496705.947875976
10010.0	5539203.704833983
10020.0	5580673.767089843
10030.0	5627595.092773437
10040.0	5657336.5325927725
10050.0	5704295.486450194
10060.0	5733320.022583007
10070.0	5778722.351074217
10080.0	5829662.506103515
10090.0	5868063.217163085
10100.0	5918641.067504882
10110.0	5948886.04736328
10120.0	5991830.9173583975
10130.0	6041044.158935546
10140.0	6069341.842651366
10150.0	6123867.279052733
10160.0	6156487.60986328
10170.0	6196761.993408202
10180.0	6255067.03186035
10190.0	6289022.10998535
10200.0	6327833.679199217
10210.0	6385310.562133787
10220.0	6411444.091796874
10230.0	6469212.677001952
10240.0	6520059.738159179
10250.0	6556733.581542968
10260.0	6582700.98876953
10270.0	6632195.892333983
10280.0	6674772.033691405
10290.0	6726800.094604491
10300.0	6766662.857055663
10310.0	6828430.9997558575
10320.0	6860677.978515624
10330.0	6914840.255737304
10340.0	6953586.273193358
10350.0	7009217.880249022
10360.0	7061303.619384764
10370.0	7110306.518554686
10380.0	7148813.6138916
10390.0	7192367.126464843
10400.0	7246747.467041015
10410.0	7315928.695678709
10420.0	7333060.714721679
10430.0	7365978.805541991
10440.0	7449497.055053709
10450.0	7512911.77368164
10460.0	7592288.39111328
10470.0	7557789.505004881
10480.0	7622451.2786865225
10490.0	7699581.817626951
10500.0	7741278.640747069
10510.0	7779001.449584959
10520.0	7804512.817382812
10530.0	7914931.274414062
10540.0	7955598.9685058575
10550.0	8005979.156494139
10560.0	8026369.613647459
10570.0	8058214.340209959
10580.0	8168663.665771483
10590.0	8207276.641845702
10600.0	8273286.468505858
10610.0	8293065.017700193
10620.0	8330703.048706053
10630.0	8415394.958496092
10640.0	8539164.016723631
10650.0	8550719.451904295
10660.0	8576552.001953123
10670.0	8590209.136962889
10680.0	8697384.201049803
10690.0	8800829.483032225
10700.0	8812780.319213865
10710.0	8891341.461181639
10720.0	8986050.735473631
10730.0	8978627.044677733
10740.0	9095435.256958006
10750.0	9166910.034179686
10760.0	9245489.852905272
10770.0	9324128.936767576
10780.0	9428873.245239256
10790.0	9430619.201660154
10800.0	9491225.204467772
10810.0	9503306.45751953
10820.0	9592029.388427733
10830.0	9722810.089111326
10840.0	9842557.73925781
10850.0	9838915.51208496
10860.0	9874925.292968748
10870.0	9908787.277221678
10880.0	10024803.451538084
10890.0	9933816.37573242
10900.0	10054925.140380858
10910.0	10122561.904907225
10920.0	10210636.184692381
10930.0	10234580.68847656
10940.0	10272393.890380858
10950.0	10355706.298828123
10960.0	10339852.874755858
10970.0	10462601.715087887
10980.0	10485615.35644531
10990.0	10526293.029785154
11000.0	10565793.76220703
11010.0	10646896.453857418
11020.0	10747517.974853514
11030.0	10688788.085937496
11040.0	10756837.707519528
11050.0	10816178.710937498
11060.0	10850035.491943356
11070.0	10901600.70800781
11080.0	10982190.704345701
11090.0	11062643.615722654
11100.0	11080207.000732418
11110.0	11110939.971923826
11120.0	11242157.073974606
11130.0	11303186.309814451
11140.0	11333949.768066404
11150.0	11401396.881103512
11160.0	11519704.162597654
11170.0	11499679.138183592
11180.0	11708879.058837889
11190.0	11688708.46557617
11200.0	11694958.46557617
11210.0	11794548.889160153
11220.0	11894700.683593748
11230.0	11962896.087646483
11240.0	12075419.036865233
11250.0	12150325.256347653
11260.0	12199853.729248045
11270.0	12276956.970214842
11280.0	12348285.247802733
11290.0	12434123.62670898
11300.0	12408894.50073242
11310.0	12548870.483398434
11320.0	12580447.265624998
11330.0	12636433.746337889
11340.0	12609495.72753906
11350.0	12539680.175781248
11360.0	12813988.708496092
11370.0	12872879.85229492
11380.0	12833654.479980467
11390.0	12984955.017089842
11400.0	13097456.3293457
11410.0	13056658.111572262
11420.0	13242776.763916012
11430.0	13304624.45068359
11440.0	13235879.089355467
11450.0	13471424.255371092
11460.0	13579791.229248043
11470.0	13596236.419677733
11480.0	13624134.704589842
11490.0	13875753.082275389
11500.0	13909397.155761717
11510.0	13933682.769775389
11520.0	14026283.355712887
11530.0	14039120.025634764
11540.0	14044894.104003904
11550.0	14318913.421630858
11560.0	14353363.189697264
11570.0	14364082.397460936
11580.0	14481691.528320309
11590.0	14611301.57470703
11600.0	14510990.142822264
11610.0	14605431.518554686
11620.0	14749846.710205076
11630.0	14893375.61035156
11640.0	14751144.500732418
11650.0	15100202.94189453
11660.0	14925766.296386717
11670.0	15130216.369628904
11680.0	15159014.160156248
11690.0	14872024.810791012
11700.0	15176319.763183592
11710.0	15406362.24365234
11720.0	15566124.450683592
11730.0	15561745.819091795
11740.0	15581282.379150389
11750.0	15702241.546630858
11760.0	15625218.780517574
11770.0	15556653.137207028
11780.0	15458269.744873043
11790.0	15917353.759765621
11800.0	16074189.483642576
11810.0	16140782.53173828
11820.0	16193780.05981445
11830.0	16435702.301025387
11840.0	16392257.14111328
11850.0	16561889.465332028
11860.0	16559780.822753903
11870.0	16787027.648925778
11880.0	16799036.804199215
11890.0	16768479.79736328
11900.0	16965889.373779293
11910.0	17046431.12182617
11920.0	17165291.74804687
11930.0	17334366.94335937
11940.0	17112884.39941406
11950.0	17143786.285400387
11960.0	17275429.534912106
11970.0	17224376.70898437
11980.0	17203255.187988278
11990.0	17371728.851318356
12000.0	17376831.878662106
12010.0	17496527.92358398
12020.0	17571986.846923824
12030.0	17678681.152343746
12040.0	18033808.959960934
12050.0	18004865.17333984
12060.0	18621528.28979492
12070.0	18181566.070556637
12080.0	18563459.503173824
12090.0	18332826.62963867
12100.0	18697643.67675781
12110.0	18377231.23168945
12120.0	18608002.929687496
12130.0	18757808.013916012
12140.0	19191689.941406246
12150.0	19229224.8840332
12160.0	19257576.324462887
12170.0	19396895.812988278
12180.0	19562251.495361324
12190.0	19639452.026367184
12200.0	19473578.88793945
12210.0	19556549.865722653
12220.0	19610766.632080074
12230.0	19689936.706542965
12240.0	19955421.264648434
12250.0	20431523.834228512
12260.0	20378918.88427734
12270.0	20439789.276123043
12280.0	20790209.503173824
12290.0	20745875.91552734
12300.0	20691745.971679684
12310.0	20957369.07958984
12320.0	20678590.515136715
12330.0	20872215.179443356
12340.0	21181459.93041992
12350.0	20923284.11865234
12360.0	21168236.75537109
12370.0	21407631.103515618
12380.0	21453266.05224609
12390.0	21286818.115234368
12400.0	21472606.140136715
12410.0	21024142.333984368
12420.0	21072759.277343743
12430.0	21257615.844726555
12440.0	21117585.144042965
12450.0	22044942.687988278
12460.0	22019403.320312496
12470.0	22271600.158691403
12480.0	22042962.097167965
12490.0	22426379.760742184
12500.0	22214973.144531246
12510.0	22501579.04052734
12520.0	22088757.019042965
12530.0	22176105.957031246
12540.0	23009492.858886715
12550.0	22727359.31396484
12560.0	23029462.707519528
12570.0	23639016.967773434
12580.0	23194775.81787109
12590.0	23421952.209472653
12600.0	23554469.055175778
12610.0	24200443.11523437
12620.0	23535841.369628903
12630.0	23813287.414550778
12640.0	23670276.977539055
12650.0	23936373.901367184
12660.0	24310011.535644528
12670.0	24748482.727050778
12680.0	24629460.510253903
12690.0	25074725.646972653
12700.0	24716253.417968746
12710.0	24946499.084472653
12720.0	25434106.750488278
12730.0	25521242.492675778
12740.0	25112975.341796868
12750.0	25034920.471191403
12760.0	25637805.35888671
12770.0	25635329.589843746
12780.0	25637694.45800781
12790.0	26100874.694824215
12800.0	26022491.882324215
12810.0	25985069.702148434
12820.0	26468190.49072265
12830.0	26143343.01757812
12840.0	26405453.308105465
12850.0	26792852.539062496
12860.0	25974136.2915039
12870.0	26856696.411132805
12880.0	26743544.311523434
12890.0	26907429.260253903
12900.0	27459815.246582024
12910.0	27165620.72753906
12920.0	27079268.981933586
12930.0	27228760.253906243
12940.0	28256547.60742187
12950.0	27431344.543457024
12960.0	28358160.40039062
12970.0	28440830.68847656
12980.0	28799115.66162109
12990.0	28378342.83447265
13000.0	28800214.4165039
13010.0	28506932.128906246
13020.0	29038829.04052734
13030.0	29014706.970214836
13040.0	29539026.123046868
13050.0	29291514.770507805
13060.0	29878442.56591796
13070.0	28953056.152343746
13080.0	29656730.957031246
13090.0	29367280.39550781
13100.0	29644635.37597656
13110.0	30184954.650878903
13120.0	30374381.408691403
13130.0	29988748.229980465
13140.0	30135775.329589836
13150.0	30386977.783203118
13160.0	30297862.792968743
13170.0	30621678.40576171
13180.0	30100780.517578118
13190.0	30840276.489257805
13200.0	30374831.604003903
13210.0	30579604.125976555
13220.0	30568686.157226555
13230.0	30807841.49169921
13240.0	30564890.808105465
13250.0	29910772.155761715
13260.0	30869797.729492184
13270.0	30150339.78271484
13280.0	30342354.0649414
13290.0	30626432.189941403
13300.0	30100276.42822265
13310.0	29579141.418457024
13320.0	28830651.73339843
13330.0	28742033.26416015
13340.0	29291542.480468746
13350.0	27721224.426269528
13360.0	28444906.860351555
13370.0	28099708.129882805
13380.0	28254455.871582028
13390.0	28561686.096191403
13400.0	28856383.789062496
13410.0	29335829.162597653
13420.0	28338352.78320312
13430.0	28387248.840332028
13440.0	29167612.670898434
13450.0	28655151.306152336
13460.0	29176793.395996086
13470.0	28885985.229492184
13480.0	28469496.154785153
13490.0	29479309.81445312
13500.0	29368397.58300781
13510.0	29343228.820800778
13520.0	29234131.103515618
13530.0	29654042.297363274
13540.0	28817522.216796868
13550.0	29013990.722656243
13560.0	29754668.57910156
13570.0	29852617.61474609
13580.0	29808516.296386715
13590.0	29836529.54101562
13600.0	30068979.91943359
13610.0	30341004.57763671
13620.0	29580023.681640618
13630.0	30880450.256347653
13640.0	30784535.034179684
13650.0	30622656.12792968
13660.0	31081234.49707031
13670.0	30861644.59228515
13680.0	30884019.1040039
13690.0	30777836.853027336
13700.0	31022561.58447265
13710.0	30811851.44042968
13720.0	31248741.882324215
13730.0	31452030.39550781
13740.0	31266555.236816403
13750.0	31470069.21386718
13760.0	31751752.5024414
13770.0	31577765.624999996
13780.0	32398548.583984368
13790.0	32002537.292480465
13800.0	32665651.61132812
13810.0	32298784.179687493
13820.0	32757550.72021484
13830.0	31747892.333984368
13840.0	32929954.101562493
13850.0	32562097.35107421
13860.0	32677138.06152343
13870.0	32983917.114257805
13880.0	32678131.164550778
13890.0	33462916.87011718
13900.0	33172870.84960937
13910.0	32839693.420410153
13920.0	33071730.285644524
13930.0	33491445.251464836
13940.0	33184836.60888671
13950.0	33187015.31982421
13960.0	33526907.28759765
13970.0	33735794.555664055
13980.0	33480329.895019524
13990.0	34078659.85107421
14000.0	33458438.903808586
14010.0	33582236.75537109
14020.0	34464040.161132805
14030.0	34191464.29443359
14040.0	33750578.85742187
14050.0	34024390.07568359
14060.0	35318921.87499999
14070.0	34178514.465332024
14080.0	34475888.12255859
14090.0	34428642.883300774
14100.0	34450529.17480468
14110.0	34756650.695800774
14120.0	34239259.887695305
14130.0	35407039.367675774
14140.0	34851870.422363274
14150.0	34878710.083007805
14160.0	35563835.14404296
14170.0	34954183.227539055
14180.0	34681851.25732421
14190.0	35084451.41601562
14200.0	35329960.63232421
14210.0	35582971.37451171
14220.0	35648137.45117187
14230.0	35505223.99902343
14240.0	35599338.13476562
14250.0	35904111.938476555
14260.0	35496857.66601562
14270.0	36268410.40039062
14280.0	35925083.25195312
14290.0	35329869.99511718
14300.0	37172190.246582024
14310.0	37130311.0961914
14320.0	36315601.684570305
14330.0	36495596.13037109
14340.0	35717458.37402343
14350.0	37347831.78710937
14360.0	37413370.11718749
14370.0	37286662.53662109
14380.0	37410599.85351562
14390.0	37516261.41357421
14400.0	37055666.320800774
14410.0	37102900.57373046
14420.0	37359393.859863274
14430.0	38431943.78662109
14440.0	38067852.53906249
14450.0	37360377.563476555
14460.0	38287603.57666015
14470.0	37859033.56933593
14480.0	38681685.363769524
14490.0	39226913.879394524
14500.0	38681905.27343749
14510.0	38004663.6352539
14520.0	40085464.78271484
14530.0	39434530.090332024
14540.0	38544469.60449218
14550.0	40019795.83740234
14560.0	39134924.68261718
14570.0	38778729.125976555
14580.0	39912129.82177734
14590.0	40416730.71289062
14600.0	40504850.03662109
14610.0	40350408.63037109
14620.0	39810076.04980468
14630.0	39509838.500976555
14640.0	40687482.29980468
