# Flux units: erg / (cm m2 s)
# Wavelength units: Angstrom
wave	flux
7000.0	18937784127999.996
7010.0	19267675263999.996
7020.0	19602224703999.996
7030.0	19941538239999.996
7040.0	20285416127999.996
7050.0	20631968447999.996
7060.0	20987045375999.996
7070.0	21345138879999.996
7080.0	21708342655999.996
7090.0	22076100607999.996
7100.0	22448865279999.996
7110.0	22826855807999.996
7120.0	23209799551999.992
7130.0	23597492991999.992
7140.0	23990194047999.996
7150.0	24387039615999.996
7160.0	24788339327999.996
7170.0	25194844543999.996
7180.0	25607579519999.996
7190.0	26025374079999.996
7200.0	26448282623999.996
7210.0	26876461823999.996
7220.0	27310266623999.996
7230.0	27749681023999.996
7240.0	28194471935999.992
7250.0	28645020159999.996
7260.0	29101081599999.996
7270.0	29562950527999.996
7280.0	30030401663999.996
7290.0	30504051199999.996
7300.0	30983368191999.992
7310.0	31468458879999.996
7320.0	31959906815999.992
7330.0	32457302015999.992
7340.0	32960188543999.996
7350.0	33469320063999.996
7360.0	33985200127999.996
7370.0	34507218175999.992
7380.0	35035431807999.996
7390.0	35569955199999.99
7400.0	36111331327999.99
7410.0	36658434687999.99
7420.0	37211567103999.99
7430.0	37773387519999.99
7440.0	38340410879999.99
7450.0	38914047487999.99
7460.0	39494937727999.99
7470.0	40082357375999.99
7480.0	40676315647999.99
7490.0	41278042111999.99
7500.0	41886245503999.99
7510.0	42501165695999.99
7520.0	43123254655999.99
7530.0	43752695807999.99
7540.0	44389088511999.99
7550.0	45032861695999.99
7560.0	45682021631999.99
7570.0	46340174847999.99
7580.0	47007151871999.99
7590.0	47679777535999.99
7600.0	48359742463999.984
7610.0	49047388159999.99
7620.0	49742278143999.984
7630.0	50443144191999.99
7640.0	51148992767999.99
7650.0	51854585343999.984
7660.0	52534341375999.99
7670.0	48320755679999.99
7680.0	54040117247999.99
7690.0	54794515199999.99
7700.0	50826727551999.99
7710.0	56326294783999.984
7720.0	57130269439999.99
7730.0	57927875583999.984
7740.0	58728908543999.984
7750.0	59536004095999.99
7760.0	60350942463999.984
7770.0	61173911295999.99
7780.0	62006195967999.99
7790.0	62846176511999.984
7800.0	63687030271999.984
7810.0	64554316799999.984
7820.0	65421764607999.99
7830.0	66296291583999.984
7840.0	67181509119999.984
7850.0	68075719167999.99
7860.0	68979788799999.984
7870.0	69891684351999.984
7880.0	70814038271999.98
7890.0	71745854463999.98
7900.0	72686202623999.98
7910.0	73632846079999.98
7920.0	74590972159999.98
7930.0	75562624255999.98
7940.0	76542381823999.98
7950.0	77516666879999.98
7960.0	78529959167999.98
7970.0	79535298303999.98
7980.0	80554811391999.98
7990.0	81582322943999.98
8000.0	82619182335999.98
8010.0	83667692287999.98
8020.0	84726551551999.98
8030.0	85796057087999.98
8040.0	86874680831999.98
8050.0	87962208255999.98
8060.0	89062788095999.98
8070.0	90172698623999.98
8080.0	91295943679999.98
8090.0	92426847743999.98
8100.0	93571835391999.98
8110.0	94723394559999.98
8120.0	95889465343999.98
8130.0	97067562495999.98
8140.0	98258422783999.98
8150.0	99457089535999.98
8160.0	100669885439999.98
8170.0	101889551871999.98
8180.0	103128480255999.98
8190.0	104364700159999.98
8200.0	105547867647999.97
8210.0	106856511487999.97
8220.0	108138405375999.98
8230.0	109421370879999.98
8240.0	110730007039999.98
8250.0	112033627135999.98
8260.0	113357896703999.97
8270.0	114690766335999.98
8280.0	116031202815999.98
8290.0	117377550335999.98
8300.0	118759766015999.98
8310.0	120129299967999.97
8320.0	121526225407999.97
8330.0	122929357823999.97
8340.0	124344473599999.98
8350.0	125759097343999.97
8360.0	127192940031999.98
8370.0	128638765567999.97
8380.0	130102298623999.97
8390.0	131555445759999.97
8400.0	133042006015999.98
8410.0	134567526911999.98
8420.0	136059603455999.98
8430.0	137574707711999.98
8440.0	139072349695999.98
8450.0	140610687999999.97
8460.0	142161263615999.97
8470.0	143730143231999.97
8480.0	145317761023999.97
8490.0	146909586431999.97
8500.0	148523492863999.97
8510.0	150142472703999.97
8520.0	151778870783999.97
8530.0	153417927679999.97
8540.0	155074560511999.97
8550.0	156755823615999.97
8560.0	158445615103999.97
8570.0	160140263423999.97
8580.0	161859673087999.97
8590.0	163574613503999.97
8600.0	165310334463999.97
8610.0	167061918207999.97
8620.0	168827299327999.97
8630.0	170604734975999.97
8640.0	172401078783999.97
8650.0	174199342079999.97
8660.0	176038293503999.97
8670.0	177869476863999.97
8680.0	179708670975999.94
8690.0	181556780031999.97
8700.0	183433179135999.94
8710.0	185263855615999.94
8720.0	187210081279999.97
8730.0	189154419711999.97
8740.0	191051175935999.94
8750.0	193020489727999.97
8760.0	195016502271999.97
8770.0	196985758719999.97
8780.0	198982904831999.97
8790.0	200984172543999.97
8800.0	202211689471999.97
8810.0	205095798783999.97
8820.0	207113100287999.97
8830.0	209195800575999.94
8840.0	211311839231999.97
8850.0	213423964159999.97
8860.0	215521482751999.97
8870.0	217526199295999.94
8880.0	219681141759999.97
8890.0	221835361279999.97
8900.0	224012067839999.97
8910.0	226236637183999.97
8920.0	228348038143999.97
8930.0	230646630399999.97
8940.0	232841334783999.97
8950.0	234987395071999.97
8960.0	237299337215999.94
8970.0	239587708927999.94
8980.0	241954074623999.97
8990.0	244209228799999.97
9000.0	246589475839999.97
9010.0	249012038655999.94
9020.0	251343770623999.97
9030.0	253627044863999.97
9040.0	256013061119999.97
9050.0	258566868991999.97
9060.0	260879901695999.94
9070.0	263327629311999.97
9080.0	266253729791999.97
9090.0	268500179967999.94
9100.0	270871301119999.94
9110.0	273451915263999.97
9120.0	276276126719999.94
9130.0	278683560959999.94
9140.0	281135962111999.97
9150.0	283961697279999.94
9160.0	286741075967999.94
9170.0	289303400447999.94
9180.0	291798202367999.94
9190.0	294915392511999.94
9200.0	297212357631999.94
9210.0	299330850815999.94
9220.0	301768232959999.94
9230.0	303997618175999.94
9240.0	307056698367999.94
9250.0	309815384063999.94
9260.0	312527926271999.94
9270.0	315256281087999.94
9280.0	317715125247999.94
9290.0	320469442559999.94
9300.0	323496737791999.94
9310.0	326199029759999.94
9320.0	329185554431999.94
9330.0	331915797503999.94
9340.0	334651260927999.94
9350.0	337399732223999.94
9360.0	340633443327999.94
9370.0	343393774591999.94
9380.0	346790674431999.94
9390.0	349624358911999.9
9400.0	352754153471999.9
9410.0	355690792959999.94
9420.0	359049396223999.94
9430.0	362013894655999.94
9440.0	364889255935999.94
9450.0	367907239935999.94
9460.0	371261183999999.94
9470.0	373882769407999.94
9480.0	377213229055999.94
9490.0	381121421311999.9
9500.0	383438098431999.9
9510.0	386896726015999.94
9520.0	390312189951999.9
9530.0	393439385599999.94
9540.0	397244192767999.94
9550.0	400086913023999.94
9560.0	402990936063999.94
9570.0	406650816511999.9
9580.0	410979307519999.94
9590.0	414013507583999.94
9600.0	416699914239999.94
9610.0	420738768895999.94
9620.0	423077894143999.94
9630.0	427834933247999.94
9640.0	430347038719999.94
9650.0	434594691071999.9
9660.0	438517231615999.9
9670.0	441848956927999.94
9680.0	445903820799999.94
9690.0	449643405311999.9
9700.0	453333063679999.94
9710.0	456240789503999.94
9720.0	460096194559999.94
9730.0	462230577151999.9
9740.0	465519831039999.94
9750.0	469427396607999.94
9760.0	473126860799999.94
9770.0	476768698367999.94
9780.0	480791132159999.94
9790.0	485279412223999.94
9800.0	488661733375999.9
9810.0	491674603519999.94
9820.0	494545336319999.94
9830.0	498720139263999.94
9840.0	502882019327999.94
9850.0	506879909887999.94
9860.0	510700242943999.94
9870.0	515256252415999.9
9880.0	517746003967999.94
9890.0	524054431743999.94
9900.0	523011545087999.94
9910.0	524710975487999.94
9920.0	529324011519999.9
9930.0	534100295679999.9
9940.0	538238195711999.9
9950.0	542891902975999.9
9960.0	546882226175999.9
9970.0	551789903871999.9
9980.0	555250112511999.9
9990.0	557404565503999.94
10000.0	562432578559999.9
10010.0	566992481279999.9
10020.0	571371779071999.9
10030.0	576429044735999.9
10040.0	578804052991999.9
10050.0	584375792639999.9
10060.0	586737856511999.9
10070.0	591426439167999.9
10080.0	597412026367999.9
10090.0	600925542399999.9
10100.0	606795082751999.9
10110.0	609150985215999.9
10120.0	614232411135999.9
10130.0	619824262143999.9
10140.0	621435172863999.9
10150.0	627807985663999.9
10160.0	630635887615999.9
10170.0	634568684543999.9
10180.0	641749336063999.9
10190.0	644451276799999.9
10200.0	648395734015999.9
10210.0	655084676095999.9
10220.0	656637644799999.9
10230.0	663832034303999.9
10240.0	669390841855999.9
10250.0	672182818815999.9
10260.0	673535867903999.9
10270.0	678777087999999.9
10280.0	683122460671999.9
10290.0	689174019071999.9
10300.0	692797769727999.9
10310.0	700352051199999.9
10320.0	702693679103999.8
10330.0	708386805759999.9
10340.0	712830611455999.9
10350.0	718732371967999.9
10360.0	724744984575999.9
10370.0	729819580415999.9
10380.0	733001340927999.9
10390.0	737867610111999.9
10400.0	743254247423999.8
10410.0	751810437119999.9
10420.0	752343136255999.9
10430.0	754643189759999.9
10440.0	765662021631999.9
10450.0	772637429759999.9
10460.0	781057708031999.9
10470.0	774323347455999.9
10480.0	782077544447999.9
10490.0	791221766143999.8
10500.0	795061622783999.8
10510.0	797981896703999.8
10520.0	799832319999999.9
10530.0	814509494271999.9
10540.0	818132248575999.9
10550.0	822536470527999.9
10560.0	823792347135999.9
10570.0	826480504831999.9
10580.0	840273999871999.9
10590.0	843801798655999.9
10600.0	851710441471999.9
10610.0	851064352767999.9
10620.0	855909726207999.9
10630.0	865117564927999.9
10640.0	880718344191999.8
10650.0	880027267071999.8
10660.0	882647611391999.8
10670.0	882267600895999.9
10680.0	893749575679999.9
10690.0	906290255871999.8
10700.0	906322468863999.8
10710.0	915041048575999.9
10720.0	927777177599999.9
10730.0	923547903999999.9
10740.0	940020180991999.8
10750.0	947236300799999.9
10760.0	958238912511999.8
10770.0	965690365951999.8
10780.0	977449146367999.9
10790.0	974336903167999.9
10800.0	982708885503999.8
10810.0	981209333759999.9
10820.0	992122927103999.8
10830.0	1011784443903999.8
10840.0	1027965196287999.9
10850.0	1024793171967999.9
10860.0	1027473809407999.9
10870.0	1027287242751999.8
10880.0	1041980993535999.9
10890.0	1026277742591999.8
10900.0	1041044279295999.9
10910.0	1048678977535999.9
10920.0	1058889226239999.8
10930.0	1057138995199999.8
10940.0	1062480699391999.8
10950.0	1073816465407999.9
10960.0	1067403900927999.9
10970.0	1082725953535999.9
10980.0	1084620652543999.8
10990.0	1086670671871999.8
11000.0	1090881423359999.8
11010.0	1100007096319999.8
11020.0	1115769686015999.9
11030.0	1100729329663999.8
11040.0	1108140240895999.9
11050.0	1113763069951999.8
11060.0	1116452960255999.9
11070.0	1121399703551999.8
11080.0	1130636746751999.8
11090.0	1140539809791999.8
11100.0	1140287772671999.8
11110.0	1143905452031999.8
11120.0	1157821992959999.8
11130.0	1164709337087999.8
11140.0	1166994704383999.8
11150.0	1173355337727999.8
11160.0	1188840790015999.8
11170.0	1183088334847999.8
11180.0	1210711902207999.8
11190.0	1205714003967999.8
11200.0	1204495556607999.8
11210.0	1217134745599999.8
11220.0	1229535784959999.8
11230.0	1234156148735999.8
11240.0	1248607676415999.8
11250.0	1257750958079999.8
11260.0	1259866918911999.8
11270.0	1269721921535999.8
11280.0	1277643352063999.8
11290.0	1286958116863999.8
11300.0	1283328808959999.8
11310.0	1298408394751999.8
11320.0	1299290869759999.8
11330.0	1305844793343999.8
11340.0	1302630895615999.8
11350.0	1286706825215999.8
11360.0	1326291619839999.8
11370.0	1330415507455999.8
11380.0	1322550855679999.8
11390.0	1340559575039999.8
11400.0	1356421279743999.8
11410.0	1349599823871999.8
11420.0	1368413650943999.8
11430.0	1377846095871999.8
11440.0	1361293819903999.8
11450.0	1392058114047999.5
11460.0	1404334833663999.8
11470.0	1404609282047999.5
11480.0	1409146904575999.8
11490.0	1436970262527999.5
11500.0	1440583782399999.8
11510.0	1441454546943999.8
11520.0	1450910572543999.8
11530.0	1454348550143999.8
11540.0	1451464675327999.5
11550.0	1485619916799999.8
11560.0	1492288245759999.8
11570.0	1484727201791999.8
11580.0	1501869772799999.8
11590.0	1522165469183999.8
11600.0	1502192259071999.8
11610.0	1515605692415999.8
11620.0	1531533709311999.8
11630.0	1542762586111999.8
11640.0	1524436606975999.8
11650.0	1574658789375999.8
11660.0	1545903210495999.8
11670.0	1569242087423999.8
11680.0	1576595689471999.8
11690.0	1535135154175999.8
11700.0	1576264286207999.5
11710.0	1597047701503999.8
11720.0	1618670866431999.8
11730.0	1615236136959999.8
11740.0	1611353415679999.8
11750.0	1633739509759999.8
11760.0	1616460722175999.8
11770.0	1610630414335999.8
11780.0	1595234369535999.8
11790.0	1650420088831999.8
11800.0	1665232187391999.8
11810.0	1671798628351999.8
11820.0	1673581330431999.8
11830.0	1707957080063999.8
11840.0	1704870039551999.8
11850.0	1721856098303999.8
11860.0	1718693486591999.8
11870.0	1750229409791999.8
11880.0	1744372563967999.5
11890.0	1740401557503999.5
11900.0	1762478284799999.8
11910.0	1767015145471999.8
11920.0	1779687833599999.8
11930.0	1805601497087999.5
11940.0	1775314190335999.8
11950.0	1778305810431999.8
11960.0	1793525985279999.8
11970.0	1786490806271999.8
11980.0	1781410177023999.5
11990.0	1806263656447999.5
12000.0	1798705569791999.8
12010.0	1817713647615999.8
12020.0	1823595556863999.5
12030.0	1834975469567999.5
12040.0	1876667027455999.8
12050.0	1874372104191999.8
12060.0	1949218115583999.5
12070.0	1887567720447999.5
12080.0	1934444482559999.8
12090.0	1909286117375999.8
12100.0	1952865005567999.5
12110.0	1912789684223999.5
12120.0	1935370694655999.8
12130.0	1950424354815999.8
12140.0	2005434085375999.8
12150.0	2008878911487999.5
12160.0	2013471068159999.8
12170.0	2019541450751999.8
12180.0	2049097035775999.8
12190.0	2059426664447999.5
12200.0	2034479046655999.8
12210.0	2048848666623999.5
12220.0	2054511259647999.5
12230.0	2062497824767999.5
12240.0	2090577727487999.5
12250.0	2138703261695999.8
12260.0	2141956993023999.5
12270.0	2141474873343999.5
12280.0	2184055062527999.5
12290.0	2183044595711999.8
12300.0	2170667077631999.8
12310.0	2209434460159999.5
12320.0	2169580068863999.5
12330.0	2194306781183999.5
12340.0	2240077185023999.5
12350.0	2199997689855999.8
12360.0	2238945443839999.5
12370.0	2255372746751999.5
12380.0	2261017051135999.5
12390.0	2235464966143999.5
12400.0	2259586289663999.5
12410.0	2193168822271999.8
12420.0	2188115906559999.5
12430.0	2223487651839999.5
12440.0	2203428769791999.8
12450.0	2308973494271999.5
12460.0	2300654673919999.5
12470.0	2339654201343999.5
12480.0	2302490836991999.5
12490.0	2363285442559999.5
12500.0	2334121189375999.5
12510.0	2367008534527999.5
12520.0	2318843990015999.5
12530.0	2332028858367999.5
12540.0	2424034091007999.5
12550.0	2376877453311999.5
12560.0	2416830038015999.5
12570.0	2481996308479999.5
12580.0	2426140921855999.5
12590.0	2461091729407999.5
12600.0	2468372729855999.5
12610.0	2549870092287999.5
12620.0	2460443693055999.5
12630.0	2504121257983999.5
12640.0	2496433151999999.5
12650.0	2515810299903999.5
12660.0	2555202281471999.5
12670.0	2605549105151999.5
12680.0	2596027736063999.5
12690.0	2643840569343999.5
12700.0	2610349977599999.5
12710.0	2620197195775999.5
12720.0	2682387472383999.5
12730.0	2694846337023999.5
12740.0	2640215326719999.5
12750.0	2635944898559999.5
12760.0	2701417046015999.5
12770.0	2706445484031999.5
12780.0	2694906142719999.5
12790.0	2755407020031999.5
12800.0	2743594237951999.5
12810.0	2737086726143999.5
12820.0	2800104546303999.5
12830.0	2751656521727999.5
12840.0	2784913145855999.0
12850.0	2833428475903999.5
12860.0	2720945020927999.5
12870.0	2838571024383999.5
12880.0	2823112957951999.5
12890.0	2831668854783999.5
12900.0	2898558091263999.5
12910.0	2854782377983999.5
12920.0	2848873836543999.5
12930.0	2884063309823999.5
12940.0	2993392500735999.0
12950.0	2872971436031999.5
12960.0	2979814146047999.5
12970.0	3007583420415999.0
12980.0	3044838629375999.0
12990.0	2997283831807999.5
13000.0	3040808787967999.5
13010.0	3011196346367999.5
13020.0	3074791079935999.0
13030.0	3060529143807999.5
13040.0	3150506672127999.5
13050.0	3113940131839999.5
13060.0	3151407661055999.0
13070.0	3064488583167999.5
13080.0	3110474350591999.5
13090.0	3091069976575999.0
13100.0	3129169043455999.0
13110.0	3182194442239999.5
13120.0	3224801869823999.5
13130.0	3164078530559999.5
13140.0	3176165638143999.5
13150.0	3208831262719999.5
13160.0	3205023031295999.0
13170.0	3237359042559999.5
13180.0	3169820491775999.0
13190.0	3260765609983999.5
13200.0	3216814292991999.5
13210.0	3212492087295999.0
13220.0	3240791416831999.5
13230.0	3253608718335999.0
13240.0	3233444274175999.0
13250.0	3134742052863999.5
13260.0	3255086653439999.5
13270.0	3171086417919999.5
13280.0	3175495122943999.5
13290.0	3222806921215999.0
13300.0	3158309363711999.5
13310.0	3080527421439999.5
13320.0	3002390929407999.5
13330.0	2962530549759999.5
13340.0	3043385393151999.5
13350.0	2832987422719999.5
13360.0	2938841432063999.5
13370.0	2895164649471999.5
13380.0	2908684275711999.5
13390.0	2944998727679999.5
13400.0	2984959066111999.5
13410.0	3037291077631999.5
13420.0	2903860936703999.5
13430.0	2898725969919999.5
13440.0	3005894475775999.0
13450.0	2937793323007999.5
13460.0	2997398040575999.0
13470.0	2960813592575999.0
13480.0	2910323793919999.5
13490.0	3042914115583999.5
13500.0	3019300724735999.0
13510.0	3005566975999999.5
13520.0	2992475119615999.0
13530.0	3045805662207999.5
13540.0	2934054092799999.5
13550.0	2966678667263999.5
13560.0	3060470292479999.5
13570.0	3064444682239999.5
13580.0	3049677520895999.0
13590.0	3050633007103999.5
13600.0	3077456449535999.0
13610.0	3109751463935999.0
13620.0	3010748448767999.5
13630.0	3174638174207999.5
13640.0	3147294318591999.5
13650.0	3138506031103999.5
13660.0	3183200968703999.5
13670.0	3148194865151999.5
13680.0	3152019660799999.5
13690.0	3151053275135999.0
13700.0	3165007593471999.5
13710.0	3131493908479999.5
13720.0	3187166019583999.5
13730.0	3213038370815999.0
13740.0	3177264758783999.5
13750.0	3202918924287999.5
13760.0	3236615364607999.5
13770.0	3209698729983999.5
13780.0	3326058741759999.5
13790.0	3263734562815999.0
13800.0	3343838707711999.5
13810.0	3310483759103999.5
13820.0	3362466119679999.5
13830.0	3241290113023999.5
13840.0	3371342364671999.5
13850.0	3328683663359999.5
13860.0	3348606394367999.5
13870.0	3361045061631999.5
13880.0	3334452461567999.5
13890.0	3420115550207999.5
13900.0	3387882061823999.5
13910.0	3351300243455999.0
13920.0	3374144077823999.5
13930.0	3422377918463999.5
13940.0	3382791454719999.5
13950.0	3383864369151999.5
13960.0	3430141951999999.5
13970.0	3448321294335999.0
13980.0	3414067281919999.5
13990.0	3487554125823999.5
14000.0	3404098256895999.0
14010.0	3420710772735999.0
14020.0	3529317531647999.0
14030.0	3484243697663999.5
14040.0	3435512365055999.0
14050.0	3466474168319999.5
14060.0	3610934542335999.0
14070.0	3477171806207999.0
14080.0	3519009193983999.5
14090.0	3508876537855999.0
14100.0	3500590665727999.0
14110.0	3543154024447999.0
14120.0	3485707599871999.5
14130.0	3615420604415999.0
14140.0	3555212083199999.5
14150.0	3540531838975999.0
14160.0	3624228945919999.5
14170.0	3550856011775999.0
14180.0	3520259899391999.5
14190.0	3574766419967999.0
14200.0	3586259476479999.5
14210.0	3618456739839999.5
14220.0	3627018805247999.0
14230.0	3606451806207999.0
14240.0	3629921247231999.5
14250.0	3652064854015999.0
14260.0	3602682699775999.0
14270.0	3692490514431999.5
14280.0	3644794830847999.0
14290.0	3573170724863999.5
14300.0	3799591206911999.5
14310.0	3790202363903999.5
14320.0	3689537732607999.0
14330.0	3698033917951999.5
14340.0	3620712095743999.5
14350.0	3802918658047999.0
14360.0	3808295428095999.0
14370.0	3797315698687999.0
14380.0	3808527745023999.5
14390.0	3821249740799999.5
14400.0	3761448394751999.5
14410.0	3763510493183999.5
14420.0	3791028510719999.5
14430.0	3925466431487999.0
14440.0	3873893703679999.5
14450.0	3799207755775999.0
14460.0	3891276423167999.0
14470.0	3842690269183999.5
14480.0	3938704252927999.0
14490.0	4009511665663999.5
14500.0	3950922113023999.5
14510.0	3861825658879999.5
14520.0	4097866604543999.5
14530.0	4015298666495999.0
14540.0	3914137583615999.0
