# Flux units: erg / (cm m2 s)
# Wavelength units: Angstrom
wave	flux
7000.0	215982088191999.97
7010.0	218654782463999.97
7020.0	221842792447999.94
7030.0	225344305151999.97
7040.0	228503127039999.97
7050.0	231780077567999.94
7060.0	234537707519999.97
7070.0	237615630335999.94
7080.0	241150501887999.94
7090.0	244134463487999.94
7100.0	247149015039999.97
7110.0	250701342719999.97
7120.0	254054630399999.97
7130.0	257005161471999.97
7140.0	260251285503999.97
7150.0	263800989695999.94
7160.0	267379016703999.97
7170.0	270716679167999.94
7180.0	274348483583999.97
7190.0	277936589823999.97
7200.0	281478838271999.94
7210.0	284915574783999.94
7220.0	288640076799999.94
7230.0	292379269119999.94
7240.0	295939036159999.94
7250.0	299755577343999.94
7260.0	303457145855999.94
7270.0	307242257407999.94
7280.0	310998443007999.94
7290.0	314857883647999.94
7300.0	318724112383999.94
7310.0	322454293503999.94
7320.0	326362557439999.94
7330.0	330196435967999.94
7340.0	334100671487999.94
7350.0	338041843711999.94
7360.0	341919545343999.94
7370.0	345895872511999.94
7380.0	349847523327999.94
7390.0	353825882111999.9
7400.0	357908269055999.94
7410.0	361931735039999.94
7420.0	365784811519999.94
7430.0	370103320575999.94
7440.0	374168913919999.94
7450.0	378188269567999.94
7460.0	382212716543999.94
7470.0	386457942015999.94
7480.0	390536429567999.94
7490.0	394441347071999.9
7500.0	398581475327999.94
7510.0	402839904255999.94
7520.0	406754605055999.94
7530.0	410627315711999.9
7540.0	414624339967999.94
7550.0	418656380927999.94
7560.0	422373568511999.9
7570.0	426165583871999.9
7580.0	430286745599999.94
7590.0	433404483583999.94
7600.0	435994681343999.94
7610.0	438310285311999.9
7620.0	440018651135999.9
7630.0	438865377279999.94
7640.0	436124643327999.94
7650.0	431047313407999.94
7660.0	419606761471999.9
7670.0	377970758655999.94
7680.0	437423149055999.9
7690.0	444042235903999.94
7700.0	398833633279999.94
7710.0	453819758591999.9
7720.0	471810666495999.9
7730.0	486633078783999.94
7740.0	499694446591999.9
7750.0	510667630591999.9
7760.0	520348483583999.94
7770.0	528926918655999.9
7780.0	537200607231999.9
7790.0	545292929023999.94
7800.0	541231437823999.94
7810.0	559451521023999.94
7820.0	567980152831999.9
7830.0	575082311679999.9
7840.0	582885595135999.9
7850.0	589963794431999.9
7860.0	597671868415999.9
7870.0	604781805567999.9
7880.0	612279064575999.9
7890.0	619717693439999.9
7900.0	628054827007999.9
7910.0	635312379903999.9
7920.0	642805610495999.9
7930.0	650762086399999.9
7940.0	658217928703999.9
7950.0	648318173183999.9
7960.0	673737379839999.9
7970.0	682114377727999.9
7980.0	690390818815999.9
7990.0	698313727999999.9
8000.0	705733324799999.9
8010.0	714169516031999.9
8020.0	722534662143999.8
8030.0	731040428031999.9
8040.0	738033680383999.8
8050.0	746397691903999.8
8060.0	755847987199999.9
8070.0	763873624063999.8
8080.0	772148981759999.9
8090.0	779971428351999.9
8100.0	790894784511999.9
8110.0	797917552639999.9
8120.0	807961481215999.9
8130.0	817815588863999.8
8140.0	826137976831999.9
8150.0	837389545471999.9
8160.0	845556617215999.9
8170.0	852323504127999.9
8180.0	860349739007999.9
8190.0	863213355007999.9
8200.0	860629295103999.8
8210.0	888933883903999.8
8220.0	901855277055999.9
8230.0	910821617663999.8
8240.0	922104705023999.8
8250.0	927060234239999.9
8260.0	939296976895999.9
8270.0	950400847871999.8
8280.0	958801022975999.9
8290.0	966986608639999.9
8300.0	983127678975999.9
8310.0	989923880959999.9
8320.0	1002648875007999.9
8330.0	1010361954303999.8
8340.0	1022186106879999.9
8350.0	1033341972479999.8
8360.0	1044380467199999.8
8370.0	1054919413759999.8
8380.0	1069506187263999.8
8390.0	1068196052991999.8
8400.0	1082117718015999.9
8410.0	1106169651199999.8
8420.0	1115508203519999.8
8430.0	1125059706879999.8
8440.0	1122557423615999.9
8450.0	1127159672831999.8
8460.0	1133598314495999.8
8470.0	1146770599935999.8
8480.0	1161606246399999.8
8490.0	1170791460863999.8
8500.0	1183969067007999.8
8510.0	1195874312191999.8
8520.0	1206862372863999.8
8530.0	1217195626495999.8
8540.0	1231372247039999.8
8550.0	1249675321343999.8
8560.0	1261002248191999.8
8570.0	1274150207487999.8
8580.0	1289656827903999.8
8590.0	1299156918271999.8
8600.0	1309934735359999.8
8610.0	1318158786559999.8
8620.0	1328903053311999.8
8630.0	1339031748607999.8
8640.0	1350576107519999.8
8650.0	1365338718207999.8
8660.0	1384795176959999.8
8670.0	1397734940671999.8
8680.0	1407657230335999.8
8690.0	1405521780735999.8
8700.0	1389477748735999.8
8710.0	1409511251967999.5
8720.0	1419517517823999.8
8730.0	1449096921087999.5
8740.0	1444913364991999.8
8750.0	1480122138623999.8
8760.0	1512156446719999.8
8770.0	1526155960319999.8
8780.0	1546804805631999.8
8790.0	1551205883903999.8
8800.0	1524579598335999.8
8810.0	1574255615999999.8
8820.0	1613927727103999.8
8830.0	1622427738111999.8
8840.0	1676250292223999.8
8850.0	1651834626047999.5
8860.0	1682170937343999.8
8870.0	1635231776767999.5
8880.0	1669678555135999.8
8890.0	1693073653759999.8
8900.0	1699959570431999.8
8910.0	1750567960575999.8
8920.0	1723019395071999.8
8930.0	1767613071359999.8
8940.0	1796810948607999.5
8950.0	1779932004351999.8
8960.0	1808266625023999.5
8970.0	1824760733695999.8
8980.0	1867961360383999.5
8990.0	1886466056191999.8
9000.0	1912760221695999.8
9010.0	1978066182143999.5
9020.0	1979431452671999.8
9030.0	1952683253759999.8
9040.0	2001188823039999.8
9050.0	2070427803647999.5
9060.0	2016191389695999.8
9070.0	2066315329535999.8
9080.0	2220926926847999.5
9090.0	2163678797823999.5
9100.0	2155839660031999.8
9110.0	2171994071039999.5
9120.0	2283926503423999.5
9130.0	2275471507455999.5
9140.0	2269292781567999.5
9150.0	2339684818943999.5
9160.0	2382933794815999.5
9170.0	2414588280831999.5
9180.0	2362585096191999.5
9190.0	2511800401919999.5
9200.0	2438927015935999.5
9210.0	2358701154303999.5
9220.0	2382399471615999.5
9230.0	2300566855679999.5
9240.0	2387576143871999.5
9250.0	2419376717823999.5
9260.0	2437376589823999.5
9270.0	2429664624639999.5
9280.0	2382869348351999.5
9290.0	2452572381183999.5
9300.0	2443230224383999.5
9310.0	2433855422463999.5
9320.0	2527052562431999.5
9330.0	2487742316543999.5
9340.0	2607949930495999.5
9350.0	2442779074559999.5
9360.0	2595480502271999.5
9370.0	2599760322559999.5
9380.0	2714471276543999.5
9390.0	2638035083263999.5
9400.0	2678800539647999.5
9410.0	2705820155903999.5
9420.0	2831485911039999.5
9430.0	2872508841983999.5
9440.0	2797887225855999.0
9450.0	2873351651327999.5
9460.0	2895225618431999.5
9470.0	2903665803263999.5
9480.0	3078320881663999.5
9490.0	3161958678527999.5
9500.0	2816469712895999.0
9510.0	2992854630399999.5
9520.0	3164782444543999.5
9530.0	3162377650175999.0
9540.0	3292151660543999.5
9550.0	3216650747903999.5
9560.0	3285206433791999.5
9570.0	3165317054463999.5
9580.0	3543563993087999.0
9590.0	3494469222399999.5
9600.0	3384964202495999.0
9610.0	3488202326015999.0
9620.0	3405966655487999.5
9630.0	3699262128127999.0
9640.0	3426610364415999.0
9650.0	3517649403903999.5
9660.0	3748601872383999.5
9670.0	3876264411135999.0
9680.0	3782309740543999.5
9690.0	3717855051775999.0
9700.0	3971650207743999.5
9710.0	3763427213311999.5
9720.0	3845050482687999.0
9730.0	3817005350911999.5
9740.0	3766131523583999.5
9750.0	3897547636735999.0
9760.0	3917949796351999.5
9770.0	3948854247423999.5
9780.0	4006388842495999.0
9790.0	3889090707455999.0
9800.0	4009703194623999.5
9810.0	4002831761407999.0
9820.0	3857245274111999.5
9830.0	3925301444607999.0
9840.0	4109464125439999.5
9850.0	4203468996607999.0
9860.0	4266127130623999.5
9870.0	4253511417855999.0
9880.0	4255737430015999.0
9890.0	4460010029055999.0
9900.0	3359228067839999.5
9910.0	3130275987455999.0
9920.0	3127311663103999.5
9930.0	3232367722495999.0
9940.0	3360364134399999.5
9950.0	3465119662079999.5
9960.0	3473071685631999.5
9970.0	3492816470015999.0
9980.0	3436646383615999.0
9990.0	3436352585727999.5
10000.0	3537771552767999.0
10010.0	3633201602559999.5
10020.0	3671203454975999.0
10030.0	3941523234815999.0
10040.0	3703807721471999.5
10050.0	3816418172927999.0
10060.0	3510182150143999.5
10070.0	3741825310719999.5
10080.0	3939860103167999.0
10090.0	3964000690175999.0
10100.0	4127518392319999.0
10110.0	4024395538431999.5
10120.0	3876413251583999.5
10130.0	3989021818879999.5
10140.0	3868502212607999.0
10150.0	3982461861887999.0
10160.0	3937706475519999.5
10170.0	3957314019327999.0
10180.0	4142587609087999.0
10190.0	4069251866623999.5
10200.0	4073870557183999.5
10210.0	4345237954559999.0
10220.0	4090429759487999.0
10230.0	4248682414079999.0
10240.0	4443865489407999.0
10250.0	4489828089855999.0
10260.0	4152673951743999.5
10270.0	4341282914303999.5
10280.0	4313221128191999.5
10290.0	4430318657535999.0
10300.0	4368736174079999.0
10310.0	4709353316351999.0
10320.0	4499286171647999.0
10330.0	4807180140543999.0
10340.0	4532599586815999.0
10350.0	4772176814079999.0
10360.0	4983969046527999.0
10370.0	5341215113215999.0
10380.0	4976687759359999.0
10390.0	4840481284095999.0
10400.0	5263888621567999.0
10410.0	5596058165247999.0
10420.0	5014708502527999.0
10430.0	4816254009343999.0
10440.0	5646550228991998.0
10450.0	6194199838719999.0
10460.0	6570762764287999.0
10470.0	5009325350911999.0
10480.0	5447413424127999.0
10490.0	6201527566335999.0
10500.0	5955990913023999.0
10510.0	5909259059199999.0
10520.0	5362864570367999.0
10530.0	6257401348095999.0
10540.0	6669746929663999.0
10550.0	6633277112319999.0
10560.0	6341891538943999.0
10570.0	5829252620287999.0
10580.0	6581603131391998.0
10590.0	6696510865407999.0
10600.0	7151906603007999.0
10610.0	7081047113727999.0
10620.0	6532489035775999.0
10630.0	7325651730431998.0
10640.0	7904557039615998.0
10650.0	7296837730303999.0
10660.0	7062101573631998.0
10670.0	6894050639871998.0
10680.0	7484700164095998.0
10690.0	8043208818687999.0
10700.0	7878101598207999.0
10710.0	7748743774207999.0
10720.0	8200045527039999.0
10730.0	8108401147903999.0
10740.0	7713711964159999.0
10750.0	8259035545599998.0
10760.0	8191806930943999.0
10770.0	8866914222079998.0
10780.0	9507983605759998.0
10790.0	9088803815423998.0
10800.0	9106770952191998.0
10810.0	8865350795263999.0
10820.0	8612427104255998.0
10830.0	9052297691135998.0
10840.0	1.0046747115519998e+16
10850.0	9312542244863998.0
10860.0	9049141559295998.0
10870.0	9343215517695998.0
10880.0	1.0153521217535998e+16
10890.0	8426280091647999.0
10900.0	9588460060671998.0
10910.0	9302370729983998.0
10920.0	9828272357375998.0
10930.0	1.0194112511999998e+16
10940.0	9648600252415998.0
10950.0	9807408447487998.0
10960.0	9177622904831998.0
10970.0	9768345354239998.0
10980.0	9119281299455998.0
10990.0	9488518266879998.0
11000.0	9311897862143998.0
11010.0	9731032137727998.0
11020.0	9106575048703998.0
11030.0	8590403878911998.0
11040.0	8664746917887999.0
11050.0	9015797448703998.0
11060.0	8962481307647999.0
11070.0	8584117698559998.0
11080.0	8965375524863999.0
11090.0	8949282914303999.0
11100.0	8678609731583999.0
11110.0	8521640738815998.0
11120.0	9366815391743998.0
11130.0	9651806732287998.0
11140.0	9463961255935998.0
11150.0	9427930759167998.0
11160.0	9599796412415998.0
11170.0	9524603944959998.0
11180.0	1.0453462171647998e+16
11190.0	9632421052415998.0
11200.0	9527617798143998.0
11210.0	9503736299519998.0
11220.0	1.0254784233471998e+16
11230.0	1.0150041780223998e+16
11240.0	1.0669447839743998e+16
11250.0	1.0471334903807998e+16
11260.0	1.0749670604799998e+16
11270.0	1.0476332072959998e+16
11280.0	1.0839001628671998e+16
11290.0	1.0889554231295998e+16
11300.0	1.0136563122175998e+16
11310.0	1.1326927618047998e+16
11320.0	1.1255246553087998e+16
11330.0	1.0545705369599998e+16
11340.0	1.0244148297727998e+16
11350.0	9518598946815998.0
11360.0	1.0317153304575998e+16
11370.0	1.0211592044543998e+16
11380.0	8508572893183999.0
11390.0	9194813079551998.0
11400.0	9158036144127998.0
11410.0	8212963721215998.0
11420.0	1.0304412368895998e+16
11430.0	1.0483930447871998e+16
11440.0	1.0689527791615998e+16
11450.0	1.1525701763071998e+16
11460.0	1.1876687216639998e+16
11470.0	1.1540855488511998e+16
11480.0	1.0730150756351998e+16
11490.0	1.2551458537471998e+16
11500.0	1.2995471392767998e+16
11510.0	1.2352706641919998e+16
11520.0	1.2566816374783996e+16
11530.0	1.2024317853695998e+16
11540.0	1.1778979233791998e+16
11550.0	1.3094322667519998e+16
11560.0	1.2695759355903996e+16
11570.0	1.2569062506495998e+16
11580.0	1.2774166036479998e+16
11590.0	1.2529123131391998e+16
11600.0	1.2097868038143996e+16
11610.0	1.1215736700927998e+16
11620.0	1.2419590406143996e+16
11630.0	1.3100495323135998e+16
11640.0	1.1602844483583996e+16
11650.0	1.3006337998847998e+16
11660.0	1.1687097401343996e+16
11670.0	1.2190718230527998e+16
11680.0	1.0918741278719998e+16
11690.0	8430585790463999.0
11700.0	9621765832703998.0
11710.0	1.1428566122495998e+16
11720.0	1.2416402980863996e+16
11730.0	1.2543035473919998e+16
11740.0	1.2065858486271998e+16
11750.0	1.1754693197823996e+16
11760.0	1.0712752373759998e+16
11770.0	8909940654079998.0
11780.0	8472310644735998.0
11790.0	1.0800437755903998e+16
11800.0	1.2057098059775998e+16
11810.0	1.2569797656575998e+16
11820.0	1.2894124572671998e+16
11830.0	1.3455555559423996e+16
11840.0	1.3468948660223996e+16
11850.0	1.3877501886463996e+16
11860.0	1.3794126692351998e+16
11870.0	1.4116550803455998e+16
11880.0	1.3528448892927998e+16
11890.0	1.2422656196607998e+16
11900.0	1.4478145683455998e+16
11910.0	1.4726440353791996e+16
11920.0	1.5189683634175998e+16
11930.0	1.4959685500927998e+16
11940.0	1.3984330776575998e+16
11950.0	1.4089470607359998e+16
11960.0	1.4074646396927998e+16
11970.0	1.2637147496447998e+16
11980.0	1.1752111112191998e+16
11990.0	1.3299046285311998e+16
12000.0	1.3314136866815998e+16
12010.0	1.3698845638655998e+16
12020.0	1.3640711798783996e+16
12030.0	1.4108353462271996e+16
12040.0	1.5232320667647998e+16
12050.0	1.4711163682815998e+16
12060.0	1.7300426031103996e+16
12070.0	1.4902465560575998e+16
12080.0	1.7002005233663996e+16
12090.0	1.4386823626751996e+16
12100.0	1.6357299585023996e+16
12110.0	1.4542842134527998e+16
12120.0	1.5367948304383996e+16
12130.0	1.6303278227455998e+16
12140.0	1.7060998447103996e+16
12150.0	1.7243817672703996e+16
12160.0	1.6876801048575998e+16
12170.0	1.7000917221375998e+16
12180.0	1.7171318374399996e+16
12190.0	1.7344423460863996e+16
12200.0	1.6604453339135998e+16
12210.0	1.6348565602303996e+16
12220.0	1.6578663415807998e+16
12230.0	1.6283589640191996e+16
12240.0	1.7007262826495998e+16
12250.0	1.8485839233023996e+16
12260.0	1.8086443384831996e+16
12270.0	1.8109517398015996e+16
12280.0	1.8858785734655996e+16
12290.0	1.8137579290623996e+16
12300.0	1.8426217627647996e+16
12310.0	1.8859131764735996e+16
12320.0	1.7825767882751996e+16
12330.0	1.8097261674495996e+16
12340.0	1.8186934091775996e+16
12350.0	1.7818674429951996e+16
12360.0	1.7837413826559996e+16
12370.0	1.8466580299775996e+16
12380.0	1.8056117878783996e+16
12390.0	1.7862797066239996e+16
12400.0	1.8103089364991996e+16
12410.0	1.5925399912447998e+16
12420.0	1.5947931189247998e+16
12430.0	1.3691868512255998e+16
12440.0	1.2645216714751998e+16
12450.0	1.7253654888447998e+16
12460.0	1.7493272199167998e+16
12470.0	1.7506588557311996e+16
12480.0	1.7713729863679996e+16
12490.0	1.8024856420351996e+16
12500.0	1.6064238682111996e+16
12510.0	1.6833962967039996e+16
12520.0	1.3081691963391998e+16
12530.0	1.2744918876159998e+16
12540.0	1.7182165532671996e+16
12550.0	1.8125138493439996e+16
12560.0	1.7551450439679996e+16
12570.0	2.0190021287935996e+16
12580.0	1.8548839514111996e+16
12590.0	1.9273637036031996e+16
12600.0	1.9910471548927996e+16
12610.0	2.0158761369599996e+16
12620.0	1.8896548921343996e+16
12630.0	2.0446944854015996e+16
12640.0	1.8613599600639996e+16
12650.0	1.9682449457151996e+16
12660.0	1.9438850244607996e+16
12670.0	2.0969873539071996e+16
12680.0	2.0635614904319996e+16
12690.0	2.1546830594047996e+16
12700.0	2.0611584884735996e+16
12710.0	2.1860530257919996e+16
12720.0	2.2305221115903996e+16
12730.0	2.269344877772799e+16
12740.0	2.1287587348479996e+16
12750.0	2.0039806418943996e+16
12760.0	2.2369306968063996e+16
12770.0	2.1749216608255996e+16
12780.0	2.1914823294975996e+16
12790.0	2.3271107461119996e+16
12800.0	2.1742733557759996e+16
12810.0	2.2224806477823996e+16
12820.0	2.2202891960319996e+16
12830.0	2.1851978104831996e+16
12840.0	2.2628017668095996e+16
12850.0	2.2175523766271996e+16
12860.0	2.0281442435071996e+16
12870.0	2.1142682370047996e+16
12880.0	2.1336543264767996e+16
12890.0	2.1640978333695996e+16
12900.0	2.2382174306303996e+16
12910.0	2.2646130933759996e+16
12920.0	2.1557175877631996e+16
12930.0	1.9284941701119996e+16
12940.0	2.3112524038143996e+16
12950.0	2.2191089516543996e+16
12960.0	2.5585739694079996e+16
12970.0	2.3997753393151996e+16
12980.0	2.415222082764799e+16
12990.0	2.3387538849791996e+16
13000.0	2.4520006172671996e+16
13010.0	2.3192842534911996e+16
13020.0	2.3774046191615996e+16
13030.0	2.3359042289663996e+16
13040.0	2.4111515238399996e+16
13050.0	2.2702172012543996e+16
13060.0	2.544838970572799e+16
13070.0	2.2186179919871996e+16
13080.0	2.545554902220799e+16
13090.0	2.3338658824191996e+16
13100.0	2.4085903245311996e+16
13110.0	2.464293407948799e+16
13120.0	2.522947177676799e+16
13130.0	2.3901211983871996e+16
13140.0	2.416063237324799e+16
13150.0	2.5186817605631996e+16
13160.0	2.4306099945471996e+16
13170.0	2.4420458889215996e+16
13180.0	2.3856325918719996e+16
13190.0	2.552484416716799e+16
13200.0	2.2664403091455996e+16
13210.0	2.408564706508799e+16
13220.0	2.3750982500351996e+16
13230.0	2.406512970956799e+16
13240.0	2.2794271916031996e+16
13250.0	2.1660830760959996e+16
13260.0	2.3752329887743996e+16
13270.0	2.0979152715775996e+16
13280.0	2.2175718440959996e+16
13290.0	2.1805018382335996e+16
13300.0	2.1124965629951996e+16
13310.0	1.9168007127039996e+16
13320.0	1.5634870206463996e+16
13330.0	1.7511155236863996e+16
13340.0	1.7357936001023996e+16
13350.0	1.3066476322815998e+16
13360.0	1.3583127511039998e+16
13370.0	1.2829333323775998e+16
13380.0	1.3018868056063996e+16
13390.0	1.3616483893247998e+16
13400.0	1.3715890110463996e+16
13410.0	1.4923586863103996e+16
13420.0	1.2928535494655998e+16
13430.0	1.2793997819903996e+16
13440.0	1.4079313739775998e+16
13450.0	1.3223262846975998e+16
13460.0	1.4628935876607998e+16
13470.0	1.3225600434175998e+16
13480.0	1.2080594059263996e+16
13490.0	1.4025388326911996e+16
13500.0	1.3899196661759998e+16
13510.0	1.3438421041151998e+16
13520.0	1.2960497418239998e+16
13530.0	1.4302992941055998e+16
13540.0	1.2475942600703996e+16
13550.0	1.2648077033471998e+16
13560.0	1.3575898693631998e+16
13570.0	1.3660190867455998e+16
13580.0	1.3719050682367998e+16
13590.0	1.3990165020671996e+16
13600.0	1.4192013770751996e+16
13610.0	1.4008279859199998e+16
13620.0	1.2627405504511998e+16
13630.0	1.5045175345151996e+16
13640.0	1.5348526022655998e+16
13650.0	1.4236684058623996e+16
13660.0	1.5874013134847998e+16
13670.0	1.5085175734271996e+16
13680.0	1.4923613634559998e+16
13690.0	1.4419828965375998e+16
13700.0	1.5180560138239998e+16
13710.0	1.4728239513599998e+16
13720.0	1.5452187262975998e+16
13730.0	1.5257242796031996e+16
13740.0	1.5438883487743996e+16
13750.0	1.5824564944895998e+16
13760.0	1.6108146098175998e+16
13770.0	1.5805356277759998e+16
13780.0	1.6426765484031996e+16
13790.0	1.6258351103999998e+16
13800.0	1.7354115416063996e+16
13810.0	1.5359526436863996e+16
13820.0	1.6856873336831996e+16
13830.0	1.4074818559999998e+16
13840.0	1.6934733217791996e+16
13850.0	1.5289325223935998e+16
13860.0	1.5025217503231996e+16
13870.0	1.7334681436159996e+16
13880.0	1.4857381085183996e+16
13890.0	1.6410371424255998e+16
13900.0	1.5633430380543996e+16
13910.0	1.4838734389247998e+16
13920.0	1.4918963068927998e+16
13930.0	1.5358598545407998e+16
13940.0	1.5159456366591996e+16
13950.0	1.4865121640447998e+16
13960.0	1.4849135247359998e+16
13970.0	1.5117095829503996e+16
13980.0	1.4542195687423996e+16
13990.0	1.5581099294719998e+16
14000.0	1.4828759023615998e+16
14010.0	1.4307072344063996e+16
14020.0	1.6266418552831996e+16
14030.0	1.6054809165823996e+16
14040.0	1.5184163831807998e+16
14050.0	1.4804892155903996e+16
14060.0	1.8052358897663996e+16
14070.0	1.4875709997055998e+16
14080.0	1.5259789361151996e+16
14090.0	1.4724455956479998e+16
