# Flux units: erg / (cm m2 s)
# Wavelength units: Angstrom
wave	flux
7000.0	2128017.8375244136
7010.0	2144604.042053222
7020.0	2193848.7472534175
7030.0	2237019.9737548823
7040.0	2260267.471313476
7050.0	2305467.92602539
7060.0	2281917.7398681636
7070.0	2308311.6378784175
7080.0	2356040.1077270503
7090.0	2376213.081359863
7100.0	2404197.1817016597
7110.0	2444471.6339111323
7120.0	2478701.118469238
7130.0	2497055.931091308
7140.0	2526120.5444335933
7150.0	2563261.711120605
7160.0	2606077.514648437
7170.0	2636575.4089355464
7180.0	2678868.4387207027
7190.0	2718172.042846679
7200.0	2756427.5054931636
7210.0	2785735.305786132
7220.0	2834450.073242187
7230.0	2874584.411621093
7240.0	2909092.407226562
7250.0	2962997.406005859
7260.0	2998615.1885986323
7270.0	3041826.019287109
7280.0	3093723.724365234
7290.0	3132835.128784179
7300.0	3199498.413085937
7310.0	3228402.191162109
7320.0	3304133.148193359
7330.0	3349306.503295898
7340.0	3355261.9934082027
7350.0	3372737.5183105464
7360.0	3423968.7347412105
7370.0	3491352.6763916006
7380.0	3515959.564208984
7390.0	3538995.4681396475
7400.0	3585247.650146484
7410.0	3618025.451660156
7420.0	3636950.5920410147
7430.0	3700168.1976318355
7440.0	3746160.2325439444
7450.0	3763430.5419921866
7460.0	3812808.654785156
7470.0	3860826.7211914053
7480.0	3900992.324829101
7490.0	3955959.7473144527
7500.0	4010704.0557861323
7510.0	4043583.96911621
7520.0	4090643.0206298823
7530.0	4146193.5272216788
7540.0	4191243.8659667964
7550.0	4241959.960937499
7560.0	4289390.93017578
7570.0	4338585.43395996
7580.0	4377633.8958740225
7590.0	4406494.873046874
7600.0	4426815.002441405
7610.0	4458715.6829833975
7620.0	4482294.113159179
7630.0	4456932.495117187
7640.0	4392408.264160155
7650.0	4254518.70727539
7660.0	4036641.021728515
7670.0	3635872.9171752925
7680.0	4244866.378784179
7690.0	4327572.1282958975
7700.0	3797910.0341796866
7710.0	4433318.862915038
7720.0	4738034.515380858
7730.0	4953769.073486327
7740.0	5111499.8626708975
7750.0	5220847.778320312
7760.0	5317787.536621093
7770.0	5388427.673339843
7780.0	5482659.48486328
7790.0	5552617.858886718
7800.0	5523041.900634765
7810.0	5742362.976074218
7820.0	5819617.49267578
7830.0	5862701.32446289
7840.0	5932693.481445312
7850.0	6002534.210205077
7860.0	6105931.365966795
7870.0	6160404.937744139
7880.0	6302129.119873046
7890.0	6392196.228027343
7900.0	6451824.920654295
7910.0	6521814.880371093
7920.0	6519316.589355468
7930.0	6642185.058593749
7940.0	6747200.073242186
7950.0	6671319.97680664
7960.0	6954550.3845214825
7970.0	7003104.736328124
7980.0	7086985.046386718
7990.0	7139970.611572264
8000.0	7253491.149902343
8010.0	7293151.580810546
8020.0	7431107.849121092
8030.0	7537981.933593748
8040.0	7638155.273437498
8050.0	7661568.450927733
8060.0	7781827.667236326
8070.0	7924274.169921874
8080.0	8071442.291259765
8090.0	8188775.390624998
8100.0	8428679.779052733
8110.0	8515042.44995117
8120.0	8680725.21972656
8130.0	8954014.038085936
8140.0	9117959.747314451
8150.0	9353273.345947264
8160.0	9534275.115966795
8170.0	9621853.546142576
8180.0	9834782.470703123
8190.0	9586077.819824217
8200.0	9248388.946533201
8210.0	9392440.521240233
8220.0	9893690.155029295
8230.0	9854081.35986328
8240.0	10148563.476562498
8250.0	10074567.138671873
8260.0	10295260.620117186
8270.0	10439600.280761717
8280.0	10291485.96191406
8290.0	9995494.506835936
8300.0	10654355.224609373
8310.0	10403502.685546873
8320.0	10599251.037597653
8330.0	10893884.277343748
8340.0	10943495.971679686
8350.0	10789791.198730465
8360.0	10953286.74316406
8370.0	11126846.374511717
8380.0	11447905.57861328
8390.0	11055849.91455078
8400.0	11323924.377441404
8410.0	12448201.96533203
8420.0	12102958.435058592
8430.0	12136707.458496092
8440.0	11304401.67236328
8450.0	11183632.263183592
8460.0	11236341.552734373
8470.0	11340412.292480467
8480.0	11520289.916992186
8490.0	11610671.142578123
8500.0	11804366.394042965
8510.0	11889093.505859373
8520.0	12050557.006835936
8530.0	12109513.732910154
8540.0	12174683.41064453
8550.0	12445655.88378906
8560.0	12655026.550292967
8570.0	12745603.881835934
8580.0	12985831.909179686
8590.0	12882497.802734371
8600.0	12943459.106445309
8610.0	13117933.41064453
8620.0	13325596.80175781
8630.0	13413453.308105465
8640.0	13470375.671386717
8650.0	13580003.05175781
8660.0	13842038.024902342
8670.0	13942542.663574215
8680.0	13921544.738769528
8690.0	13956064.453124998
8700.0	13791661.25488281
8710.0	13951471.00830078
8720.0	14104146.850585934
8730.0	14519378.05175781
8740.0	14487046.142578121
8750.0	14824340.026855465
8760.0	15362386.474609371
8770.0	15441281.494140623
8780.0	15789192.138671871
8790.0	15959276.672363278
8800.0	15691532.104492184
8810.0	16512956.542968746
8820.0	16929100.03662109
8830.0	17183525.085449215
8840.0	18169535.217285153
8850.0	17857418.518066403
8860.0	17839610.351562496
8870.0	16455301.147460934
8880.0	16621490.905761715
8890.0	17269772.766113278
8900.0	17306039.67285156
8910.0	18272371.093749996
8920.0	17486296.691894528
8930.0	18604544.06738281
8940.0	18455714.721679684
8950.0	18362708.801269528
8960.0	18341380.00488281
8970.0	18951956.29882812
8980.0	19527990.051269528
8990.0	19679572.50976562
9000.0	20408381.164550778
9010.0	21734667.236328118
9020.0	21618035.644531246
9030.0	20727991.94335937
9040.0	20978600.769042965
9050.0	23158631.652832028
9060.0	22360030.151367184
9070.0	22634625.732421868
9080.0	28008145.26367187
9090.0	25469767.456054684
9100.0	24594187.74414062
9110.0	25584375.366210934
9120.0	28748161.254882805
9130.0	28158510.49804687
9140.0	27091401.611328118
9150.0	29522249.999999993
9160.0	31179466.91894531
9170.0	31478514.526367184
9180.0	29657182.861328118
9190.0	33763484.985351555
9200.0	31218077.392578118
9210.0	27301150.390624993
9220.0	25961212.52441406
9230.0	25104487.06054687
9240.0	24748711.425781243
9250.0	25677811.27929687
9260.0	25642710.937499996
9270.0	25754204.22363281
9280.0	24374528.56445312
9290.0	24973146.484374996
9300.0	24999218.99414062
9310.0	24773872.80273437
9320.0	26050011.474609368
9330.0	25302718.383789055
9340.0	27483787.109374993
9350.0	25149986.93847656
9360.0	26848406.860351555
9370.0	26559193.48144531
9380.0	28449205.32226562
9390.0	27548789.79492187
9400.0	28781467.40722656
9410.0	28560236.69433593
9420.0	31479954.833984368
9430.0	31369788.33007812
9440.0	29945958.25195312
9450.0	30396706.787109368
9460.0	32201297.24121093
9470.0	30539290.039062493
9480.0	34097309.692382805
9490.0	36922834.83886718
9500.0	31363686.157226555
9510.0	32878529.66308593
9520.0	35850797.85156249
9530.0	35682036.98730468
9540.0	38631365.23437499
9550.0	36561443.11523437
9560.0	37434412.59765624
9570.0	36675076.17187499
9580.0	43804306.39648436
9590.0	42104983.886718735
9600.0	39115583.49609374
9610.0	42102334.960937485
9620.0	39434543.70117187
9630.0	46010983.64257811
9640.0	40860210.69335937
9650.0	43797774.78027343
9660.0	46981618.286132805
9670.0	49061529.78515624
9680.0	49367665.77148436
9690.0	48532334.47265624
9700.0	51799322.265624985
9710.0	48090794.433593735
9720.0	49679792.96874999
9730.0	45273074.707031235
9740.0	44232983.88671874
9750.0	45323550.781249985
9760.0	47014739.01367187
9770.0	45724184.08203124
9780.0	47693655.02929687
9790.0	48441204.589843735
9800.0	49146604.49218749
9810.0	46978610.83984374
9820.0	42760938.476562485
9830.0	44808811.76757812
9840.0	47915877.19726562
9850.0	48466793.70117187
9860.0	49866742.18749999
9870.0	51689178.222656235
9880.0	48865138.30566405
9890.0	55091423.950195305
9900.0	35115041.87011718
9910.0	30459987.182617184
9920.0	30902272.09472656
9930.0	32461562.62207031
9940.0	34179871.215820305
9950.0	35502706.176757805
9960.0	35827518.92089843
9970.0	37748620.239257805
9980.0	35747855.102539055
9990.0	34359623.77929687
10000.0	36577748.10791015
10010.0	37336721.37451171
10020.0	38138065.61279296
10030.0	41845989.13574217
10040.0	38101682.12890624
10050.0	40642058.10546874
10060.0	35721526.000976555
10070.0	39243191.58935546
10080.0	42582301.94091796
10090.0	41917421.08154296
10100.0	46452712.34130859
10110.0	42150015.38085937
10120.0	42107443.35937499
10130.0	44794183.227539055
10140.0	40030260.74218749
10150.0	45521017.45605468
10160.0	41661754.63867187
10170.0	41201129.63867187
10180.0	47112040.1611328
10190.0	43696014.282226555
10200.0	42399949.340820305
10210.0	48606428.46679687
10220.0	42479531.372070305
10230.0	46815617.55371093
10240.0	50548266.235351555
10250.0	48648465.026855454
10260.0	42523355.89599609
10270.0	44402716.06445312
10280.0	43540629.699707024
10290.0	46724293.64013671
10300.0	45311146.24023437
10310.0	50780419.43359374
10320.0	46946103.51562499
10330.0	51241511.47460937
10340.0	47813537.10937499
10350.0	51486808.10546874
10360.0	54442124.38964842
10370.0	56619837.64648437
10380.0	53996170.89843749
10390.0	51735093.01757812
10400.0	56436558.7158203
10410.0	64418392.21191405
10420.0	53353043.0908203
10430.0	49038175.903320305
10440.0	61899896.97265624
10450.0	68450704.71191405
10460.0	80102294.0673828
10470.0	50619457.03124999
10480.0	56479199.95117187
10490.0	68034325.07324217
10500.0	65454827.636718735
10510.0	62515107.055664055
10520.0	53940685.668945305
10530.0	73374422.36328124
10540.0	72783796.9970703
10550.0	74048252.80761717
10560.0	63853332.03124999
10570.0	57775186.523437485
10580.0	77526349.36523436
10590.0	74511080.44433592
10600.0	79953275.5126953
10610.0	71989491.94335936
10620.0	65852166.38183593
10630.0	78885880.73730467
10640.0	95481598.14453124
10650.0	86362862.79296874
10660.0	80143438.47656249
10670.0	68987494.14062499
10680.0	86031717.52929686
10690.0	96736276.36718747
10700.0	88942643.79882811
10710.0	93805381.34765624
10720.0	103628088.62304686
10730.0	92107375.24414061
10740.0	101870155.15136716
10750.0	104835171.26464841
10760.0	109957747.07031249
10770.0	117027580.3222656
10780.0	125866667.96874999
10790.0	116479288.69628903
10800.0	117242791.62597655
10810.0	109862703.49121092
10820.0	111631931.51855466
10830.0	124078460.93749999
10840.0	137654344.9707031
10850.0	126902901.6113281
10860.0	122462618.89648436
10870.0	121750886.23046874
10880.0	134845346.19140622
10890.0	108007327.88085936
10900.0	123411096.19140622
10910.0	121208363.28124999
10920.0	128559035.15624997
10930.0	128331962.89062497
10940.0	124091025.39062497
10950.0	127500364.86816405
10960.0	114410786.98730467
10970.0	126020974.60937499
10980.0	117072934.57031249
10990.0	118254235.10742186
11000.0	114537712.1582031
11010.0	121503816.40624999
11020.0	119653744.62890622
11030.0	103413111.57226561
11040.0	105054871.3378906
11050.0	109163411.62109372
11060.0	105899927.24609374
11070.0	101097459.71679686
11080.0	106040165.03906249
11090.0	109100886.47460936
11100.0	102867090.08789061
11110.0	100909954.2236328
11120.0	112380432.7392578
11130.0	116604279.4189453
11140.0	110013677.61230467
11150.0	111991165.2832031
11160.0	116634908.44726561
11170.0	110700285.4003906
11180.0	128677710.93749997
11190.0	116884385.74218747
11200.0	111632886.47460935
11210.0	112516327.75878905
11220.0	123631515.25878903
11230.0	122075435.79101561
11240.0	131661079.58984374
11250.0	129817794.43359374
11260.0	132634324.95117185
11270.0	128790119.87304686
11280.0	133661362.79296874
11290.0	133745819.33593749
11300.0	121842169.67773436
11310.0	138269798.46191403
11320.0	134698716.1865234
11330.0	130173407.95898435
11340.0	123729514.16015622
11350.0	107769810.30273435
11360.0	129782812.01171872
11370.0	129504804.93164061
11380.0	106243299.19433592
11390.0	120934144.89746092
11400.0	123695191.89453124
11410.0	105773412.35351561
11420.0	134385660.15624997
11430.0	132417382.81249997
11440.0	123579301.26953122
11450.0	141974591.0644531
11460.0	146896126.2207031
11470.0	138174440.91796872
11480.0	131345193.84765622
11490.0	155559530.76171872
11500.0	156536344.72656247
11510.0	149468499.75585935
11520.0	152514002.44140622
11530.0	146121986.5722656
11540.0	140018054.19921872
11550.0	161973770.99609372
11560.0	157647961.66992185
11570.0	153780848.38867185
11580.0	157478379.88281247
11590.0	160719973.38867185
11600.0	145798191.6503906
11610.0	141767859.86328122
11620.0	156289938.23242185
11630.0	164781109.6191406
11640.0	140684267.57812497
11650.0	169166161.3769531
11660.0	146930214.35546872
11670.0	162600000.48828122
11680.0	152464097.16796872
11690.0	106465295.89843749
11700.0	132638545.41015624
11710.0	156954117.91992185
11720.0	166430830.56640622
11730.0	163357116.4550781
11740.0	157496041.01562497
11750.0	160517271.7285156
11760.0	144405642.33398435
11770.0	115534566.16210935
11780.0	104930469.23828124
11790.0	147011661.86523435
11800.0	160441418.45703122
11810.0	162056723.63281247
11820.0	161855542.48046872
11830.0	170112656.49414057
11840.0	167883288.57421872
11850.0	170471312.25585935
11860.0	169111949.7070312
11870.0	176859613.76953122
11880.0	173408786.62109372
11890.0	155838657.71484372
11900.0	177343039.06249997
11910.0	179935447.02148432
11920.0	183277409.91210932
11930.0	186144791.5039062
11940.0	161190699.95117185
11950.0	158027530.02929685
11960.0	161552677.0019531
11970.0	150699945.06835935
11980.0	136026202.63671872
11990.0	149348683.8378906
12000.0	143179201.90429685
12010.0	147244437.7441406
12020.0	148873918.2128906
12030.0	153005892.57812497
12040.0	175047536.62109372
12050.0	165147665.52734372
12060.0	205020538.5742187
12070.0	170083018.06640622
12080.0	196572286.6210937
12090.0	164647279.78515622
12100.0	192143299.80468744
12110.0	159425891.11328122
12120.0	172695743.6523437
12130.0	180862670.41015622
12140.0	200014572.26562497
12150.0	202504854.9804687
12160.0	196671696.04492185
12170.0	202323835.2050781
12180.0	206159892.57812497
12190.0	205616907.22656247
12200.0	190063829.10156247
12210.0	191530203.61328122
12220.0	188797278.32031247
12230.0	186669305.17578122
12240.0	201682576.66015622
12250.0	225139866.21093747
12260.0	218499258.30078122
12270.0	218300890.1367187
12280.0	229647872.5585937
12290.0	218517405.27343747
12300.0	214519883.78906247
12310.0	226156214.35546872
12320.0	205135354.49218747
12330.0	211233031.7382812
12340.0	221072094.2382812
12350.0	205491075.6835937
12360.0	210079656.24999997
12370.0	221276021.9726562
12380.0	216194911.6210937
12390.0	202494495.11718747
12400.0	209856795.89843744
12410.0	175762608.8867187
12420.0	174202148.43749997
12430.0	173837583.00781247
12440.0	157199171.38671872
12450.0	216928387.45117185
12460.0	210073933.34960932
12470.0	216357532.71484372
12480.0	203782634.27734372
12490.0	219222660.15624994
12500.0	197995472.16796872
12510.0	215356419.92187494
12520.0	172444214.84374997
12530.0	172550033.93554685
12540.0	225404092.77343747
12550.0	210546368.16406247
12560.0	215023817.8710937
12570.0	245691961.91406244
12580.0	218471344.72656244
12590.0	226435266.11328122
12600.0	231592286.6210937
12610.0	251510699.7070312
12620.0	218953512.2070312
12630.0	230233332.51953122
12640.0	217383827.14843744
12650.0	227602762.69531244
12660.0	237266326.66015622
12670.0	252396956.54296872
12680.0	242280628.90624994
12690.0	262857768.0664062
12700.0	242335032.71484372
12710.0	249886544.92187494
12720.0	268490007.81249994
12730.0	268733457.03124994
12740.0	244780124.51171872
12750.0	234536221.67968747
12760.0	262497148.43749994
12770.0	253960817.38281244
12780.0	252666069.33593744
12790.0	269713597.1679687
12800.0	260765038.81835935
12810.0	254640201.41601557
12820.0	265905619.6289062
12830.0	253058446.7773437
12840.0	262669107.9101562
12850.0	268713901.36718744
12860.0	233158764.64843747
12870.0	260888047.85156247
12880.0	257307426.2695312
12890.0	260091691.8945312
12900.0	273922358.8867187
12910.0	265693860.83984372
12920.0	259889280.76171872
12930.0	248260715.82031247
12940.0	285835084.96093744
12950.0	258886302.24609372
12960.0	298761903.32031244
12970.0	291541800.2929687
12980.0	295749498.5351562
12990.0	280226187.49999994
13000.0	296619566.8945312
13010.0	281587142.57812494
13020.0	294941424.80468744
13030.0	287787062.9882812
13040.0	300807468.74999994
13050.0	286715556.1523437
13060.0	309977638.67187494
13070.0	273719814.45312494
13080.0	299606920.4101562
13090.0	281502217.77343744
13100.0	290321990.23437494
13110.0	303853353.51562494
13120.0	307382459.4726562
13130.0	291212926.2695312
13140.0	294038953.12499994
13150.0	303034337.89062494
13160.0	295610217.77343744
13170.0	298056150.39062494
13180.0	281275120.6054687
13190.0	304092035.6445312
13200.0	277003062.49999994
13210.0	287131298.3398437
13220.0	280371753.90624994
13230.0	287434587.89062494
13240.0	273345736.8164062
13250.0	249616796.87499994
13260.0	279807862.30468744
13270.0	246587065.91796872
13280.0	255866458.98437494
13290.0	259254648.92578122
13300.0	242356526.85546872
13310.0	217612969.48242182
13320.0	179094759.52148435
13330.0	181243567.38281247
13340.0	194779525.87890622
13350.0	131017310.05859374
13360.0	149755297.1191406
13370.0	138857550.0488281
13380.0	140822703.61328122
13390.0	148927276.6113281
13400.0	160393547.36328122
13410.0	166162767.57812494
13420.0	137743912.10937497
13430.0	132697307.8613281
13440.0	155734200.68359372
13450.0	141136153.07617185
13460.0	155299507.93457028
13470.0	141735574.09667966
13480.0	129341635.00976561
13490.0	158089981.44531247
13500.0	149540683.8378906
13510.0	142627389.16015622
13520.0	136436659.91210935
13530.0	152164612.79296872
13540.0	125448866.94335935
13550.0	131991853.27148436
13560.0	146457770.50781247
13570.0	146622758.78906247
13580.0	142238661.86523435
13590.0	144935263.67187497
13600.0	148265693.84765622
13610.0	148270179.44335935
13620.0	126430371.58203124
13630.0	158489414.79492185
13640.0	155826122.3144531
13650.0	146408315.42968747
13660.0	159544816.89453122
13670.0	150784172.36328122
13680.0	151345097.16796872
13690.0	144855181.8847656
13700.0	149311800.53710935
13710.0	142805410.15624997
13720.0	151640845.45898435
13730.0	151776630.85937497
13740.0	147905008.30078122
13750.0	153106792.96874997
13760.0	156448045.41015622
13770.0	150736365.23437497
13780.0	167518620.60546872
13790.0	156541590.33203122
13800.0	174263997.3144531
13810.0	158242885.74218747
13820.0	173440649.16992185
13830.0	142924694.5800781
13840.0	169860441.6503906
13850.0	161042138.67187497
13860.0	158558367.67578122
13870.0	168927064.20898435
13880.0	151807576.4160156
13890.0	174628305.41992185
13900.0	159940622.07031247
13910.0	148081969.23828122
13920.0	154885025.87890622
13930.0	158522244.87304685
13940.0	153823107.6660156
13950.0	152480415.52734372
13960.0	155476684.08203122
13970.0	156350606.93359372
13980.0	146672489.5019531
13990.0	157863886.9628906
14000.0	148640287.3535156
14010.0	145297634.27734372
14020.0	164561580.3222656
14030.0	158683176.26953122
14040.0	147758024.90234372
14050.0	151247653.07617185
14060.0	179788138.67187494
14070.0	146698928.71093747
14080.0	150832158.69140622
14090.0	150535049.43847653
14100.0	151107032.34863278
14110.0	152751613.76953122
14120.0	142293903.07617185
14130.0	162570885.0097656
14140.0	150355837.1582031
14150.0	149480608.88671872
14160.0	161204867.18749997
14170.0	147499725.8300781
14180.0	139781363.76953122
14190.0	147733322.5097656
14200.0	152687685.54687497
14210.0	155207377.44140622
14220.0	149459274.90234372
14230.0	150489556.8847656
14240.0	145309932.37304685
14250.0	151369742.67578122
14260.0	142887824.21874997
14270.0	154276588.37890622
14280.0	148491912.10937497
14290.0	134821542.48046872
14300.0	168170631.59179685
14310.0	166114976.56249997
14320.0	148468858.39843747
14330.0	153215316.6503906
14340.0	137344127.44140622
14350.0	165177174.31640622
14360.0	161397821.28906247
14370.0	155884612.30468747
14380.0	161673094.72656247
14390.0	162504688.96484372
14400.0	153254311.27929685
14410.0	149578478.51562497
14420.0	153271333.98437497
14430.0	169250531.00585935
14440.0	166514928.2226562
14450.0	147351167.72460935
14460.0	165514776.12304685
14470.0	152346460.44921872
14480.0	166194052.73437497
14490.0	176872827.14843747
14500.0	161720793.45703122
14510.0	151073515.62499997
14520.0	189746462.40234372
14530.0	174161524.9023437
14540.0	155516425.78124997
14550.0	184288776.36718747
14560.0	162752323.73046872
14570.0	156563036.86523435
14580.0	176423012.93945307
14590.0	182355489.99023435
14600.0	180659720.45898435
