# Flux units: erg / (cm m2 s)
# Wavelength units: Angstrom
wave	flux
7000.0	1272688.739776611
7010.0	1290182.2967529295
7020.0	1308864.8376464841
7030.0	1327803.3218383787
7040.0	1346275.680541992
7050.0	1365254.211425781
7060.0	1382684.0362548826
7070.0	1401634.2010498045
7080.0	1421749.786376953
7090.0	1440803.9016723628
7100.0	1460346.0922241209
7110.0	1480732.8720092769
7120.0	1500962.4252319334
7130.0	1520688.194274902
7140.0	1541015.5258178709
7150.0	1562045.3338623045
7160.0	1583318.092346191
7170.0	1604297.8057861326
7180.0	1626080.1696777341
7190.0	1647949.6612548826
7200.0	1669892.753601074
7210.0	1691640.4113769527
7220.0	1714457.984924316
7230.0	1737162.2314453123
7240.0	1759652.0385742183
7250.0	1783281.8374633784
7260.0	1806287.3306274412
7270.0	1829874.9389648435
7280.0	1853886.1312866209
7290.0	1877816.9784545894
7300.0	1902820.472717285
7310.0	1926673.0728149412
7320.0	1952389.297485351
7330.0	1977226.3336181636
7340.0	2000993.7210083003
7350.0	2025227.4932861326
7360.0	2050919.9066162105
7370.0	2077375.1754760738
7380.0	2102639.221191406
7390.0	2127850.448608398
7400.0	2154351.409912109
7410.0	2180471.8093872066
7420.0	2206084.4726562495
7430.0	2234166.7785644527
7440.0	2261368.9804077144
7450.0	2287820.5871582027
7460.0	2315702.7664184566
7470.0	2343773.4374999995
7480.0	2371671.379089355
7490.0	2400418.5714721675
7500.0	2429153.5797119136
7510.0	2457528.1219482417
7520.0	2486508.7432861323
7530.0	2515936.7675781245
7540.0	2545270.6832885738
7550.0	2575108.3679199214
7560.0	2604488.92211914
7570.0	2634501.0223388663
7580.0	2664802.5054931636
7590.0	2694160.0646972647
7600.0	2722699.417114257
7610.0	2751688.323974609
7620.0	2779403.3508300777
7630.0	2802273.3764648433
7640.0	2819394.4702148433
7650.0	2826888.01574707
7660.0	2825365.570068359
7670.0	2587461.948394775
7680.0	2903750.80871582
7690.0	2940684.8449707027
7700.0	2714476.585388183
7710.0	3007765.8081054683
7720.0	3074929.6874999995
7730.0	3130864.0441894527
7740.0	3179000.7324218745
7750.0	3221799.4232177725
7760.0	3262493.988037109
7770.0	3301216.0491943355
7780.0	3340760.940551757
7790.0	3379164.0472412105
7800.0	3401989.5782470694
7810.0	3458131.759643554
7820.0	3497959.9151611323
7830.0	3535126.4648437495
7840.0	3575208.999633788
7850.0	3614492.5537109366
7860.0	3656392.990112304
7870.0	3695241.9281005855
7880.0	3738587.6464843745
7890.0	3780371.643066406
7900.0	3821766.2963867183
7910.0	3861527.7404785147
7920.0	3899577.30102539
7930.0	3944705.307006835
7940.0	3988629.272460937
7950.0	4009286.865234374
7960.0	4077062.713623046
7970.0	4118660.156249999
7980.0	4163398.651123046
7990.0	4205853.1341552725
8000.0	4250748.474121093
8010.0	4294100.021362304
8020.0	4341651.321411132
8030.0	4388908.935546874
8040.0	4434243.194580077
8050.0	4477569.824218749
8060.0	4526652.999877929
8070.0	4575828.659057616
8080.0	4626201.095581054
8090.0	4674375.076293944
8100.0	4731823.272705077
8110.0	4778247.406005858
8120.0	4832198.013305663
8130.0	4890985.565185546
8140.0	4944113.189697265
8150.0	5003281.570434569
8160.0	5057569.00024414
8170.0	5106106.872558593
8180.0	5165521.881103515
8190.0	5197750.64086914
8200.0	5208198.364257811
8210.0	5281868.743896483
8220.0	5356741.02783203
8230.0	5402680.297851562
8240.0	5467870.758056639
8250.0	5508816.802978514
8260.0	5572172.241210937
8270.0	5629066.894531248
8280.0	5670138.397216796
8290.0	5701917.0837402325
8300.0	5792589.630126952
8310.0	5826622.497558593
8320.0	5890474.792480468
8330.0	5955673.706054687
8340.0	6011959.8083496075
8350.0	6055232.818603514
8360.0	6116916.717529296
8370.0	6179214.355468749
8380.0	6253610.382080077
8390.0	6273985.687255858
8400.0	6345668.334960937
8410.0	6475507.019042967
8420.0	6507483.978271483
8430.0	6563585.723876951
8440.0	6555066.986083983
8450.0	6597409.759521483
8460.0	6652107.604980467
8470.0	6715161.682128905
8480.0	6784582.67211914
8490.0	6844485.107421874
8500.0	6915359.924316404
8510.0	6976540.954589842
8520.0	7045619.964599608
8530.0	7103097.351074217
8540.0	7165012.725830076
8550.0	7245268.218994139
8560.0	7317637.451171873
8570.0	7382078.491210937
8580.0	7459561.676025389
8590.0	7507775.299072265
8600.0	7569673.370361326
8610.0	7639615.509033202
8620.0	7710552.856445312
8630.0	7775008.361816404
8640.0	7841241.271972654
8650.0	7907367.218017576
8660.0	7995149.902343748
8670.0	8063480.133056639
8680.0	8121407.562255858
8690.0	8172617.736816405
8700.0	8200983.398437498
8710.0	8274936.065673826
8720.0	8347328.796386717
8730.0	8455424.682617186
8740.0	8500870.758056639
8750.0	8611100.738525389
8760.0	8727156.921386717
8770.0	8797147.644042967
8780.0	8892647.674560545
8790.0	8966361.358642576
8800.0	8959353.48510742
8810.0	9140748.107910154
8820.0	9252116.058349608
8830.0	9336863.800048826
8840.0	9496915.00854492
8850.0	9521556.732177733
8860.0	9606055.755615233
8870.0	9531427.642822264
8880.0	9632261.566162108
8890.0	9749058.868408201
8900.0	9824348.785400389
8910.0	9985846.80175781
8920.0	9971537.628173826
8930.0	10142573.85253906
8940.0	10217235.717773436
8950.0	10254642.669677733
8960.0	10343942.138671873
8970.0	10459642.272949215
8980.0	10601352.416992186
8990.0	10692133.361816404
9000.0	10823245.117187498
9010.0	11039074.462890623
9020.0	11112859.802246092
9030.0	11066761.779785154
9040.0	11200256.16455078
9050.0	11491849.182128904
9060.0	11444051.025390623
9070.0	11574989.868164059
9080.0	12219798.767089842
9090.0	12031684.753417967
9100.0	12017851.318359373
9110.0	12183448.05908203
9120.0	12628064.819335934
9130.0	12621295.898437498
9140.0	12563819.396972654
9150.0	12937474.304199215
9160.0	13212006.042480465
9170.0	13328397.949218746
9180.0	13184048.034667967
9190.0	13779047.058105465
9200.0	13535349.609374998
9210.0	13159917.236328121
9220.0	13092713.928222654
9230.0	13033499.206542967
9240.0	13146280.273437498
9250.0	13311722.351074215
9260.0	13391209.472656248
9270.0	13467094.360351559
9280.0	13363871.093749996
9290.0	13517141.235351559
9300.0	13632398.498535153
9310.0	13673437.011718746
9320.0	13923608.276367186
9330.0	13895880.676269528
9340.0	14198623.901367184
9350.0	13974970.764160154
9360.0	14331102.539062496
9370.0	14365768.18847656
9380.0	14727853.454589842
9390.0	14670406.738281246
9400.0	14905573.181152342
9410.0	14970483.276367186
9420.0	15422566.589355467
9430.0	15507544.37255859
9440.0	15396026.123046871
9450.0	15562961.303710936
9460.0	15857356.87255859
9470.0	15727895.019531246
9480.0	16262554.99267578
9490.0	16753196.044921871
9500.0	16046179.13818359
9510.0	16385824.584960934
9520.0	16858433.71582031
9530.0	16930619.323730465
9540.0	17443874.26757812
9550.0	17242666.870117184
9560.0	17409595.031738278
9570.0	17399261.596679684
9580.0	18526713.31787109
9590.0	18364209.045410153
9600.0	18007090.08789062
9610.0	18533611.93847656
9620.0	18207868.225097653
9630.0	19294702.75878906
9640.0	18634326.171874996
9650.0	19167541.503906246
9660.0	19757890.930175778
9670.0	20114613.22021484
9680.0	20316728.94287109
9690.0	20272790.46630859
9700.0	20849453.979492184
9710.0	20400834.350585934
9720.0	20691102.416992184
9730.0	20213378.417968746
9740.0	20132952.39257812
9750.0	20428912.109374996
9760.0	20741967.52929687
9770.0	20713735.47363281
9780.0	21080075.43945312
9790.0	21258123.046874993
9800.0	21473750.854492184
9810.0	21252813.842773434
9820.0	20719686.27929687
9830.0	21131461.059570305
9840.0	21680748.65722656
9850.0	21908738.891601555
9860.0	22212349.24316406
9870.0	22613247.070312496
9880.0	22215244.01855468
9890.0	23381367.91992187
9900.0	20085870.72753906
9910.0	19306534.362792965
9920.0	19474786.682128903
9930.0	19896718.99414062
9940.0	20294242.065429684
9950.0	20623603.75976562
9960.0	20790153.56445312
9970.0	21173093.01757812
9980.0	20967568.96972656
9990.0	20764267.45605468
10000.0	21272398.315429684
10010.0	21518678.283691403
10020.0	21758647.766113278
10030.0	22506786.376953118
10040.0	21932566.284179684
10050.0	22453389.770507805
10060.0	21662918.029785153
10070.0	22380013.366699215
10080.0	23091881.10351562
10090.0	23085162.231445305
10100.0	23949261.657714836
10110.0	23304644.104003903
10120.0	23370071.41113281
10130.0	23957208.25195312
10140.0	23219969.48242187
10150.0	24272253.784179684
10160.0	23706446.04492187
10170.0	23724869.140624996
10180.0	24850373.29101562
10190.0	24377562.25585937
10200.0	24248463.98925781
10210.0	25436255.981445305
10220.0	24443923.706054684
10230.0	25347680.2368164
10240.0	26087694.580078118
10250.0	25888913.940429684
10260.0	24863287.780761715
10270.0	25341356.9946289
10280.0	25280921.813964836
10290.0	25950130.737304684
10300.0	25804584.960937496
10310.0	26936953.124999996
10320.0	26331113.70849609
10330.0	27242404.174804684
10340.0	26671007.324218743
10350.0	27510505.12695312
10360.0	28122480.712890618
10370.0	28650841.125488278
10380.0	28258322.20458984
10390.0	27955193.42041015
10400.0	28982405.883789055
10410.0	30569544.06738281
10420.0	28564757.568359368
10430.0	27856334.59472656
10440.0	30408984.619140618
10450.0	31871233.703613274
10460.0	34386889.70947265
10470.0	28596648.254394528
10480.0	29843588.562011715
10490.0	32196635.375976555
10500.0	31823310.852050774
10510.0	31384967.71240234
10520.0	29785576.538085934
10530.0	33806648.071289055
10540.0	33785897.33886718
10550.0	34134124.38964843
10560.0	32184914.12353515
10570.0	31094369.750976555
10580.0	35166624.145507805
10590.0	34743009.03320312
10600.0	36081675.96435546
10610.0	34488161.19384765
10620.0	33267351.50146484
10630.0	36141716.73583984
10640.0	40068763.73291015
10650.0	38067134.03320312
10660.0	36816791.68701171
10670.0	34526384.399414055
10680.0	38486292.785644524
10690.0	41137476.867675774
10700.0	39416809.26513671
10710.0	40622021.72851562
10720.0	42912084.96093749
10730.0	40474503.66210937
10740.0	42879547.4243164
10750.0	43854183.77685546
10760.0	45116186.88964842
10770.0	47130927.856445305
10780.0	49400087.89062499
10790.0	47202854.85839843
10800.0	47442260.49804686
10810.0	45893749.26757812
10820.0	46522297.485351555
10830.0	49590427.42919921
10840.0	53238520.324707024
10850.0	50624426.14746093
10860.0	49743758.422851555
10870.0	49708454.58984374
10880.0	53042580.81054687
10890.0	46278984.74121092
10900.0	50278569.09179686
10910.0	50054188.84277343
10920.0	51882596.8017578
10930.0	51798384.52148437
10940.0	50878302.12402343
10950.0	51957001.15966796
10960.0	48725329.406738274
10970.0	51683934.44824218
10980.0	49692898.31542967
10990.0	50032071.411132805
11000.0	49185154.907226555
11010.0	50888338.378906235
11020.0	50739111.02294921
11030.0	46956417.29736327
11040.0	47369136.10839842
11050.0	48476910.64453124
11060.0	47630507.69042968
11070.0	46766878.78417968
11080.0	48153437.01171874
11090.0	49026784.484863274
11100.0	47578607.84912108
11110.0	46839723.87695311
11120.0	50285750.24414062
11130.0	51160439.086914055
11140.0	49692880.0048828
11150.0	50459798.21777343
11160.0	51788441.5283203
11170.0	50063066.040039055
11180.0	55282192.62695312
11190.0	52214467.04101561
11200.0	50764168.70117187
11210.0	51374641.35742187
11220.0	54216860.473632805
11230.0	54093712.76855468
11240.0	56583853.27148437
11250.0	56509968.749999985
11260.0	57185908.20312499
11270.0	56547811.035156235
11280.0	57809383.05664062
11290.0	58190766.723632805
11300.0	55022254.88281249
11310.0	59411757.50732421
11320.0	58527935.48583984
11330.0	57478191.040039055
11340.0	55372776.61132812
11350.0	51306844.11621093
11360.0	57518279.296874985
11370.0	57712057.739257805
11380.0	51863894.40917967
11390.0	55723868.53027343
11400.0	56571206.542968735
11410.0	52150027.70996093
11420.0	59735278.07617186
11430.0	59380424.31640624
11440.0	56863269.89746093
11450.0	62356173.70605467
11460.0	63896849.85351561
11470.0	61759062.622070305
11480.0	59764586.79199218
11490.0	67040455.44433593
11500.0	67321040.89355467
11510.0	65422384.76562499
11520.0	66433283.56933592
11530.0	64471228.6376953
11540.0	63093759.27734374
11550.0	69581186.40136717
11560.0	68362907.71484374
11570.0	67520368.77441405
11580.0	68674071.53320311
11590.0	69769424.68261717
11600.0	65572153.93066405
11610.0	64465755.12695312
11620.0	68773194.82421874
11630.0	71846900.63476561
11640.0	64613781.61621092
11650.0	73265999.99999999
11660.0	66542694.21386718
11670.0	71153312.98828124
11680.0	68117639.40429686
11690.0	55612572.99804686
11700.0	62715624.02343749
11710.0	70120183.34960936
11720.0	73101771.11816405
11730.0	72471399.78027342
11740.0	70741008.05664061
11750.0	71484838.13476561
11760.0	66786451.41601561
11770.0	59273976.80664061
11780.0	56287878.906249985
11790.0	68204481.5673828
11800.0	72507909.79003905
11810.0	73265142.45605467
11820.0	73178964.72167967
11830.0	76281178.22265624
11840.0	75371981.20117186
11850.0	76686303.22265624
11860.0	76465708.49609374
11870.0	78839014.16015624
11880.0	77935797.72949217
11890.0	73130003.41796874
11900.0	79543799.9267578
11910.0	80402149.41406249
11920.0	81819639.7705078
11930.0	82787508.78906249
11940.0	75181425.17089842
11950.0	74164494.62890624
11960.0	75664556.7626953
11970.0	72203391.23535155
11980.0	68244773.80371092
11990.0	71886140.86914061
12000.0	70278098.99902342
12010.0	71604187.37792967
12020.0	72196328.2470703
12030.0	73516026.85546874
12040.0	80955014.64843749
12050.0	77888368.16406249
12060.0	91397327.88085936
12070.0	79638747.31445311
12080.0	88546113.03710936
12090.0	78367059.57031249
12100.0	87311814.20898436
12110.0	76736303.22265624
12120.0	81348572.26562499
12130.0	84133286.37695311
12140.0	91146594.23828124
12150.0	91922029.05273436
12160.0	90056817.74902341
12170.0	92373130.9814453
12180.0	93588579.34570311
12190.0	93562179.68749997
12200.0	88331287.84179686
12210.0	88627963.62304686
12220.0	87816165.2832031
12230.0	87485917.23632811
12240.0	92771733.88671874
12250.0	101121839.35546874
12260.0	99200392.82226561
12270.0	98705305.66406249
12280.0	104028834.96093747
12290.0	99967099.60937499
12300.0	98508965.57617185
12310.0	102482498.04687499
12320.0	95384429.93164061
12330.0	97505366.21093749
12340.0	101328975.83007811
12350.0	95208922.85156247
12360.0	97498181.39648436
12370.0	101714710.44921874
12380.0	100367553.95507811
12390.0	95779656.24999999
12400.0	98334516.35742186
12410.0	86849905.63964842
12420.0	86935932.25097655
12430.0	86336926.63574217
12440.0	81105291.38183592
12450.0	101775455.81054686
12460.0	99884978.51562499
12470.0	101958526.12304685
12480.0	97699280.27343749
12490.0	102880210.93749997
12500.0	95864257.56835936
12510.0	101777040.03906249
12520.0	87336503.17382811
12530.0	87351730.95703124
12540.0	106052447.50976561
12550.0	101348695.31249999
12560.0	103500669.18945311
12570.0	114748418.70117185
12580.0	104770599.36523436
12590.0	107430866.4550781
12600.0	109838434.08203124
12610.0	117720966.30859372
12620.0	105658411.3769531
12630.0	109723965.57617185
12640.0	105179502.44140624
12650.0	108685188.47656249
12660.0	113017287.59765624
12670.0	119241151.85546872
12680.0	115217714.11132811
12690.0	122890038.33007811
12700.0	115785383.78906249
12710.0	118800325.92773436
12720.0	125821717.52929685
12730.0	126113514.89257811
12740.0	117372213.62304686
12750.0	113176498.53515622
12760.0	124295213.1347656
12770.0	121274371.82617186
12780.0	120860078.61328124
12790.0	127755885.49804686
12800.0	124817825.19531249
12810.0	122340068.35937499
12820.0	127197996.3378906
12830.0	122358084.47265622
12840.0	125968296.87499997
12850.0	128824625.2441406
12860.0	114801150.6347656
12870.0	125816090.33203124
12880.0	124534649.41406247
12890.0	125839410.64453124
12900.0	131856671.38671874
12910.0	128667877.1972656
12920.0	126150765.62499999
12930.0	121389471.43554686
12940.0	137538422.36328122
12950.0	126948280.51757811
12960.0	142522913.81835935
12970.0	139619448.4863281
12980.0	141956620.3613281
12990.0	135638060.7910156
13000.0	142193375.2441406
13010.0	136499849.60937497
13020.0	142088329.10156247
13030.0	139345268.55468747
13040.0	144791532.95898435
13050.0	139057610.10742185
13060.0	149080419.43359372
13070.0	133503862.79296874
13080.0	145216424.0722656
13090.0	137648330.3222656
13100.0	141277455.56640622
13110.0	147387708.74023435
13120.0	148375242.4316406
13130.0	142226296.87499997
13140.0	143463664.06249997
13150.0	147048782.4707031
13160.0	144074770.26367185
13170.0	145702444.5800781
13180.0	138370671.87499997
13190.0	148220224.8535156
13200.0	137386042.2363281
13210.0	141723961.91406247
13220.0	138855329.83398435
13230.0	141974080.81054685
13240.0	136061686.7675781
13250.0	126750718.74999997
13260.0	139200074.70703122
13270.0	126201935.30273436
13280.0	129870545.89843749
13290.0	131267974.60937497
13300.0	123942883.54492186
13310.0	114660742.67578124
13320.0	100024093.26171874
13330.0	101078262.45117185
13340.0	106212482.91015624
13350.0	82816240.96679686
13360.0	89820042.48046874
13370.0	85608654.17480467
13380.0	86548082.39746091
13390.0	89579217.28515624
13400.0	93575014.89257811
13410.0	96443723.14453124
13420.0	85787621.58203122
13430.0	84337401.12304686
13440.0	92725151.61132811
13450.0	87079496.82617186
13460.0	92642359.61914061
13470.0	87786092.0410156
13480.0	82941171.14257811
13490.0	93639387.20703124
13500.0	91105754.39453124
13510.0	88733550.78124999
13520.0	86458367.67578124
13530.0	92249229.98046874
13540.0	82209885.74218749
13550.0	84709074.21874997
13560.0	90186450.19531249
13570.0	90502781.00585936
13580.0	89133962.89062499
13590.0	90063410.76660153
13600.0	91541952.51464842
13610.0	91955174.80468749
13620.0	83693327.39257811
13630.0	96186969.48242186
13640.0	95367347.41210936
13650.0	91653780.27343749
13660.0	96961248.53515624
13670.0	93735290.52734374
13680.0	93848902.4658203
13690.0	91400416.38183591
13700.0	93389291.25976561
13710.0	90906870.36132811
13720.0	94476236.32812499
13730.0	94843031.49414061
13740.0	93341054.44335936
13750.0	95298988.03710936
13760.0	96900333.98437497
13770.0	94698289.06249999
13780.0	101377173.33984374
13790.0	97247833.49609374
13800.0	104134130.61523435
13810.0	97912651.85546874
13820.0	103861594.48242186
13830.0	91835866.94335936
13840.0	103037282.22656247
13850.0	99293992.91992186
13860.0	98622673.33984374
13870.0	102820651.12304686
13880.0	96259261.23046874
13890.0	105511643.55468749
13900.0	99947060.54687499
13910.0	95374292.48046874
13920.0	97959452.75878905
13930.0	99947021.36230467
13940.0	97800865.96679686
13950.0	97271313.72070311
13960.0	98524975.83007811
13970.0	99379900.14648436
13980.0	95675553.71093747
13990.0	100468618.40820311
14000.0	96220537.35351561
14010.0	95129037.35351561
14020.0	103243407.47070311
14030.0	100725764.40429686
14040.0	96177226.80664061
14050.0	97926101.8066406
14060.0	109834207.03124999
14070.0	96592539.06249999
14080.0	98346772.94921874
14090.0	98310216.06445311
14100.0	98552436.03515622
14110.0	99450450.68359374
14120.0	94900156.98242185
14130.0	103786468.50585936
14140.0	98543828.36914061
14150.0	98514483.64257811
14160.0	103599315.18554686
14170.0	97797217.77343749
14180.0	94548240.96679686
14190.0	97911138.18359374
14200.0	100219279.78515624
14210.0	101408862.67089842
14220.0	99472224.48730467
14230.0	99359010.25390624
14240.0	97678940.67382811
14250.0	100392541.50390624
14260.0	96687632.81249999
14270.0	101957390.38085936
14280.0	99292544.67773435
14290.0	93444131.22558592
14300.0	108015063.11035155
14310.0	107208186.03515624
14320.0	99765969.23828124
14330.0	101839055.41992186
14340.0	94866246.82617186
14350.0	107117844.48242186
14360.0	106076482.42187499
14370.0	103761907.95898436
14380.0	105853141.11328124
14390.0	106320578.85742186
14400.0	102348509.0332031
14410.0	101052849.8535156
14420.0	102784628.90624999
14430.0	110087716.55273436
14440.0	108429299.31640624
14450.0	100393889.8925781
14460.0	108551979.98046874
14470.0	103059081.05468749
14480.0	109292013.42773436
14490.0	113640276.6113281
14500.0	107387641.11328122
14510.0	102485754.63867186
14520.0	119669143.7988281
14530.0	113181495.60546874
14540.0	104980200.92773435
14550.0	117440644.53124999
14560.0	108350200.19531249
14570.0	105405793.2128906
14580.0	114553750.24414061
14590.0	117409693.11523435
14600.0	116871005.85937499
14610.0	115445446.77734374
14620.0	110437147.94921872
14630.0	106362850.09765622
14640.0	116087178.95507811
14650.0	115517026.12304685
