# Flux units: erg / (cm m2 s)
# Wavelength units: Angstrom
wave	flux
7000.0	124359224831999.98
7010.0	126043307519999.98
7020.0	128030767103999.97
7030.0	130059830783999.97
7040.0	131847193087999.97
7050.0	133715339263999.97
7060.0	135123811839999.97
7070.0	136967177215999.98
7080.0	139215605759999.97
7090.0	140950848511999.97
7100.0	142913989119999.97
7110.0	145040166399999.97
7120.0	147145034751999.97
7130.0	148894553087999.97
7140.0	150885759999999.97
7150.0	153091550719999.97
7160.0	155321241599999.97
7170.0	157324141055999.97
7180.0	159628557823999.97
7190.0	161896907775999.97
7200.0	164173410815999.97
7210.0	166281997823999.97
7220.0	168741513215999.97
7230.0	171082481663999.97
7240.0	173323934719999.97
7250.0	175860083711999.97
7260.0	178170766335999.94
7270.0	180619709439999.97
7280.0	183174406143999.97
7290.0	185618293759999.97
7300.0	188427647999999.97
7310.0	190758456319999.97
7320.0	193757374463999.97
7330.0	196409750527999.97
7340.0	198230643711999.97
7350.0	200123002879999.97
7360.0	202944355327999.97
7370.0	205895491583999.97
7380.0	208245222399999.97
7390.0	210486106111999.97
7400.0	213267287039999.97
7410.0	215785424895999.94
7420.0	218003994623999.97
7430.0	221180749823999.97
7440.0	224031814655999.94
7450.0	226277439487999.94
7460.0	229278177279999.97
7470.0	232239132671999.97
7480.0	235017631743999.97
7490.0	238250345471999.97
7500.0	241478958079999.97
7510.0	244123114495999.94
7520.0	247178953727999.94
7530.0	250569985023999.97
7540.0	253704749055999.94
7550.0	256967993343999.97
7560.0	260285127679999.94
7570.0	263650663423999.97
7580.0	266672050175999.94
7590.0	269751057407999.94
7600.0	272830600191999.97
7610.0	276172752895999.94
7620.0	279593070591999.97
7630.0	282003476479999.94
7640.0	284020447231999.94
7650.0	284237515775999.94
7660.0	279069103103999.97
7670.0	249405910783999.97
7680.0	290710909951999.94
7690.0	295141707775999.94
7700.0	261093055487999.94
7710.0	301952184319999.94
7720.0	310797238271999.94
7730.0	317026101247999.94
7740.0	321678772223999.94
7750.0	325492154367999.94
7760.0	329445965823999.94
7770.0	333033593855999.94
7780.0	337390718975999.94
7790.0	341153303551999.94
7800.0	344357107711999.94
7810.0	350253740031999.9
7820.0	354253686783999.94
7830.0	357615890431999.9
7840.0	361567590399999.94
7850.0	365734518783999.94
7860.0	370417381375999.94
7870.0	374238050303999.94
7880.0	379909877759999.94
7890.0	384461873151999.9
7900.0	387909672959999.94
7910.0	391604588543999.94
7920.0	394589472767999.94
7930.0	399562713087999.94
7940.0	404708102143999.94
7950.0	407801778175999.94
7960.0	414585448447999.94
7970.0	418044768255999.94
7980.0	422693187583999.94
7990.0	426880233471999.9
8000.0	431968460799999.94
8010.0	435830718463999.94
8020.0	441071407103999.94
8030.0	446502494207999.94
8040.0	451831521279999.94
8050.0	455175782399999.94
8060.0	460595871743999.94
8070.0	466628493311999.9
8080.0	472664621055999.9
8090.0	478603716607999.94
8100.0	485875271679999.94
8110.0	491442993151999.9
8120.0	497588973567999.94
8130.0	506198902783999.94
8140.0	514082250751999.9
8150.0	521405050879999.9
8160.0	529960933375999.9
8170.0	537511591935999.9
8180.0	548812533759999.9
8190.0	549780066303999.94
8200.0	539680858111999.9
8210.0	545264480255999.9
8220.0	558212241407999.94
8230.0	560813797375999.9
8240.0	571432685567999.9
8250.0	574218053631999.9
8260.0	581217581055999.9
8270.0	588303400959999.9
8280.0	589048004607999.9
8290.0	587766665215999.9
8300.0	602957158399999.9
8310.0	602426290175999.9
8320.0	609960382463999.9
8330.0	620405114879999.9
8340.0	624951609343999.9
8350.0	626375483391999.9
8360.0	633753286655999.9
8370.0	640917291007999.9
8380.0	650811525119999.9
8390.0	649252829183999.9
8400.0	658874220543999.9
8410.0	682496040959999.9
8420.0	679945625599999.9
8430.0	685437065215999.9
8440.0	675671001087999.9
8450.0	678775908351999.9
8460.0	684454877183999.9
8470.0	690872897535999.9
8480.0	698678276095999.9
8490.0	705123139583999.8
8500.0	713305608191999.9
8510.0	719490686975999.9
8520.0	727280148479999.9
8530.0	732064055295999.9
8540.0	737096351743999.8
8550.0	746657124351999.9
8560.0	755432652799999.9
8570.0	762171883519999.9
8580.0	770573561855999.9
8590.0	772868354047999.9
8600.0	778699710463999.8
8610.0	786848886783999.8
8620.0	795893358591999.9
8630.0	802148802559999.9
8640.0	808377069567999.9
8650.0	814845902847999.9
8660.0	824401588223999.8
8670.0	830923370495999.9
8680.0	835419447295999.9
8690.0	841754419199999.9
8700.0	850805247999999.9
8710.0	852935864319999.9
8720.0	866010398719999.9
8730.0	878029361151999.8
8740.0	883447001087999.9
8750.0	891370582015999.9
8760.0	906278080511999.8
8770.0	913625493503999.8
8780.0	924288225279999.9
8790.0	934308122623999.8
8800.0	932666753023999.8
8810.0	965940060159999.9
8820.0	965980372991999.8
8830.0	981888012287999.9
8840.0	1000377561087999.9
8850.0	1017100353535999.9
8860.0	1016910888959999.9
8870.0	998555791359999.9
8880.0	1006262603775999.9
8890.0	1024571764735999.9
8900.0	1032224309247999.9
8910.0	1055842230271999.8
8920.0	1045286027263999.8
8930.0	1080830050303999.8
8940.0	1076563902463999.8
8950.0	1078522212351999.8
8960.0	1085322604543999.8
8970.0	1107096350719999.8
8980.0	1126191280127999.8
8990.0	1130127319039999.8
9000.0	1157537001471999.8
9010.0	1190644502527999.8
9020.0	1187704823807999.8
9030.0	1184558292991999.8
9040.0	1185455480831999.8
9050.0	1238169059327999.8
9060.0	1237309034495999.8
9070.0	1242035048447999.8
9080.0	1372206751743999.8
9090.0	1325786157055999.8
9100.0	1305201836031999.8
9110.0	1340594802687999.8
9120.0	1410290507775999.8
9130.0	1407592488959999.8
9140.0	1401229750271999.8
9150.0	1452586577919999.8
9160.0	1501903175679999.8
9170.0	1507002327039999.8
9180.0	1493068087295999.8
9190.0	1589302353919999.8
9200.0	1538161795071999.8
9210.0	1442092163071999.8
9220.0	1399855103999999.8
9230.0	1382886887423999.8
9240.0	1384543965183999.8
9250.0	1410755428351999.8
9260.0	1416587911167999.5
9270.0	1428186529791999.8
9280.0	1402358611967999.5
9290.0	1414658670591999.8
9300.0	1433035530239999.8
9310.0	1436825337855999.8
9320.0	1465856311295999.8
9330.0	1460503642111999.8
9340.0	1496299503615999.8
9350.0	1480525168639999.8
9360.0	1511228325887999.5
9370.0	1509877989375999.8
9380.0	1559464443903999.8
9390.0	1555413901311999.8
9400.0	1594688962559999.8
9410.0	1596548489215999.8
9420.0	1667038289919999.8
9430.0	1662081990655999.8
9440.0	1646124253183999.8
9450.0	1653821071359999.8
9460.0	1714178605055999.8
9470.0	1667454640127999.5
9480.0	1740700024831999.8
9490.0	1828791238655999.8
9500.0	1742531624959999.8
9510.0	1769351028735999.8
9520.0	1827928596479999.8
9530.0	1834605101055999.8
9540.0	1913179316223999.5
9550.0	1874267439103999.5
9560.0	1881347538943999.5
9570.0	1918843551743999.5
9580.0	2066320424959999.5
9590.0	2042682261503999.5
9600.0	1992005804031999.8
9610.0	2076014534655999.8
9620.0	1990891978751999.8
9630.0	2151462469631999.8
9640.0	2063021047807999.5
9650.0	2172389433343999.5
9660.0	2227543228415999.8
9670.0	2255823847423999.5
9680.0	2318921637887999.5
9690.0	2355326844927999.5
9700.0	2391381360639999.5
9710.0	2355333160959999.5
9720.0	2390749773823999.5
9730.0	2218701791231999.8
9740.0	2200687230975999.8
9750.0	2250273087487999.5
9760.0	2288410779647999.5
9770.0	2277615280127999.5
9780.0	2335789998079999.5
9790.0	2463626715135999.5
9800.0	2426666262527999.5
9810.0	2355939131391999.5
9820.0	2262860546047999.5
9830.0	2331229093887999.5
9840.0	2406163988479999.5
9850.0	2431804768255999.5
9860.0	2458551410687999.5
9870.0	2549011455999999.5
9880.0	2439664967679999.5
9890.0	2686265425919999.5
9900.0	2260855767039999.5
9910.0	2077624492031999.8
9920.0	2131795714047999.5
9930.0	2205659930623999.5
9940.0	2273402421247999.5
9950.0	2346530758655999.5
9960.0	2355494928383999.5
9970.0	2479359041535999.5
9980.0	2413324607487999.5
9990.0	2299412832255999.5
10000.0	2409909108735999.5
10010.0	2438847873023999.5
10020.0	2479447883775999.5
10030.0	2584048087039999.5
10040.0	2463979384831999.5
10050.0	2607650119679999.5
10060.0	2444177063935999.5
10070.0	2548479344639999.5
10080.0	2702146375679999.5
10090.0	2637930934271999.5
10100.0	2806780563455999.0
10110.0	2668895670271999.5
10120.0	2784514600959999.5
10130.0	2931950739455999.0
10140.0	2646978420735999.5
10150.0	2882283986943999.5
10160.0	2751099908095999.5
10170.0	2741206978559999.5
10180.0	2991730262015999.0
10190.0	2833484443647999.5
10200.0	2851751260159999.5
10210.0	3070632099839999.5
10220.0	2842676666367999.5
10230.0	3084373827583999.5
10240.0	3204004061183999.5
10250.0	3060035207167999.5
10260.0	2801580556287999.5
10270.0	2848702365695999.0
10280.0	2836995088383999.5
10290.0	3006309662719999.5
10300.0	2950700843007999.5
10310.0	3195084341247999.5
10320.0	3047563841535999.0
10330.0	3123963195391999.5
10340.0	3144674443263999.5
10350.0	3231623135231999.5
10360.0	3376340811775999.0
10370.0	3412595523583999.5
10380.0	3303328882687999.5
10390.0	3345277026303999.5
10400.0	3395804848127999.5
10410.0	3679384002559999.5
10420.0	3399305224191999.5
10430.0	3215198396415999.0
10440.0	3714701451263999.5
10450.0	3847202717695999.0
10460.0	4053930909695999.0
10470.0	3282327814143999.5
10480.0	3531616255999999.5
10490.0	3838318288895999.0
10500.0	3779270098943999.5
10510.0	3631166357503999.5
10520.0	3434834173951999.5
10530.0	4066181332991999.5
10540.0	4033843470335999.0
10550.0	3991155310591999.5
10560.0	3763540254719999.5
10570.0	3622931652607999.0
10580.0	4188033646591999.5
10590.0	4118649675775999.0
10600.0	4297561645055999.0
10610.0	3945525600255999.0
10620.0	3972887142399999.5
10630.0	4217356140543999.5
10640.0	4748315353087999.0
10650.0	4473324199935999.0
10660.0	4379870027775999.0
10670.0	4052389478399999.5
10680.0	4390238568447999.0
10690.0	4753838342143999.0
10700.0	4528369475583999.0
10710.0	4676470292479999.0
10720.0	5087941869567999.0
10730.0	4655518433279999.0
10740.0	5138300444671999.0
10750.0	5226617446399999.0
10760.0	5460940750847999.0
10770.0	5593149054975999.0
10780.0	5869566287871998.0
10790.0	5488770744319999.0
10800.0	5661857955839999.0
10810.0	5396499013631999.0
10820.0	5527570063359999.0
10830.0	6158509154303999.0
10840.0	6626670419967999.0
10850.0	6267772846079999.0
10860.0	6121084534783999.0
10870.0	5926766608383999.0
10880.0	6364295675903999.0
10890.0	5500764356607999.0
10900.0	5935938404351998.0
10910.0	5961182248959999.0
10920.0	6185906077695999.0
10930.0	5934967373823999.0
10940.0	5948224651263999.0
10950.0	6173926457343999.0
10960.0	5650580078591998.0
10970.0	6080901382143999.0
10980.0	5877067186175999.0
10990.0	5773029867519999.0
11000.0	5738645512191998.0
11010.0	5919905472511998.0
11020.0	6246031425535999.0
11030.0	5371748909055999.0
11040.0	5486695841791999.0
11050.0	5522665865215999.0
11060.0	5431673028607999.0
11070.0	5340210577407999.0
11080.0	5506966257663999.0
11090.0	5685394350079999.0
11100.0	5411658784767999.0
11110.0	5426119049215999.0
11120.0	5693453033471998.0
11130.0	5871654158335999.0
11140.0	5628018835455999.0
11150.0	5675691368447999.0
11160.0	5996966592511998.0
11170.0	5676125364223999.0
11180.0	6405112700927999.0
11190.0	6026255474687999.0
11200.0	5832695308287999.0
11210.0	5992881807359999.0
11220.0	6347435597823999.0
11230.0	6204121645055999.0
11240.0	6566043500543999.0
11250.0	6643224674303999.0
11260.0	6555503165439999.0
11270.0	6592763609087999.0
11280.0	6763232165887999.0
11290.0	6756694327295999.0
11300.0	6458648018943999.0
11310.0	6862908989439999.0
11320.0	6646546472959999.0
11330.0	6685891846143999.0
11340.0	6553039986687999.0
11350.0	5684792950783999.0
11360.0	6821332140031998.0
11370.0	6753624195071998.0
11380.0	6095452258303999.0
11390.0	6574421803007999.0
11400.0	6889418620927999.0
11410.0	6368776585215999.0
11420.0	6929851236351998.0
11430.0	7079655636991998.0
11440.0	6346937139199999.0
11450.0	7103708315647999.0
11460.0	7340636962815998.0
11470.0	7061822586879999.0
11480.0	7017726820351998.0
11490.0	7658536648703999.0
11500.0	7675506655231998.0
11510.0	7493413847039999.0
11520.0	7575543873535998.0
11530.0	7553845329919999.0
11540.0	7211646943231998.0
11550.0	8022760505343999.0
11560.0	8114682183679999.0
11570.0	7669822881791998.0
11580.0	7996172222463999.0
11590.0	8382848761855998.0
11600.0	7584557154303999.0
11610.0	7740215672831998.0
11620.0	8103202144255998.0
11630.0	8160129384447999.0
11640.0	7444493041663999.0
11650.0	8777707061247999.0
11660.0	7765499248639999.0
11670.0	8298319167487999.0
11680.0	8240152395775998.0
11690.0	6775677730815999.0
11700.0	7875606069247999.0
11710.0	8197737742335998.0
11720.0	8592133029887999.0
11730.0	8325656297471998.0
11740.0	8124530753535998.0
11750.0	8535728816127999.0
11760.0	7905996750847999.0
11770.0	7374425505791998.0
11780.0	6855897104383999.0
11790.0	8095089983487999.0
11800.0	8384607272959998.0
11810.0	8346816151551998.0
11820.0	8297660956671998.0
11830.0	8890791886847999.0
11840.0	8788391018495998.0
11850.0	8886463135743999.0
11860.0	8679056261119998.0
11870.0	9316941250559998.0
11880.0	8974606663679998.0
11890.0	8622377156607999.0
11900.0	9167540797439998.0
11910.0	9039776759807998.0
11920.0	9197195100159998.0
11930.0	9635865116671998.0
11940.0	8740782571519998.0
11950.0	8690582618111998.0
11960.0	8829809246207999.0
11970.0	8510176378879998.0
11980.0	8158490689535998.0
11990.0	8717261357055998.0
12000.0	8294608388095998.0
12010.0	8688651845631998.0
12020.0	8669921181695998.0
12030.0	8737301184511998.0
12040.0	9528402657279998.0
12050.0	9315110256639998.0
12060.0	1.0721762590719998e+16
12070.0	9263248424959998.0
12080.0	1.0169583812607998e+16
12090.0	9373781524479998.0
12100.0	1.0273567784959998e+16
12110.0	9296665853951998.0
12120.0	9576275722239998.0
12130.0	9691167080447998.0
12140.0	1.0610294292479998e+16
12150.0	1.0731386241023998e+16
12160.0	1.0624816447487998e+16
12170.0	1.0504514519039998e+16
12180.0	1.0989384581119998e+16
12190.0	1.1152384737279998e+16
12200.0	1.0499679780863998e+16
12210.0	1.0651577417727998e+16
12220.0	1.0650667368447998e+16
12230.0	1.0596538695679998e+16
12240.0	1.1036671459327998e+16
12250.0	1.1698843189247998e+16
12260.0	1.1713473544191998e+16
12270.0	1.1523449683967998e+16
12280.0	1.2051565051903996e+16
12290.0	1.2021899886591998e+16
12300.0	1.1630364590079998e+16
12310.0	1.2267814125567998e+16
12320.0	1.1379372949503996e+16
12330.0	1.1717622677503996e+16
12340.0	1.2371182370815998e+16
12350.0	1.1596223053823996e+16
12360.0	1.2145494589439998e+16
12370.0	1.2256337330175998e+16
12380.0	1.2100462018559998e+16
12390.0	1.1482538704895998e+16
12400.0	1.1956366376959998e+16
12410.0	1.0440043200511998e+16
12420.0	1.0050957967359998e+16
12430.0	1.0733857914879998e+16
12440.0	1.0079158910975998e+16
12450.0	1.1954952912895998e+16
12460.0	1.1572382416895998e+16
12470.0	1.2124791668735998e+16
12480.0	1.1424099172351998e+16
12490.0	1.2447525076991998e+16
12500.0	1.1768741724159998e+16
12510.0	1.2316711714815998e+16
12520.0	1.1136380469247998e+16
12530.0	1.1191551999999998e+16
12540.0	1.2820463665151998e+16
12550.0	1.1809958346751998e+16
12560.0	1.2222322769919998e+16
12570.0	1.3167817457663996e+16
12580.0	1.2123303641087998e+16
12590.0	1.2697481478143996e+16
12600.0	1.2675736633343996e+16
12610.0	1.3725381918719998e+16
12620.0	1.2116143636479998e+16
12630.0	1.2939259412479998e+16
12640.0	1.2669978771455998e+16
12650.0	1.2841117237247998e+16
12660.0	1.3242896564223996e+16
12670.0	1.3852788195327998e+16
12680.0	1.3556247298047998e+16
12690.0	1.4232991334399998e+16
12700.0	1.3645346275327998e+16
12710.0	1.3683736575999998e+16
12720.0	1.4448802725887998e+16
12730.0	1.4608282025983996e+16
12740.0	1.3573010898943996e+16
12750.0	1.3400216911871998e+16
12760.0	1.4313024192511996e+16
12770.0	1.4272960200703996e+16
12780.0	1.3960476590079998e+16
12790.0	1.4703990505471996e+16
12800.0	1.4331538751487998e+16
12810.0	1.4231844438015998e+16
12820.0	1.4896499687423996e+16
12830.0	1.4162934104063996e+16
12840.0	1.4578420547583996e+16
12850.0	1.5034721206271996e+16
12860.0	1.3325814497279998e+16
12870.0	1.4812479520767998e+16
12880.0	1.4595704979455998e+16
12890.0	1.4547232423935998e+16
12900.0	1.5287378739199998e+16
12910.0	1.4630407929855998e+16
12920.0	1.4516069105663996e+16
12930.0	1.4706644779007998e+16
12940.0	1.6065151270911996e+16
12950.0	1.4321658920959998e+16
12960.0	1.5758091157503996e+16
12970.0	1.6089388318719998e+16
12980.0	1.6299029561343996e+16
12990.0	1.5607596187647998e+16
13000.0	1.6162844639231996e+16
13010.0	1.5615108087807998e+16
13020.0	1.6335449489407998e+16
13030.0	1.5980209537023996e+16
13040.0	1.7075711803391996e+16
13050.0	1.6444477734911996e+16
13060.0	1.6805138104319996e+16
13070.0	1.5724967297023996e+16
13080.0	1.6015088320511996e+16
13090.0	1.5674851393535998e+16
13100.0	1.6067781394431996e+16
13110.0	1.6599854841855998e+16
13120.0	1.7215841927167998e+16
13130.0	1.6336924737535998e+16
13140.0	1.6264113061887998e+16
13150.0	1.6758833938431996e+16
13160.0	1.6526333837311996e+16
13170.0	1.6737202536447998e+16
13180.0	1.5717075746815998e+16
13190.0	1.6984966529023996e+16
13200.0	1.6143233679359998e+16
13210.0	1.6031709593599998e+16
13220.0	1.6294747078655998e+16
13230.0	1.6304654647295998e+16
13240.0	1.5970051588095998e+16
13250.0	1.4404503732223996e+16
13260.0	1.5974212239359998e+16
13270.0	1.4717034823679998e+16
13280.0	1.4654990188543996e+16
13290.0	1.5221442805759998e+16
13300.0	1.4403840999423996e+16
13310.0	1.3128969764863996e+16
13320.0	1.1920670785535998e+16
13330.0	1.1106974564351998e+16
13340.0	1.2229025316863996e+16
13350.0	8935723433983999.0
13360.0	1.0484294483967998e+16
13370.0	9902396653567998.0
13380.0	9994484269055998.0
13390.0	1.0297838141439998e+16
13400.0	1.0938039156735998e+16
13410.0	1.1230890213375998e+16
13420.0	9576415969279998.0
13430.0	9072229236735998.0
13440.0	1.0644291633151998e+16
13450.0	9701659131903998.0
13460.0	1.0277068750847998e+16
13470.0	9751677812735998.0
13480.0	9201265491967998.0
13490.0	1.1008681050111998e+16
13500.0	1.0277966610431998e+16
13510.0	9731548381183998.0
13520.0	9544368553983998.0
13530.0	1.0269209624575998e+16
13540.0	8822804267007999.0
13550.0	9458111954943998.0
13560.0	1.0287958491135998e+16
13570.0	1.0190906359807998e+16
13580.0	9772334579711998.0
13590.0	9815267409919998.0
13600.0	1.0012281503743998e+16
13610.0	1.0156754632703998e+16
13620.0	8817109696511998.0
13630.0	1.0721402535935998e+16
13640.0	1.0178405318655998e+16
13650.0	1.0129310646271998e+16
13660.0	1.0397093380095998e+16
13670.0	9824409649151998.0
13680.0	9915664859135998.0
13690.0	1.0021971623935998e+16
13700.0	9839416541183998.0
13710.0	9355051352063998.0
13720.0	9931954733055998.0
13730.0	1.0073276563455998e+16
13740.0	9497046941695998.0
13750.0	9835467571199998.0
13760.0	1.0063488335871998e+16
13770.0	9660297396223998.0
13780.0	1.1069761798143998e+16
13790.0	1.0143884132351998e+16
13800.0	1.1083714379775998e+16
13810.0	1.0727467925503998e+16
13820.0	1.1333973032959998e+16
13830.0	9950237933567998.0
13840.0	1.0994400673791998e+16
13850.0	1.0652046671871998e+16
13860.0	1.0793260089343998e+16
13870.0	1.0591474778111998e+16
13880.0	1.0164390526975998e+16
13890.0	1.1195087601663996e+16
13900.0	1.0609910300671998e+16
13910.0	1.0098181603327998e+16
13920.0	1.0365349199871998e+16
13930.0	1.0573922844671998e+16
13940.0	1.0308969021439998e+16
13950.0	1.0308463755263998e+16
13960.0	1.0634555817983998e+16
13970.0	1.0641015455743998e+16
13980.0	1.0076191899647998e+16
13990.0	1.0806341894143998e+16
14000.0	1.0040391204863998e+16
14010.0	1.0023939178495998e+16
14020.0	1.1076971544575998e+16
14030.0	1.0523271872511998e+16
14040.0	1.0095720808447998e+16
14050.0	1.0247680278527998e+16
14060.0	1.1550925160447998e+16
14070.0	1.0023388282879998e+16
14080.0	1.0453340487679998e+16
14090.0	1.0361076072447998e+16
14100.0	1.0102583295999998e+16
14110.0	1.0458306822143998e+16
14120.0	1.0062595620863998e+16
14130.0	1.0988158517247998e+16
14140.0	1.0465816444927998e+16
14150.0	1.0028043993087998e+16
14160.0	1.0778335870975998e+16
14170.0	1.0088583151615998e+16
14180.0	9739992285183998.0
14190.0	1.0358754426879998e+16
14200.0	1.0243220750335998e+16
14210.0	1.0458178781183998e+16
14220.0	1.0288290545663998e+16
14230.0	1.0262967730175998e+16
