# Flux units: erg / (cm m2 s)
# Wavelength units: Angstrom
wave	flux
7000.0	172674.84092712397
7010.0	175686.90776824948
7020.0	178740.48995971677
7030.0	181836.04717254636
7040.0	184974.81155395505
7050.0	188145.34854888913
7060.0	191382.2116851806
7070.0	194651.60465240476
7080.0	197965.58666229245
7090.0	201324.140548706
7100.0	204727.5810241699
7110.0	208177.2966384887
7120.0	211672.75142669672
7130.0	215214.4842147827
7140.0	218801.586151123
7150.0	222426.96189880365
7160.0	226095.48568725583
7170.0	229813.71498107907
7180.0	233583.4188461303
7190.0	237400.54607391355
7200.0	241263.07201385492
7210.0	245177.2375106811
7220.0	249141.89720153803
7230.0	253157.22846984857
7240.0	257223.67286682123
7250.0	261341.88365936273
7260.0	265511.5137100219
7270.0	269734.18903350824
7280.0	274008.4133148193
7290.0	278338.2034301757
7300.0	282720.01647949213
7310.0	287156.5685272216
7320.0	291648.34976196283
7330.0	296195.6367492675
7340.0	300798.60210418695
7350.0	305457.8256607055
7360.0	310174.3478775024
7370.0	314947.4534988403
7380.0	319779.7584533691
7390.0	324670.6924438476
7400.0	329619.9512481689
7410.0	334626.72996520984
7420.0	339692.19779968256
7430.0	344823.97460937494
7440.0	350011.46125793445
7450.0	355262.23945617664
7460.0	360574.062347412
7470.0	365947.3800659179
7480.0	371383.1233978271
7490.0	376883.75282287586
7500.0	382446.3729858397
7510.0	388074.13291931147
7520.0	393765.50292968744
7530.0	399522.2778320312
7540.0	405344.5758819579
7550.0	411233.01315307606
7560.0	417178.9970397948
7570.0	423200.4070281982
7580.0	429296.3066101073
7590.0	435446.3710784911
7600.0	441672.8763580321
7610.0	447969.12765502924
7620.0	454334.48982238764
7630.0	460769.0563201903
7640.0	467270.51925659174
7650.0	473831.35604858387
7660.0	480400.3257751464
7670.0	444267.035961151
7680.0	493974.0715026855
7690.0	500850.5878448486
7700.0	467310.23120880115
7710.0	514869.2474365234
7720.0	522032.7243804931
7730.0	529249.1378784179
7740.0	536537.2962951659
7750.0	543899.3339538573
7760.0	551337.1639251708
7770.0	558846.8284606932
7780.0	566442.4896240233
7790.0	574116.9815063475
7800.0	581847.08404541
7810.0	589706.9358825682
7820.0	597626.7929077147
7830.0	605624.9179840087
7840.0	613705.3985595702
7850.0	621872.2038269042
7860.0	630120.3460693358
7870.0	638453.4225463866
7880.0	646870.0599670409
7890.0	655372.8599548339
7900.0	663958.0039978026
7910.0	672627.7694702146
7920.0	681385.1890563963
7930.0	690231.6856384276
7940.0	699165.241241455
7950.0	708144.1497802733
7960.0	717297.7943420409
7970.0	726491.7030334471
7980.0	735788.8717651366
7990.0	745170.7305908202
8000.0	754639.1029357909
8010.0	764208.8966369628
8020.0	773866.5046691893
8030.0	783616.6458129882
8040.0	793460.8573913573
8050.0	803400.0015258788
8060.0	813432.8880310057
8070.0	823556.8962097166
8080.0	833787.9028320311
8090.0	844105.5641174314
8100.0	854520.896911621
8110.0	865031.3987731932
8120.0	875647.1443176268
8130.0	886356.8954467771
8140.0	897177.16217041
8150.0	908085.9374999999
8160.0	919103.9962768554
8170.0	930216.4192199706
8180.0	941435.2684020994
8190.0	952762.0887756346
8200.0	964081.1309814451
8210.0	975710.5979919431
8220.0	987332.0655822752
8230.0	999072.6585388182
8240.0	1010923.053741455
8250.0	1022873.6534118651
8260.0	1034927.6390075682
8270.0	1047082.607269287
8280.0	1059354.8164367673
8290.0	1071727.9624938963
8300.0	1084214.0388488767
8310.0	1096802.7496337888
8320.0	1109509.3879699705
8330.0	1122290.93170166
8340.0	1135194.843292236
8350.0	1148166.82434082
8360.0	1161257.053375244
8370.0	1174445.3468322752
8380.0	1187763.2179260252
8390.0	1201166.8205261228
8400.0	1214704.853057861
8410.0	1228361.3624572752
8420.0	1242117.5460815427
8430.0	1255984.149932861
8440.0	1269954.4868469236
8450.0	1284067.184448242
8460.0	1298273.7274169917
8470.0	1312605.7510375974
8480.0	1327069.8242187498
8490.0	1341633.087158203
8500.0	1356326.3702392576
8510.0	1371129.8599243162
8520.0	1386055.5114746091
8530.0	1401090.0573730466
8540.0	1416245.9106445308
8550.0	1431535.316467285
8560.0	1446935.3561401365
8570.0	1462433.3267211912
8580.0	1478093.7652587888
8590.0	1493867.6528930662
8600.0	1509750.0686645505
8610.0	1525740.295410156
8620.0	1541869.117736816
8630.0	1558147.018432617
8640.0	1574537.6510620113
8650.0	1591028.610229492
8660.0	1607683.4182739255
8670.0	1624445.1980590818
8680.0	1641332.5042724605
8690.0	1658328.0029296873
8700.0	1675467.460632324
8710.0	1692680.1223754878
8720.0	1710105.4916381831
8730.0	1727642.4255371091
8740.0	1745265.1062011716
8750.0	1763077.4917602537
8760.0	1780999.9847412107
8770.0	1799008.9111328123
8780.0	1817194.8623657224
8790.0	1835483.2458496091
8800.0	1849623.8708496091
8810.0	1872508.3007812498
8820.0	1891182.2052001948
8830.0	1910001.6555786128
8840.0	1928966.7282104488
8850.0	1948075.5081176755
8860.0	1967312.0880126948
8870.0	1986617.164611816
8880.0	2006153.4652709956
8890.0	2025747.8637695308
8900.0	2045521.9955444331
8910.0	2065430.5038452144
8920.0	2085386.1694335935
8930.0	2105606.636047363
8940.0	2125903.686523437
8950.0	2146257.2937011714
8960.0	2166926.0940551753
8970.0	2187570.877075195
8980.0	2208589.8742675777
8990.0	2229455.0323486323
9000.0	2250697.4792480464
9010.0	2271998.7182617183
9020.0	2293430.152893066
9030.0	2314941.970825195
9040.0	2336679.0390014644
9050.0	2358574.45526123
9060.0	2380464.4012451167
9070.0	2402623.0773925777
9080.0	2425062.5457763667
9090.0	2447383.308410644
9100.0	2469998.0010986323
9110.0	2492794.868469238
9120.0	2515840.309143066
9130.0	2538700.935363769
9140.0	2561945.892333984
9150.0	2585431.6864013667
9160.0	2608966.720581054
9170.0	2632570.3124999995
9180.0	2656381.164550781
9190.0	2680504.501342773
9200.0	2704444.442749023
9210.0	2728458.7249755855
9220.0	2752814.1937255855
9230.0	2775633.865356445
9240.0	2801992.1874999995
9250.0	2826793.5791015616
9260.0	2851694.32067871
9270.0	2876698.7609863277
9280.0	2901308.181762695
9290.0	2926524.276733398
9300.0	2952782.073974609
9310.0	2978130.9356689444
9320.0	3004282.852172851
9330.0	3030068.435668945
9340.0	3055418.8385009756
9350.0	3081588.5620117183
9360.0	3108929.9163818355
9370.0	3135116.1499023433
9380.0	3162990.158081054
9390.0	3189745.1629638663
9400.0	3216953.216552734
9410.0	3244070.5566406245
9420.0	3271771.0266113277
9430.0	3299348.892211913
9440.0	3326869.1711425777
9450.0	3354577.5756835933
9460.0	3382787.536621093
9470.0	3410141.6625976553
9480.0	3438153.0914306636
9490.0	3468128.8604736323
9500.0	3495457.717895507
9510.0	3525033.4167480464
9520.0	3553989.8986816397
9530.0	3582842.5903320303
9540.0	3612835.76965332
9550.0	3641830.8258056636
9560.0	3670168.77746582
9570.0	3700813.6749267573
9580.0	3731589.080810546
9590.0	3761466.552734374
9600.0	3790730.4077148433
9610.0	3821705.3375244136
9620.0	3850720.2911376944
9630.0	3882990.7379150386
9640.0	3913051.223754882
9650.0	3944829.1168212886
9660.0	3976340.8660888663
9670.0	4007082.3516845694
9680.0	4039350.6927490225
9690.0	4071128.2958984366
9700.0	4103000.0610351553
9710.0	4134311.386108398
9720.0	4166491.1804199214
9730.0	4198201.171874999
9740.0	4230239.669799804
9750.0	4263400.482177733
9760.0	4295583.267211913
9770.0	4328868.484497069
9780.0	4362311.737060546
9790.0	4395644.241333007
9800.0	4428881.866455077
9810.0	4462100.9368896475
9820.0	4495372.009277343
9830.0	4529304.0618896475
9840.0	4563384.307861327
9850.0	4597920.059204101
9860.0	4632015.457153319
9870.0	4666904.4036865225
9880.0	4700395.568847655
9890.0	4737219.604492187
9900.0	4767561.523437499
9910.0	4799910.888671874
9920.0	4836292.541503905
9930.0	4873149.505615233
9940.0	4908619.598388671
9950.0	4945396.316528319
9960.0	4981433.776855468
9970.0	5018451.7669677725
9980.0	5054480.743408202
9990.0	5087793.44177246
10000.0	5125670.059204101
10010.0	5163248.367309569
10020.0	5200608.413696287
10030.0	5238730.0872802725
10040.0	5273433.639526366
10050.0	5312763.412475584
10060.0	5348219.345092772
10070.0	5385978.805541991
10080.0	5426260.3607177725
10090.0	5463576.751708983
10100.0	5503474.990844726
10110.0	5539496.978759765
10120.0	5578819.671630858
10130.0	5619327.667236326
10140.0	5655120.605468749
10150.0	5696027.359008788
10160.0	5733764.099121093
10170.0	5772377.075195312
10180.0	5815202.7435302725
10190.0	5853148.712158202
10200.0	5892234.573364257
10210.0	5934650.2380371075
10220.0	5971094.955444335
10230.0	6015262.039184568
10240.0	6056419.601440429
10250.0	6095001.388549804
10260.0	6131709.945678709
10270.0	6173867.858886718
10280.0	6214828.4759521475
10290.0	6257490.417480468
10300.0	6297757.354736327
10310.0	6343513.000488279
10320.0	6381904.830932616
10330.0	6425179.428100585
10340.0	6466994.308471678
10350.0	6510389.45007324
10360.0	6554356.887817381
10370.0	6597249.664306639
10380.0	6637548.950195311
10390.0	6681132.324218748
10400.0	6724544.189453123
10410.0	6771839.355468748
10420.0	6810271.041870115
10430.0	6850439.514160154
10440.0	6901604.29382324
10450.0	6947268.661499022
10460.0	6994825.210571288
10470.0	7025847.915649412
10480.0	7073937.973022459
10490.0	7123033.66088867
10500.0	7166601.089477537
10510.0	7208714.843749999
10520.0	7249464.767456053
10530.0	7305303.771972654
10540.0	7349281.539916991
10550.0	7394053.894042968
10560.0	7435831.100463866
10570.0	7478530.990600585
10580.0	7534160.430908201
10590.0	7578596.694946287
10600.0	7627823.440551757
10610.0	7667705.093383788
10620.0	7714101.181030272
10630.0	7765202.758789061
10640.0	7822357.604980467
10650.0	7863460.083007811
10660.0	7907867.874145506
10670.0	7949382.827758787
10680.0	8003425.1403808575
10690.0	8058017.044067381
10700.0	8101041.595458983
10710.0	8151760.192871093
10720.0	8208630.34057617
10730.0	8247125.198364257
10740.0	8306917.495727537
10750.0	8357467.224121093
10760.0	8411624.053955076
10770.0	8463571.151733397
10780.0	8520521.072387693
10790.0	8560406.402587889
10800.0	8613891.311645506
10810.0	8656061.874389647
10820.0	8710419.41833496
10830.0	8776400.939941404
10840.0	8838141.09802246
10850.0	8879031.692504881
10860.0	8926129.85229492
10870.0	8971612.716674803
10880.0	9033957.473754881
10890.0	9061048.889160154
10900.0	9122388.229370115
10910.0	9175220.8404541
10920.0	9232191.986083983
10930.0	9274328.979492186
10940.0	9325604.446411131
10950.0	9384758.575439451
10960.0	9420564.529418943
10970.0	9486017.898559568
10980.0	9532472.030639647
10990.0	9580312.683105467
11000.0	9631013.137817381
11010.0	9687262.710571287
11020.0	9754637.802124022
11030.0	9779392.105102537
11040.0	9840630.66101074
11050.0	9891156.53991699
11060.0	9938013.839721678
11070.0	9993654.571533201
11080.0	10050225.06713867
11090.0	10109796.463012693
11100.0	10157013.580322264
11110.0	10198610.031127928
11120.0	10267600.692749022
11130.0	10325047.851562498
11140.0	10373400.238037108
11150.0	10423603.210449217
11160.0	10502137.268066404
11170.0	10534890.07568359
11180.0	10624516.296386717
11190.0	10660881.561279295
11200.0	10705517.639160154
11210.0	10774091.033935545
11220.0	10834617.64526367
11230.0	10895574.981689451
11240.0	10962650.329589842
11250.0	11022745.269775389
11260.0	11074690.277099608
11270.0	11140816.894531246
11280.0	11199925.140380858
11290.0	11260209.289550778
11300.0	11299251.43432617
11310.0	11370183.319091795
11320.0	11418937.530517576
11330.0	11483244.140624998
11340.0	11519308.471679686
11350.0	11531675.90332031
11360.0	11655292.846679686
11370.0	11712494.750976559
11380.0	11744060.18066406
11390.0	11823055.694580076
11400.0	11899602.35595703
11410.0	11932463.34838867
11420.0	12015009.826660154
11430.0	12077627.25830078
11440.0	12095738.09814453
11450.0	12200195.28198242
11460.0	12272617.889404293
11470.0	12321408.935546871
11480.0	12375181.27441406
11490.0	12473265.045166014
11500.0	12527202.45361328
11510.0	12579150.36010742
11520.0	12648549.438476559
11530.0	12706238.708496092
11540.0	12739650.390624998
11550.0	12855696.350097653
11560.0	12919029.11376953
11570.0	12953830.230712887
11580.0	13036796.173095701
11590.0	13118421.752929684
11600.0	13125871.490478514
11610.0	13206512.451171873
11620.0	13289593.933105465
11630.0	13358066.6809082
11640.0	13367202.75878906
11650.0	13520534.484863278
11660.0	13503529.510498045
11670.0	13611589.599609371
11680.0	13666605.43823242
11690.0	13635178.070068358
11700.0	13775856.994628904
11710.0	13860861.358642576
11720.0	13950694.549560543
11730.0	13987547.271728512
11740.0	14044693.81713867
11750.0	14137894.104003903
11760.0	14154595.581054684
11770.0	14194751.525878903
11780.0	14193158.996582028
11790.0	14366052.001953123
11800.0	14452476.68457031
11810.0	14516013.61083984
11820.0	14567134.39941406
11830.0	14687424.77416992
11840.0	14738758.178710934
11850.0	14812030.517578123
11860.0	14864379.577636717
11870.0	14980985.931396483
11880.0	15019086.364746092
11890.0	15067006.256103514
11900.0	15166744.689941404
11910.0	15224253.265380858
11920.0	15304463.653564451
11930.0	15407576.934814451
11940.0	15402784.14916992
11950.0	15464505.096435543
11960.0	15546102.966308592
11970.0	15586303.9855957
11980.0	15630966.796874996
11990.0	15734080.68847656
12000.0	15775674.163818358
12010.0	15871022.552490233
12020.0	15934047.088623043
12030.0	16004660.980224608
12040.0	16144863.586425778
12050.0	16196052.917480467
12060.0	16390033.050537106
12070.0	16327609.100341793
12080.0	16472783.4777832
12090.0	16480607.482910154
12100.0	16622995.239257809
12110.0	16604725.341796871
12120.0	16699672.821044918
12130.0	16780696.441650387
12140.0	16943167.327880856
12150.0	17015207.031249996
12160.0	17079573.18115234
12170.0	17142084.59472656
12180.0	17257147.06420898
12190.0	17341289.18457031
12200.0	17348487.152099606
12210.0	17434548.09570312
12220.0	17503072.02148437
12230.0	17572780.85327148
12240.0	17687501.007080074
12250.0	17835613.128662106
12260.0	17905236.11450195
12270.0	17957186.920166012
12280.0	18099404.632568356
12290.0	18161334.71679687
12300.0	18192053.405761715
12310.0	18331477.874755856
12320.0	18307058.166503903
12330.0	18415750.2746582
12340.0	18566700.43945312
12350.0	18546550.41503906
12360.0	18685079.3762207
12370.0	18777138.79394531
12380.0	18840176.574707028
12390.0	18844218.0480957
12400.0	18960712.921142574
12410.0	18871486.75537109
12420.0	18920840.1184082
12430.0	19056453.613281246
12440.0	19065314.20898437
12450.0	19358382.44628906
12460.0	19399687.683105465
12470.0	19537664.67285156
12480.0	19520650.84838867
12490.0	19712973.052978512
12500.0	19708130.401611324
12510.0	19835451.507568356
12520.0	19779838.928222653
12530.0	19844886.383056637
12540.0	20138081.756591793
12550.0	20088413.635253903
12560.0	20244087.49389648
12570.0	20442414.67285156
12580.0	20378357.238769528
12590.0	20517705.261230465
12600.0	20595897.766113278
12610.0	20826719.787597653
12620.0	20694173.400878903
12630.0	20858658.081054684
12640.0	20895997.68066406
12650.0	21003971.191406246
12660.0	21147389.70947265
12670.0	21319894.348144528
12680.0	21350449.40185546
12690.0	21528502.014160153
12700.0	21519623.65722656
12710.0	21597962.15820312
12720.0	21804121.82617187
12730.0	21896509.460449215
12740.0	21826386.718749996
12750.0	21878756.713867184
12760.0	22092074.890136715
12770.0	22166715.820312496
12780.0	22194488.52539062
12790.0	22401032.89794921
12800.0	22430894.836425778
12810.0	22485709.960937496
12820.0	22696797.241210934
12830.0	22648087.402343746
12840.0	22786390.563964836
12850.0	22961541.74804687
12860.0	22742108.459472653
12870.0	23087897.39990234
12880.0	23113622.436523434
12890.0	23195632.690429684
12900.0	23417457.458496086
12910.0	23373164.24560546
12920.0	23427054.382324215
12930.0	23559030.63964843
12940.0	23894623.718261715
12950.0	23656409.362792965
12960.0	23988415.71044921
12970.0	24134248.352050778
12980.0	24275358.76464843
12990.0	24219843.93310546
13000.0	24401572.326660153
13010.0	24383100.70800781
13020.0	24613805.480957028
13030.0	24630044.06738281
13040.0	24928789.18457031
13050.0	24895772.827148434
13060.0	25051219.055175774
13070.0	24899021.301269528
13080.0	25065661.682128903
13090.0	25081217.163085934
13100.0	25242733.886718746
13110.0	25446329.528808586
13120.0	25638546.93603515
13130.0	25535029.41894531
13140.0	25619185.729980465
13150.0	25791967.95654296
13160.0	25832950.927734368
13170.0	25984019.47021484
13180.0	25847226.257324215
13190.0	26186755.737304684
13200.0	26112633.42285156
13210.0	26158668.823242184
13220.0	26313922.546386715
13230.0	26394666.015624993
13240.0	26397104.125976555
13250.0	26171936.46240234
13260.0	26591324.46289062
13270.0	26411373.840332024
13280.0	26468930.725097653
13290.0	26678566.711425778
13300.0	26545114.807128903
13310.0	26375613.464355465
13320.0	26166998.474121086
13330.0	26074713.317871086
13340.0	26419509.82666015
13350.0	25671815.307617184
13360.0	26152787.292480465
13370.0	25998893.005371086
13380.0	26110649.53613281
13390.0	26308119.934082028
13400.0	26476951.23291015
13410.0	26798550.65917968
13420.0	26243383.056640618
13430.0	26305026.184082024
13440.0	26799135.253906246
13450.0	26547183.898925778
13460.0	26836118.59130859
13470.0	26724806.091308586
13480.0	26527070.8618164
13490.0	27148849.609374996
13500.0	27091231.07910156
13510.0	27129554.199218746
13520.0	27115709.16748046
13530.0	27347663.085937496
13540.0	26908563.842773434
13550.0	27042608.825683586
13560.0	27556615.051269528
13570.0	27629996.03271484
13580.0	27624830.627441403
13590.0	27638704.83398437
13600.0	27794500.305175774
13610.0	28038426.330566403
13620.0	27613702.453613278
13630.0	28388166.137695305
13640.0	28326232.727050778
13650.0	28349920.104980465
13660.0	28570065.307617184
13670.0	28471263.671874993
13680.0	28505355.712890618
13690.0	28526239.624023434
13700.0	28676812.194824215
13710.0	28565799.133300774
13720.0	28862285.644531243
13730.0	29034105.651855465
13740.0	28923356.201171868
13750.0	29065536.25488281
13760.0	29268246.459960934
13770.0	29195997.924804684
13780.0	29737773.254394528
13790.0	29519918.823242184
13800.0	29915906.860351555
13810.0	29799543.945312493
13820.0	30038151.550292965
13830.0	29544357.177734368
13840.0	30211447.998046868
13850.0	30020085.388183586
13860.0	30160469.116210934
13870.0	30297542.11425781
13880.0	30238568.725585934
13890.0	30612490.35644531
13900.0	30535924.43847656
13910.0	30424662.109374993
13920.0	30562700.439453118
13930.0	30858065.673828118
13940.0	30682393.249511715
13950.0	30719456.848144528
13960.0	30996493.957519528
13970.0	31150639.40429687
13980.0	31047597.53417968
13990.0	31438739.257812493
14000.0	31042766.66259765
14010.0	31210715.02685546
14020.0	31725962.4633789
14030.0	31571951.354980465
14040.0	31364087.76855468
14050.0	31548264.70947265
14060.0	32305695.068359368
14070.0	31739353.515624993
14080.0	31970200.62255859
14090.0	31920109.863281243
14100.0	31950217.529296868
14110.0	32194321.289062493
14120.0	31917831.054687493
14130.0	32632937.13378906
14140.0	32369573.91357421
14150.0	32358431.823730465
14160.0	32811848.02246093
14170.0	32480873.657226555
14180.0	32375652.893066403
14190.0	32641853.027343743
14200.0	32765433.166503903
14210.0	32979846.130371086
14220.0	33093819.458007805
14230.0	33010571.47216796
14240.0	33153417.907714836
14250.0	33332594.238281243
14260.0	33124917.785644524
14270.0	33627509.52148437
14280.0	33416265.136718743
14290.0	33086493.59130859
14300.0	34258458.00781249
14310.0	34236314.758300774
14320.0	33809666.99218749
14330.0	33894618.469238274
14340.0	33460001.098632805
14350.0	34482641.235351555
14360.0	34585431.64062499
14370.0	34570909.973144524
14380.0	34636217.52929687
14390.0	34720121.704101555
14400.0	34457618.16406249
14410.0	34539258.23974609
14420.0	34727806.457519524
14430.0	35444592.77343749
14440.0	35184621.704101555
14450.0	34890884.94873046
14460.0	35422135.49804687
14470.0	35205957.39746093
14480.0	35722150.207519524
14490.0	36091350.58593749
14500.0	35880742.980957024
14510.0	35437473.57177734
14520.0	36669360.77880859
14530.0	36290063.110351555
14540.0	35839578.49121093
14550.0	36726808.10546874
14560.0	36272471.13037109
14570.0	36059786.86523437
14580.0	36743655.51757812
14590.0	37103407.531738274
14600.0	37196299.49951171
14610.0	37158204.52880859
14620.0	36849327.941894524
14630.0	36768828.79638671
14640.0	37432642.57812499
