# Flux units: erg / (cm m2 s)
# Wavelength units: Angstrom
wave	flux
7000.0	178228.18660736078
7010.0	181340.47126770017
7020.0	184495.8801269531
7030.0	187694.9996948242
7040.0	190938.5080337524
7050.0	194213.24443817136
7060.0	197559.69238281247
7070.0	200938.4784698486
7080.0	204363.37280273435
7090.0	207834.46407318112
7100.0	211352.02693939206
7110.0	214917.5586700439
7120.0	218530.57861328122
7130.0	222191.159248352
7140.0	225898.26583862302
7150.0	229644.8068618774
7160.0	233435.3160858154
7170.0	237277.2817611694
7180.0	241173.36273193354
7190.0	245118.44348907465
7200.0	249113.15917968744
7210.0	253159.13295745847
7220.0	257256.51168823236
7230.0	261407.61947631833
7240.0	265610.63671112055
7250.0	269867.0692443847
7260.0	274177.1965026855
7270.0	278541.9092178344
7280.0	282959.95616912836
7290.0	287435.77003479
7300.0	291965.1088714599
7310.0	296551.16558074945
7320.0	301194.52857971186
7330.0	305895.6232070922
7340.0	310653.66458892816
7350.0	315470.869064331
7360.0	320346.85516357416
7370.0	325281.63719177234
7380.0	330277.3265838622
7390.0	335334.0110778808
7400.0	340451.73072814936
7410.0	345627.96974182123
7420.0	350864.7556304931
7430.0	356171.6403961181
7440.0	361535.27259826654
7450.0	366964.82467651356
7460.0	372457.1380615234
7470.0	378013.43345642084
7480.0	383634.0904235839
7490.0	389321.42829895014
7500.0	395072.7825164794
7510.0	400892.24052429193
7520.0	406777.6317596435
7530.0	412729.6752929687
7540.0	418749.94850158686
7550.0	424839.3383026122
7560.0	430985.0711822509
7570.0	437210.96229553217
7580.0	443518.38111877436
7590.0	449882.57789611805
7600.0	456315.595626831
7610.0	462819.56291198725
7620.0	469388.26560974115
7630.0	476008.6021423339
7640.0	482662.39166259754
7650.0	489285.83526611316
7660.0	495288.3663177489
7670.0	456484.7960472106
7680.0	509888.2217407226
7690.0	517060.12916564936
7700.0	481040.25268554676
7710.0	531528.6750793456
7720.0	539247.9858398436
7730.0	546836.8244171141
7740.0	554443.1972503661
7750.0	562099.4281768798
7760.0	569822.0443725585
7770.0	577620.0141906737
7780.0	585499.671936035
7790.0	593457.8571319579
7800.0	601397.8462219237
7810.0	609620.6035614013
7820.0	617836.7195129393
7830.0	626128.5686492919
7840.0	634508.653640747
7850.0	642977.1347045897
7860.0	651531.8946838378
7870.0	660171.9665527343
7880.0	668900.3601074218
7890.0	677719.1810607909
7900.0	686625.419616699
7910.0	695616.2147521971
7920.0	704699.0394592284
7930.0	713876.079559326
7940.0	723143.226623535
7950.0	732336.8110656737
7960.0	741953.7620544432
7970.0	751491.5237426755
7980.0	761140.7737731932
7990.0	770875.965118408
8000.0	780697.238922119
8010.0	790631.450653076
8020.0	800655.2391052245
8030.0	810775.7148742673
8040.0	820990.6616210936
8050.0	831307.0793151854
8060.0	841724.8954772948
8070.0	852230.945587158
8080.0	862855.0453186034
8090.0	873564.5103454589
8100.0	884385.688781738
8110.0	895293.5905456542
8120.0	906322.9103088378
8130.0	917447.9331970214
8140.0	928688.2400512694
8150.0	940024.5399475096
8160.0	951470.3254699705
8170.0	963008.1062316892
8180.0	974669.1970825193
8190.0	986428.829193115
8200.0	998055.9577941893
8210.0	1010266.4337158201
8220.0	1022350.631713867
8230.0	1034550.2395629882
8240.0	1046876.5029907224
8250.0	1059285.259246826
8260.0	1071831.4933776853
8270.0	1084461.0290527341
8280.0	1097221.7788696287
8290.0	1110066.3452148435
8300.0	1123071.6209411619
8310.0	1136150.695800781
8320.0	1149374.2332458494
8330.0	1162653.9306640623
8340.0	1176074.7985839841
8350.0	1189561.7904663084
8360.0	1203161.5486145017
8370.0	1216880.2146911619
8380.0	1230730.2093505857
8390.0	1244644.8173522947
8400.0	1258724.712371826
8410.0	1272978.8322448728
8420.0	1287271.789550781
8430.0	1301687.8128051755
8440.0	1316167.4194335935
8450.0	1330821.5713500974
8460.0	1345593.193054199
8470.0	1360505.3405761716
8480.0	1375560.478210449
8490.0	1390707.1990966792
8500.0	1406007.8506469724
8510.0	1421409.3017578123
8520.0	1436940.4907226558
8530.0	1452585.0143432615
8540.0	1468360.3286743162
8550.0	1484287.9867553709
8560.0	1500334.0530395505
8570.0	1516464.1189575193
8580.0	1532799.1943359373
8590.0	1549191.4443969724
8600.0	1565730.6365966795
8610.0	1582375.5722045896
8620.0	1599143.9285278318
8630.0	1616079.4677734373
8640.0	1633161.4685058591
8650.0	1650313.652038574
8660.0	1667728.9962768552
8670.0	1685194.313049316
8680.0	1702770.3857421873
8690.0	1720409.9807739253
8700.0	1738060.2722167966
8710.0	1756052.1850585933
8720.0	1774159.1339111326
8730.0	1792526.1306762693
8740.0	1810773.7655639644
8750.0	1829496.0632324216
8760.0	1848261.665344238
8770.0	1867037.0101928709
8780.0	1886040.4968261716
8790.0	1905067.3828124995
8800.0	1918805.1147460933
8810.0	1943651.0848999019
8820.0	1963283.1115722652
8830.0	1982893.4631347652
8840.0	2002848.8769531248
8850.0	2022559.860229492
8860.0	2042715.2099609373
8870.0	2062506.1721801753
8880.0	2083017.0669555662
8890.0	2103465.1184082027
8900.0	2124113.487243652
8910.0	2144989.1891479488
8920.0	2165649.1699218745
8930.0	2186851.0742187495
8940.0	2208124.633789062
8950.0	2229119.78149414
8960.0	2250909.645080566
8970.0	2272410.1715087886
8980.0	2294523.5214233394
8990.0	2316330.8105468745
9000.0	2338600.4409790034
9010.0	2361109.1308593745
9020.0	2383538.89465332
9030.0	2405632.7667236323
9040.0	2428628.1890869136
9050.0	2451831.29119873
9060.0	2474255.073547363
9070.0	2497656.89086914
9080.0	2522107.8491210933
9090.0	2544989.9291992183
9100.0	2568497.3983764644
9110.0	2592419.3878173823
9120.0	2617312.3016357413
9130.0	2640944.015502929
9140.0	2664860.8703613277
9150.0	2690166.5039062495
9160.0	2715151.0772705073
9170.0	2739939.315795898
9180.0	2764338.3941650386
9190.0	2790724.914550781
9200.0	2815066.131591796
9210.0	2839135.330200195
9220.0	2864388.4582519527
9230.0	2887093.8720703116
9240.0	2915727.1423339834
9250.0	2941756.8664550777
9260.0	2967790.2069091788
9270.0	2993844.0246582027
9280.0	3018832.656860351
9290.0	3045356.079101562
9300.0	3073254.3487548823
9310.0	3099521.5454101553
9320.0	3127455.902099609
9330.0	3154036.621093749
9340.0	3180669.8455810538
9350.0	3207147.6898193355
9360.0	3237054.1229248038
9370.0	3264158.294677734
9380.0	3294599.76196289
9390.0	3322005.020141601
9400.0	3350944.32067871
9410.0	3379343.8262939444
9420.0	3409441.6198730464
9430.0	3438406.799316406
9440.0	3466564.025878906
9450.0	3495921.6918945303
9460.0	3525986.679077148
9470.0	3553915.466308593
9480.0	3584326.843261718
9490.0	3617582.046508788
9500.0	3642837.585449218
9510.0	3675381.072998046
9520.0	3706887.0391845694
9530.0	3737103.1036376944
9540.0	3770271.438598632
9550.0	3799533.35571289
9560.0	3829066.1621093745
9570.0	3860928.7567138663
9580.0	3897118.728637695
9590.0	3927534.9578857417
9600.0	3956333.6181640616
9610.0	3990526.611328124
9620.0	4018962.2344970694
9630.0	4057245.3460693355
9640.0	4085391.8914794917
9650.0	4120357.650756835
9660.0	4156220.7641601553
9670.0	4188880.279541015
9680.0	4223126.266479491
9690.0	4255758.77380371
9700.0	4291439.254760741
9710.0	4321509.414672851
9720.0	4356904.571533202
9730.0	4388451.538085937
9740.0	4421421.661376952
9750.0	4457194.076538085
9760.0	4491488.372802733
9770.0	4526700.714111327
9780.0	4562655.197143554
9790.0	4596749.66430664
9800.0	4633545.898437499
9810.0	4667547.378540038
9820.0	4699913.9251708975
9830.0	4736768.753051757
9840.0	4774263.671874999
9850.0	4811346.206665038
9860.0	4848560.623168944
9870.0	4886233.154296874
9880.0	4919215.545654296
9890.0	4962722.091674804
9900.0	4976418.243408202
9910.0	5004218.170166015
9920.0	5041342.971801757
9930.0	5082653.823852538
9940.0	5122440.673828124
9950.0	5162440.979003905
9960.0	5200776.733398437
9970.0	5240079.223632812
9980.0	5276147.094726562
9990.0	5310450.866699217
10000.0	5352789.138793944
10010.0	5393033.538818358
10020.0	5432809.799194334
10030.0	5477126.754760741
10040.0	5509782.8216552725
10050.0	5552058.57849121
10060.0	5582694.305419921
10070.0	5627897.44567871
10080.0	5673122.253417968
10090.0	5712488.830566404
10100.0	5758091.217041015
10110.0	5792213.790893553
10120.0	5831605.8197021475
10130.0	5876513.992309569
10140.0	5909930.48095703
10150.0	5958173.217773437
10160.0	5993996.337890624
10170.0	6034345.718383788
10180.0	6084382.003784179
10190.0	6121424.78942871
10200.0	6161059.982299804
10210.0	6212130.813598632
10220.0	6244214.797973632
10230.0	6294113.92211914
10240.0	6341195.938110351
10250.0	6381969.848632812
10260.0	6414162.643432615
10270.0	6461796.173095701
10280.0	6503052.795410154
10290.0	6550894.912719725
10300.0	6592155.105590819
10310.0	6646013.900756835
10320.0	6682839.950561522
10330.0	6734229.064941405
10340.0	6771206.802368162
10350.0	6823570.587158202
10360.0	6871736.846923827
10370.0	6920748.550415038
10380.0	6960051.42211914
10390.0	7001728.6529541
10400.0	7055994.659423827
10410.0	7114109.832763671
10420.0	7140090.46936035
10430.0	7177563.995361326
10440.0	7247000.320434568
10450.0	7307095.36743164
10460.0	7378494.262695312
10470.0	7364873.962402343
10480.0	7423098.999023437
10490.0	7491460.205078124
10500.0	7534339.64538574
10510.0	7576398.330688476
10520.0	7605822.967529295
10530.0	7692262.832641601
10540.0	7740059.555053709
10550.0	7790926.8951416
10560.0	7817194.290161131
10570.0	7852640.2282714825
10580.0	7943922.622680662
10590.0	7985770.1263427725
10600.0	8047440.216064452
10610.0	8081394.83642578
10620.0	8113208.084106443
10630.0	8195193.252563475
10640.0	8295832.519531248
10650.0	8317204.971313475
10660.0	8344961.029052733
10670.0	8370322.479248045
10680.0	8466599.853515623
10690.0	8555456.237792967
10700.0	8581012.969970701
10710.0	8644876.77001953
10720.0	8718645.62988281
10730.0	8741358.291625975
10740.0	8815875.366210936
10750.0	8887468.444824217
10760.0	8946025.37536621
10770.0	9032965.850830076
10780.0	9118346.740722654
10790.0	9145726.516723631
10800.0	9195444.488525389
10810.0	9220740.783691404
10820.0	9292128.845214842
10830.0	9384634.231567381
10840.0	9491402.740478514
10850.0	9500244.384765623
10860.0	9541378.005981443
10870.0	9591127.395629881
10880.0	9688715.896606443
10890.0	9637432.09838867
10900.0	9748250.152587889
10910.0	9798544.631958006
10920.0	9883761.901855467
10930.0	9932627.227783201
10940.0	9962541.061401365
10950.0	10033215.362548826
10960.0	10036876.26647949
10970.0	10140885.269165037
10980.0	10165895.706176756
10990.0	10219181.060791014
11000.0	10259803.634643553
11010.0	10332522.964477537
11020.0	10401630.340576168
11030.0	10394187.591552733
11040.0	10453218.23120117
11050.0	10518787.872314451
11060.0	10555252.014160153
11070.0	10609405.364990233
11080.0	10682541.931152342
11090.0	10751628.295898436
11100.0	10781678.771972654
11110.0	10806513.092041014
11120.0	10930454.467773436
11130.0	10991736.175537108
11140.0	11025680.633544918
11150.0	11085818.572998043
11160.0	11191155.639648434
11170.0	11193892.54760742
11180.0	11361804.13818359
11190.0	11356867.919921871
11200.0	11371799.77416992
11210.0	11465800.018310545
11220.0	11549552.276611326
11230.0	11629232.360839842
11240.0	11719084.655761717
11250.0	11785870.72753906
11260.0	11849933.349609373
11270.0	11918680.908203123
11280.0	11989408.660888668
11290.0	12064093.994140623
11300.0	12050718.017578121
11310.0	12184074.79858398
11320.0	12225126.09863281
11330.0	12272994.842529295
11340.0	12254765.075683592
11350.0	12234370.544433592
11360.0	12437254.69970703
11370.0	12508179.443359373
11380.0	12485637.237548826
11390.0	12616875.549316403
11400.0	12703484.405517576
11410.0	12680012.66479492
11420.0	12864617.065429686
11430.0	12912708.160400389
11440.0	12901016.479492184
11450.0	13093008.178710936
11460.0	13188882.598876951
11470.0	13218190.06347656
11480.0	13237473.72436523
11490.0	13463643.585205074
11500.0	13503290.039062496
11510.0	13536053.131103512
11520.0	13625790.039062496
11530.0	13634945.43457031
11540.0	13655044.616699217
11550.0	13887438.90380859
11560.0	13904540.100097654
11570.0	13956265.014648436
11580.0	14051625.610351559
11590.0	14140280.395507809
11600.0	14095023.712158201
11610.0	14164670.257568358
11620.0	14297376.251220701
11630.0	14458365.966796873
11640.0	14339734.802246092
11650.0	14613474.945068358
11660.0	14489189.422607418
11670.0	14673837.554931637
11680.0	14669802.18505859
11690.0	14464189.91088867
11700.0	14705191.925048824
11710.0	14935435.02807617
11720.0	15069615.447998043
11730.0	15088785.522460934
11740.0	15126314.147949217
11750.0	15218115.84472656
11760.0	15164743.286132809
11770.0	15107006.164550778
11780.0	15048060.729980465
11790.0	15427267.883300778
11800.0	15593492.431640621
11810.0	15678657.470703121
11820.0	15738091.186523436
11830.0	15930556.152343746
11840.0	15911216.73583984
11850.0	16059184.8449707
11860.0	16090986.877441403
11870.0	16253825.408935545
11880.0	16298991.180419918
11890.0	16269071.289062496
11900.0	16466965.881347653
11910.0	16561979.644775387
11920.0	16679548.675537108
11930.0	16801699.95117187
11940.0	16640699.00512695
11950.0	16689378.87573242
11960.0	16809090.393066403
11970.0	16766085.479736324
11980.0	16756172.760009762
11990.0	16886916.47338867
12000.0	16929550.26245117
12010.0	17030872.467041012
12020.0	17109146.57592773
12030.0	17210096.038818356
12040.0	17523399.719238278
12050.0	17506222.503662106
12060.0	18032882.690429684
12070.0	17684423.1262207
12080.0	18033326.59912109
12090.0	17796338.928222653
12100.0	18136826.78222656
12110.0	17884465.45410156
12120.0	18107496.82617187
12130.0	18234056.335449215
12140.0	18604197.479248043
12150.0	18653704.55932617
12160.0	18689184.35668945
12170.0	18813682.769775387
12180.0	18951256.408691403
12190.0	19015931.335449215
12200.0	18897533.44726562
12210.0	18962534.91210937
12220.0	19023437.683105465
12230.0	19104141.38793945
12240.0	19347826.507568356
12250.0	19785943.32885742
12260.0	19710373.718261715
12270.0	19785277.557373043
12280.0	20086373.748779293
12290.0	20025684.35668945
12300.0	20043396.91162109
12310.0	20237449.31030273
12320.0	20051214.508056637
12330.0	20211836.39526367
12340.0	20403057.983398434
12350.0	20290120.69702148
12360.0	20435921.14257812
12370.0	20680376.22070312
12380.0	20718637.390136715
12390.0	20635535.980224606
12400.0	20823531.951904293
12410.0	20471563.049316403
12420.0	20577533.44726562
12430.0	20615453.826904293
12440.0	20496224.822998043
12450.0	21342365.234374996
12460.0	21381573.18115234
12470.0	21539213.74511718
12480.0	21442319.27490234
12490.0	21697560.058593746
12500.0	21488866.088867184
12510.0	21766160.09521484
12520.0	21359684.20410156
12530.0	21406446.89941406
12540.0	22189959.350585934
12550.0	22152768.615722653
12560.0	22302874.999999996
12570.0	22889118.59130859
12580.0	22546421.63085937
12590.0	22705676.69677734
12600.0	22832326.049804684
12610.0	23321142.578124996
12620.0	22896940.67382812
12630.0	23175471.191406246
12640.0	22925821.22802734
12650.0	23218377.19726562
12660.0	23509264.953613278
12670.0	23944914.97802734
12680.0	23884979.187011715
12690.0	24249805.90820312
12700.0	23962903.56445312
12710.0	24242881.958007805
12720.0	24623524.902343746
12730.0	24699724.426269528
12740.0	24395354.91943359
12750.0	24295262.023925774
12760.0	24857234.61914062
12770.0	24859229.553222653
12780.0	24906520.812988278
12790.0	25300224.1821289
12800.0	25202767.822265618
12810.0	25236657.47070312
12820.0	25585902.038574215
12830.0	25357710.021972653
12840.0	25637734.374999996
12850.0	25858460.144042965
12860.0	25285563.781738278
12870.0	25908600.463867184
12880.0	25860295.83740234
12890.0	26072530.334472653
12900.0	26501851.19628906
12910.0	26356312.683105465
12920.0	26276169.250488278
12930.0	26209584.83886718
12940.0	27207170.59326171
12950.0	26696132.93457031
12960.0	27424353.820800774
12970.0	27385559.69238281
12980.0	27782081.604003903
12990.0	27467754.394531243
13000.0	27843992.55371093
13010.0	27583830.932617184
13020.0	28023199.218749996
13030.0	28006126.281738274
13040.0	28251986.816406246
13050.0	28148094.726562493
13060.0	28857465.69824218
13070.0	27903010.13183593
13080.0	28744082.88574218
13090.0	28304111.8774414
13100.0	28610500.61035156
13110.0	29096362.42675781
13120.0	29262453.857421868
13130.0	28985135.742187493
13140.0	29119201.41601562
13150.0	29377226.98974609
13160.0	29217843.933105465
13170.0	29471118.103027336
13180.0	29156034.179687493
13190.0	29802409.85107421
13200.0	29315723.57177734
13210.0	29653057.49511718
13220.0	29543426.818847653
13230.0	29805918.88427734
13240.0	29510378.112792965
13250.0	29036236.328124996
13260.0	29864559.631347653
13270.0	29218919.555664055
13280.0	29470605.65185546
13290.0	29635004.63867187
13300.0	29211648.37646484
13310.0	28811231.872558586
13320.0	28038022.155761715
13330.0	28198568.847656246
13340.0	28576496.45996093
13350.0	27277773.925781243
13360.0	27788407.65380859
13370.0	27485148.193359368
13380.0	27650603.57666015
13390.0	27936985.839843746
13400.0	28162003.906249996
13410.0	28617067.382812496
13420.0	27803283.996582028
13430.0	27905917.236328118
13440.0	28545128.906249996
13450.0	28117269.897460934
13460.0	28613459.04541015
13470.0	28341648.315429684
13480.0	27939601.257324215
13490.0	28820792.053222653
13500.0	28765459.83886718
13510.0	28794020.690917965
13520.0	28691157.40966796
13530.0	29092616.210937493
13540.0	28380823.36425781
13550.0	28514299.682617184
13560.0	29146285.827636715
13570.0	29260475.95214843
13580.0	29298006.713867184
13590.0	29339618.89648437
13600.0	29541625.793457028
13610.0	29774117.79785156
13620.0	29129359.80224609
13630.0	30290139.831542965
13640.0	30301996.6430664
13650.0	30063933.349609368
13660.0	30593220.520019528
13670.0	30425983.581542965
13680.0	30422878.112792965
13690.0	30271285.583496086
13700.0	30582523.86474609
13710.0	30443033.874511715
13720.0	30811483.9477539
13730.0	30976747.985839836
13740.0	30906040.954589836
13750.0	31100564.14794921
13760.0	31361351.135253903
13770.0	31233309.509277336
13780.0	31854864.074707024
13790.0	31597228.271484368
13800.0	32176238.586425774
13810.0	31725032.47070312
13820.0	32200832.94677734
13830.0	31256903.44238281
13840.0	32442773.9868164
13850.0	32039572.814941403
13860.0	32100112.48779296
13870.0	32595163.69628906
13880.0	32177284.790039055
13890.0	32950066.528320305
13900.0	32669494.567871086
13910.0	32361602.172851555
13920.0	32579218.017578118
13930.0	32973292.358398434
13940.0	32728561.950683586
13950.0	32702624.20654296
13960.0	32953117.492675778
13970.0	33209679.56542968
13980.0	32997025.75683593
13990.0	33542864.746093746
14000.0	33030239.8071289
14010.0	33092343.50585937
14020.0	33944762.45117187
14030.0	33758385.19287109
14040.0	33342343.13964843
14050.0	33552404.90722656
14060.0	34845767.45605468
14070.0	33752956.29882812
14080.0	33985372.375488274
14090.0	33946818.42041015
14100.0	34071271.118164055
14110.0	34297789.06249999
14120.0	33765481.68945312
14130.0	34898088.86718749
14140.0	34326275.32958984
14150.0	34496313.110351555
14160.0	35131182.67822265
14170.0	34571112.8540039
14180.0	34303954.04052734
14190.0	34578050.65917968
14200.0	34973652.34374999
14210.0	35203257.3852539
14220.0	35237518.31054687
14230.0	35096685.668945305
14240.0	35059796.508789055
14250.0	35514398.86474609
14260.0	35139971.37451171
14270.0	35853891.723632805
14280.0	35570001.40380859
14290.0	35000000.5493164
14300.0	36677820.67871093
14310.0	36649449.58496093
14320.0	35908617.309570305
14330.0	36227888.61083984
14340.0	35297216.79687499
14350.0	36916320.49560546
14360.0	37019703.85742187
14370.0	36836350.76904296
14380.0	36986918.88427734
14390.0	37064009.887695305
14400.0	36682032.043457024
14410.0	36768807.00683593
14420.0	37024694.58007812
14430.0	37960934.1430664
14440.0	37662544.31152343
14450.0	36909721.37451171
14460.0	37948755.004882805
14470.0	37496572.26562499
14480.0	38290871.82617187
14490.0	38715628.234863274
14500.0	38156878.234863274
14510.0	37598536.19384765
14520.0	39609949.523925774
14530.0	39085338.684082024
14540.0	38217481.9946289
14550.0	39560520.324707024
14560.0	38700421.997070305
14570.0	38316062.805175774
14580.0	39576008.05664062
14590.0	40009858.39843749
14600.0	40052934.44824218
14610.0	39935609.80224609
14620.0	39420940.67382812
14630.0	39035317.9321289
14640.0	40276685.42480468
14650.0	40282691.223144524
