# Flux units: erg / (cm m2 s)
# Wavelength units: Angstrom
wave	flux
7000.0	1589597.1908569334
7010.0	1607664.2532348628
7020.0	1635174.2248535154
7030.0	1662605.743408203
7040.0	1684223.968505859
7050.0	1710496.3378906248
7060.0	1718523.6511230464
7070.0	1740702.8045654295
7080.0	1769281.631469726
7090.0	1789944.023132324
7100.0	1813060.6002807613
7110.0	1840348.9227294917
7120.0	1865638.6642456052
7130.0	1886283.0963134763
7140.0	1910249.2904663084
7150.0	1936965.9194946284
7160.0	1965208.1375122068
7170.0	1990091.4459228513
7180.0	2019191.1773681638
7190.0	2047140.8691406248
7200.0	2074872.3526000972
7210.0	2100040.718078613
7220.0	2131218.4219360347
7230.0	2160250.709533691
7240.0	2187386.38305664
7250.0	2220558.3801269527
7260.0	2248425.2929687495
7270.0	2278990.7913208003
7280.0	2311632.9116821284
7290.0	2341421.3714599605
7300.0	2378519.699096679
7310.0	2405562.6449584956
7320.0	2444903.5797119136
7330.0	2476779.602050781
7340.0	2499361.2136840816
7350.0	2525426.132202148
7360.0	2559149.551391601
7370.0	2597588.012695312
7380.0	2624895.4467773433
7390.0	2652318.8018798823
7400.0	2685821.685791015
7410.0	2715859.0698242183
7420.0	2741510.7727050777
7430.0	2780633.850097656
7440.0	2814344.467163085
7450.0	2840420.6237792964
7460.0	2875473.95324707
7470.0	2910705.871582031
7480.0	2943478.17993164
7490.0	2980461.1663818355
7500.0	3017142.1051025386
7510.0	3048884.5062255855
7520.0	3084142.24243164
7530.0	3121235.687255859
7540.0	3155759.933471679
7550.0	3192150.070190429
7560.0	3226416.870117187
7570.0	3262324.340820312
7580.0	3296778.3966064444
7590.0	3325787.902832031
7600.0	3352102.4627685538
7610.0	3382175.872802734
7620.0	3407774.047851562
7630.0	3415371.765136718
7640.0	3404770.4162597647
7650.0	3361048.904418945
7660.0	3272356.0028076167
7670.0	2941625.106811523
7680.0	3405467.453002929
7690.0	3459418.6248779288
7700.0	3070784.4657897945
7710.0	3539294.052124023
7720.0	3691868.6981201163
7730.0	3803034.3475341788
7740.0	3888801.1169433584
7750.0	3955200.2563476553
7760.0	4015124.00817871
7770.0	4066426.7883300777
7780.0	4123842.6055908194
7790.0	4174114.0594482413
7800.0	4176466.8426513667
7810.0	4286436.477661132
7820.0	4340339.17236328
7830.0	4382120.300292968
7840.0	4433356.414794921
7850.0	4483021.484374999
7860.0	4544198.135375976
7870.0	4591307.540893554
7880.0	4660011.978149413
7890.0	4718648.330688476
7900.0	4769732.864379882
7910.0	4819859.100341796
7920.0	4852534.454345702
7930.0	4922912.09411621
7940.0	4985001.602172851
7950.0	4969900.039672851
7960.0	5110455.627441405
7970.0	5159556.30493164
7980.0	5218623.01635742
7990.0	5267029.144287108
8000.0	5333931.976318358
8010.0	5381155.029296874
8020.0	5457894.897460937
8030.0	5524548.30932617
8040.0	5586264.282226562
8050.0	5629809.326171874
8060.0	5704287.170410155
8070.0	5781593.719482421
8080.0	5864705.71899414
8090.0	5930861.236572265
8100.0	6042923.950195312
8110.0	6101290.222167968
8120.0	6193050.628662108
8130.0	6314397.186279296
8140.0	6401578.491210936
8150.0	6511712.06665039
8160.0	6603590.545654296
8170.0	6658609.558105468
8180.0	6777318.817138671
8190.0	6744855.072021483
8200.0	6628908.447265623
8210.0	6709631.958007812
8220.0	6898823.608398436
8230.0	6920037.231445312
8240.0	7054969.482421874
8250.0	7067882.965087889
8260.0	7173113.128662108
8270.0	7260212.097167968
8280.0	7251073.272705076
8290.0	7200339.263916014
8300.0	7442986.450195312
8310.0	7400961.914062499
8320.0	7504444.305419921
8330.0	7642608.917236326
8340.0	7697750.79345703
8350.0	7689620.849609374
8360.0	7784466.033935546
8370.0	7876754.821777342
8380.0	8018322.631835937
8390.0	7934851.074218748
8400.0	8057514.709472654
8410.0	8464734.49707031
8420.0	8394775.543212889
8430.0	8446062.438964842
8440.0	8198941.22314453
8450.0	8199953.796386718
8460.0	8255734.558105467
8470.0	8330659.423828124
8480.0	8432209.93041992
8490.0	8502942.169189451
8500.0	8613001.464843748
8510.0	8681173.278808592
8520.0	8780164.36767578
8530.0	8840656.524658201
8540.0	8916557.647705076
8550.0	9054006.744384764
8560.0	9166191.406249998
8570.0	9234776.550292967
8580.0	9366459.625244139
8590.0	9383922.363281248
8600.0	9453712.585449217
8610.0	9558598.480224608
8620.0	9669728.82080078
8630.0	9746302.337646483
8640.0	9812779.11376953
8650.0	9898857.482910154
8660.0	10055867.00439453
8670.0	10140323.05908203
8680.0	10173213.531494139
8690.0	10223320.861816404
8700.0	10152032.714843748
8710.0	10263105.468749998
8720.0	10355170.898437498
8730.0	10575200.683593748
8740.0	10584935.974121092
8750.0	10788955.139160154
8760.0	11067886.04736328
8770.0	11141040.34423828
8780.0	11337488.40332031
8790.0	11434419.860839842
8800.0	11272727.66113281
8810.0	11683263.122558592
8820.0	12012324.462890621
8830.0	12103332.214355467
8840.0	12621376.09863281
8850.0	12393612.42675781
8860.0	12420861.511230467
8870.0	11851433.837890623
8880.0	11964981.506347654
8890.0	12247260.620117186
8900.0	12310276.550292967
8910.0	12713577.697753904
8920.0	12467500.61035156
8930.0	12921280.029296871
8940.0	12919438.537597654
8950.0	12912149.53613281
8960.0	12977056.213378903
8970.0	13252562.072753903
8980.0	13527846.61865234
8990.0	13624142.272949215
9000.0	13979781.127929684
9010.0	14552968.078613278
9020.0	14556269.95849609
9030.0	14225238.464355465
9040.0	14391475.952148434
9050.0	15360594.665527342
9060.0	15094747.009277342
9070.0	15234976.135253903
9080.0	17570122.253417965
9090.0	16587654.846191403
9100.0	16173669.799804686
9110.0	16633252.075195309
9120.0	18112266.967773434
9130.0	17860100.463867184
9140.0	17423162.658691403
9150.0	18572199.401855465
9160.0	19383759.70458984
9170.0	19565123.840332028
9180.0	18774876.281738278
9190.0	20792767.883300778
9200.0	19583737.121582028
9210.0	17763463.439941403
9220.0	17072900.207519528
9230.0	16748030.944824215
9240.0	16672121.093749996
9250.0	17080418.945312496
9260.0	17118489.929199215
9270.0	17253885.559082028
9280.0	16732800.659179686
9290.0	16990783.020019528
9300.0	17100430.78613281
9310.0	17075186.15722656
9320.0	17595122.436523434
9330.0	17388042.358398434
9340.0	18234624.023437496
9350.0	17427950.866699215
9360.0	18149807.37304687
9370.0	18083359.191894528
9380.0	18903111.816406246
9390.0	18599846.13037109
9400.0	19175941.284179684
9410.0	19147783.752441403
9420.0	20425701.11083984
9430.0	20401306.335449215
9440.0	19904383.54492187
9450.0	20097516.479492184
9460.0	20923341.06445312
9470.0	20265061.523437496
9480.0	21857835.20507812
9490.0	23205610.22949218
9500.0	20743439.636230465
9510.0	21550495.666503903
9520.0	22889703.857421868
9530.0	22834816.406249996
9540.0	24352422.363281243
9550.0	23349049.43847656
9560.0	23790271.484374993
9570.0	23603005.24902343
9580.0	26808146.11816406
9590.0	26170300.292968746
9600.0	24682458.25195312
9610.0	26276278.44238281
9620.0	24966222.77832031
9630.0	28271381.59179687
9640.0	25420230.71289062
9650.0	26942804.32128906
9660.0	28944786.987304684
9670.0	29809467.89550781
9680.0	29575175.292968746
9690.0	29447517.21191406
9700.0	31107373.291015618
9710.0	28969774.291992184
9720.0	30497204.833984368
9730.0	28140918.70117187
9740.0	27818175.170898434
9750.0	28140078.124999996
9760.0	29175680.29785156
9770.0	28702167.480468746
9780.0	29413074.707031246
9790.0	29442645.385742184
9800.0	30534042.11425781
9810.0	29545431.762695305
9820.0	27514681.03027343
9830.0	28640206.176757805
9840.0	30086193.237304684
9850.0	30351628.051757805
9860.0	31157800.41503906
9870.0	32148031.61621093
9880.0	30739700.195312493
9890.0	33949233.39843749
9900.0	24410134.643554684
9910.0	22491721.92382812
9920.0	22718776.855468746
9930.0	23492322.143554684
9940.0	24266736.08398437
9950.0	24888376.22070312
9960.0	25094753.784179684
9970.0	25859320.312499993
9980.0	25153232.17773437
9990.0	24629962.646484368
10000.0	25615945.617675774
10010.0	26047183.22753906
10020.0	26404713.623046868
10030.0	28111741.88232421
10040.0	26527960.99853515
10050.0	27631974.487304684
10060.0	25588401.12304687
10070.0	27154503.723144524
10080.0	28594316.772460934
10090.0	28439731.62841796
10100.0	30432709.289550774
10110.0	28651659.973144528
10120.0	28551316.52832031
10130.0	29667294.982910153
10140.0	27908781.18896484
10150.0	30113332.336425778
10160.0	28670329.284667965
10170.0	28550220.45898437
10180.0	31019939.453124993
10190.0	29721339.05029296
10200.0	29242817.9321289
10210.0	31818195.800781243
10220.0	29407171.081542965
10230.0	31210626.037597653
10240.0	32792190.429687493
10250.0	32214105.468749993
10260.0	29767265.38085937
10270.0	30730640.50292968
10280.0	30409107.910156243
10290.0	31766309.265136715
10300.0	31222239.868164055
10310.0	33597672.91259765
10320.0	32047523.86474609
10330.0	34103499.38964843
10340.0	32518457.88574218
10350.0	34474926.02539062
10360.0	35557135.80322265
10370.0	36764648.49853515
10380.0	35592054.016113274
10390.0	34541381.164550774
10400.0	36876391.78466796
10410.0	40542778.19824218
10420.0	35495182.31201171
10430.0	33761018.188476555
10440.0	39567585.20507812
10450.0	43172799.43847655
10460.0	49427257.32421874
10470.0	34794004.57763671
10480.0	37465453.36914062
10490.0	43048605.89599609
10500.0	41656451.90429687
10510.0	40740434.08203124
10520.0	36622181.03027343
10530.0	46273346.92382811
10540.0	45940679.321289055
10550.0	46827973.63281249
10560.0	41576974.24316405
10570.0	38783693.54248046
10580.0	48828444.27490233
10590.0	47064058.593749985
10600.0	50562678.10058593
10610.0	46412142.94433593
10620.0	42959431.274414055
10630.0	50128906.49414062
10640.0	59756622.92480468
10650.0	54465196.16699218
10660.0	50767245.97167968
10670.0	45006080.32226562
10680.0	54499682.250976555
10690.0	61347805.05371092
10700.0	56650215.08789062
10710.0	59629294.67773437
10720.0	64460536.2548828
10730.0	57755077.2705078
10740.0	63705905.395507805
10750.0	66267008.911132805
10760.0	68685643.6767578
10770.0	72951070.06835936
10780.0	77849286.37695311
10790.0	72920067.99316405
10800.0	72994311.88964842
10810.0	69053127.19726561
10820.0	70335796.26464842
10830.0	77505888.30566405
10840.0	85979601.44042967
10850.0	79045292.23632811
10860.0	76877014.16015624
10870.0	76189981.5673828
10880.0	82742267.57812499
10890.0	66829907.83691405
10900.0	76119976.19628905
10910.0	75536142.94433592
10920.0	79286786.01074217
10930.0	79058529.54101561
10940.0	76072305.90820311
10950.0	78604449.70703124
10960.0	71188744.2626953
10970.0	77831638.67187499
10980.0	73093470.21484374
10990.0	73323301.8798828
11000.0	71174588.37890624
11010.0	74562496.09374999
11020.0	74686433.22753905
11030.0	65471363.15917968
11040.0	65415147.5830078
11050.0	67686606.07910155
11060.0	65520593.50585937
11070.0	63550339.9658203
11080.0	66117513.67187499
11090.0	67927326.90429686
11100.0	64148632.08007811
11110.0	62762738.76953124
11120.0	70002776.97753905
11130.0	71421205.2001953
11140.0	68009562.74414061
11150.0	69915212.15820311
11160.0	72441626.95312499
11170.0	68137594.97070311
11180.0	79460248.1689453
11190.0	72777830.56640624
11200.0	68989331.1767578
11210.0	70438959.96093749
11220.0	75999251.83105467
11230.0	75792548.9501953
11240.0	80653352.29492186
11250.0	80426466.79687499
11260.0	81610849.85351561
11270.0	80326035.40039061
11280.0	82505959.1064453
11290.0	83273577.51464842
11300.0	76109781.98242186
11310.0	85084704.10156247
11320.0	82970471.19140624
11330.0	80243817.74902342
11340.0	74784249.99999999
11350.0	66678625.122070305
11360.0	79520627.19726561
11370.0	79919048.82812499
11380.0	68901520.01953124
11390.0	76630353.75976561
11400.0	78309265.7470703
11410.0	69166265.62499999
11420.0	83855675.17089841
11430.0	82468170.65429686
11440.0	76544896.48437499
11450.0	87849165.77148435
11460.0	90598767.08984374
11470.0	86334828.12499999
11480.0	82321014.89257811
11490.0	97018658.69140624
11500.0	96300114.74609374
11510.0	92722083.98437499
11520.0	94498479.12597653
11530.0	89830452.75878905
11540.0	87042230.71289061
11550.0	100394397.7050781
11560.0	96788012.20703122
11570.0	95154769.53124999
11580.0	97231837.89062497
11590.0	99438739.01367186
11600.0	90949384.76562499
11610.0	89375107.17773436
11620.0	96264047.24121092
11630.0	102909088.25683591
11640.0	88658345.70312499
11650.0	104817216.30859372
11660.0	91457903.07617186
11670.0	100225371.82617185
11680.0	95020684.08203124
11690.0	70338222.53417967
11700.0	83921548.9501953
11710.0	98514995.36132811
11720.0	103592980.46874997
11730.0	101877811.03515624
11740.0	98113544.67773436
11750.0	99756868.4082031
11760.0	90463781.49414061
11770.0	76252680.66406249
11780.0	70068590.20996092
11790.0	93847638.91601561
11800.0	101081443.84765624
11810.0	102100859.86328124
11820.0	101360355.22460936
11830.0	108223482.42187497
11840.0	104384215.57617186
11850.0	108075200.43945311
11860.0	106961758.30078124
11870.0	111400704.34570311
11880.0	109888453.97949217
11890.0	100612809.93652342
11900.0	111375391.84570311
11910.0	113341800.53710936
11920.0	115737296.14257811
11930.0	118092283.4472656
11940.0	102330247.07031249
11950.0	100254494.38476561
11960.0	103403230.7128906
11970.0	96481365.23437499
11980.0	88605424.31640622
11990.0	94577376.95312499
12000.0	91420808.34960936
12010.0	93534031.73828124
12020.0	94389942.13867185
12030.0	96944647.21679686
12040.0	111440130.1269531
12050.0	105204567.6269531
12060.0	131645152.34374997
12070.0	108080556.15234372
12080.0	124695291.99218749
12090.0	104997265.62499999
12100.0	121910982.66601561
12110.0	101177790.77148436
12120.0	110322030.27343749
12130.0	115335440.18554685
12140.0	128886492.4316406
12150.0	129052241.45507811
12160.0	125538340.57617185
12170.0	129925224.60937497
12180.0	132206937.98828122
12190.0	131505299.31640624
12200.0	121660905.02929686
12210.0	121895871.58203124
12220.0	119393673.09570311
12230.0	118642842.77343747
12240.0	129016518.06640622
12250.0	144637389.64843747
12260.0	140280239.99023435
12270.0	139447849.60937497
12280.0	149088192.13867185
12290.0	140756132.0800781
12300.0	138047008.54492185
12310.0	144894800.78124997
12320.0	131581466.79687497
12330.0	135361045.65429685
12340.0	141931594.72656247
12350.0	131220255.1269531
12360.0	134310568.35937497
12370.0	142108134.76562497
12380.0	139701451.17187497
12390.0	130977884.76562499
12400.0	135912069.5800781
12410.0	114382090.33203124
12420.0	114511882.0800781
12430.0	113580692.38281249
12440.0	103697019.7753906
12450.0	140930998.04687497
12460.0	137296417.72460935
12470.0	141506286.62109372
12480.0	132840074.21874997
12490.0	141795910.88867185
12500.0	128967996.3378906
12510.0	139989111.81640622
12520.0	114155181.51855467
12530.0	114596861.4501953
12540.0	147739343.9941406
12550.0	137971661.3769531
12560.0	142057393.7988281
12570.0	162229896.48437497
12580.0	143608115.23437497
12590.0	148049469.9707031
12600.0	152264690.6738281
12610.0	166819675.0488281
12620.0	144676923.33984372
12630.0	151267101.8066406
12640.0	142565788.81835935
12650.0	149164621.3378906
12660.0	156494899.90234372
12670.0	167188793.45703122
12680.0	162181826.90429685
12690.0	174378482.6660156
12700.0	160314186.27929685
12710.0	165984971.9238281
12720.0	177593761.71874997
12730.0	177372489.74609372
12740.0	161904729.7363281
12750.0	154810406.73828122
12760.0	173557281.4941406
12770.0	168383612.79296872
12780.0	167736557.61718747
12790.0	178810651.85546872
12800.0	173105065.42968747
12810.0	169111989.74609372
12820.0	176836876.4648437
12830.0	165995837.1582031
12840.0	173750775.6347656
12850.0	176401461.4257812
12860.0	154718862.30468747
12870.0	173491198.73046872
12880.0	171067573.73046872
12890.0	172995802.49023435
12900.0	183288585.2050781
12910.0	177725862.79296872
12920.0	172074813.7207031
12930.0	164700179.9316406
12940.0	191511746.3378906
12950.0	173504381.1035156
12960.0	199229253.41796872
12970.0	193606661.6210937
12980.0	198592722.65624997
12990.0	187081954.5898437
13000.0	197357796.87499994
13010.0	187039659.6679687
13020.0	196789470.21484372
13030.0	192119676.26953122
13040.0	200420941.40624994
13050.0	190645814.45312494
13060.0	208517129.88281247
13070.0	180173736.32812497
13080.0	200824815.6738281
13090.0	187962218.9941406
13100.0	192966720.70312497
13110.0	203530515.13671872
13120.0	204205685.0585937
13130.0	193432348.63281247
13140.0	196117771.48437497
13150.0	200404772.94921872
13160.0	195787424.80468747
13170.0	198351991.21093744
13180.0	185987062.0117187
13190.0	201316331.54296872
13200.0	183986966.79687494
13210.0	190936034.17968744
13220.0	185325915.03906247
13230.0	190324990.23437497
13240.0	180967266.11328122
13250.0	164055681.15234372
13260.0	184342026.36718747
13270.0	162650530.76171872
13280.0	168466502.92968744
13290.0	170877167.96874997
13300.0	157933901.36718747
13310.0	142223515.8691406
13320.0	117739978.02734374
13330.0	120141709.22851561
13340.0	127851645.01953122
13350.0	91726047.85156249
13360.0	101341368.65234374
13370.0	95155865.84472655
13380.0	96015140.01464842
13390.0	100708196.04492186
13400.0	106431672.36328124
13410.0	110574917.72460935
13420.0	94400070.55664061
13430.0	92574252.44140622
13440.0	104420304.44335936
13450.0	95918293.94531249
13460.0	104120597.16796874
13470.0	97074045.41015624
13480.0	89501049.31640622
13490.0	104718006.1035156
13500.0	101497162.10937499
13510.0	97963719.11621092
13520.0	94237262.8173828
13530.0	102691259.76562499
13540.0	88018429.44335936
13550.0	91368824.70703124
13560.0	99142962.64648436
13570.0	99213140.01464842
13580.0	97365248.1689453
13590.0	98536756.59179686
13600.0	101077768.55468749
13610.0	100924173.82812499
13620.0	89324954.58984374
13630.0	107537485.35156249
13640.0	106300440.91796874
13650.0	100109838.37890622
13660.0	108494187.7441406
13670.0	103651423.0957031
13680.0	103515766.72363278
13690.0	99815745.2392578
13700.0	102340321.53320311
13710.0	98948443.84765624
13720.0	103781723.87695311
13730.0	104173629.39453124
13740.0	101936657.71484374
13750.0	104823016.35742186
13760.0	107107570.31249997
13770.0	103595806.15234374
13780.0	113347102.6611328
13790.0	107198912.96386717
13800.0	117065912.84179685
13810.0	107600607.42187497
13820.0	116791588.13476561
13830.0	98774835.44921874
13840.0	115207115.96679686
13850.0	109266061.03515624
13860.0	108144724.36523436
13870.0	114672571.04492186
13880.0	104643182.61718749
13890.0	118566019.77539061
13900.0	110375075.4394531
13910.0	103504253.66210935
13920.0	106706283.44726561
13930.0	110059130.12695311
13940.0	106711013.9160156
13950.0	105482070.31249999
13960.0	107261618.16406247
13970.0	108328701.90429685
13980.0	103041701.90429686
13990.0	109836788.33007811
14000.0	103881924.56054685
14010.0	101663458.98437497
14020.0	113710967.28515624
14030.0	109840692.13867186
14040.0	103305222.16796874
14050.0	105527046.63085935
14060.0	122637216.79687499
14070.0	103401685.79101561
14080.0	105802736.08398436
14090.0	105851658.20312499
14100.0	105823271.48437499
14110.0	107361578.61328124
14120.0	100816403.80859374
14130.0	113242115.23437497
14140.0	105496093.50585935
14150.0	105614387.20703124
14160.0	112745325.92773436
14170.0	104603882.81249997
14180.0	99987438.23242186
14190.0	104316611.32812499
14200.0	107478725.58593749
14210.0	109086802.61230467
14220.0	106311732.54394528
14230.0	105770129.88281249
14240.0	103581506.1035156
14250.0	107321691.6503906
14260.0	102016533.69140624
14270.0	109178472.65624997
14280.0	105535211.42578124
14290.0	97641432.37304686
14300.0	117550921.63085936
14310.0	116587539.06249999
14320.0	105589487.06054685
14330.0	108585763.42773436
14340.0	99057794.18945311
14350.0	115828670.41015622
14360.0	114112299.07226561
14370.0	110866411.86523435
14380.0	113678055.17578122
14390.0	114311190.18554686
14400.0	108826775.39062499
14410.0	106953654.05273436
14420.0	109149477.53906249
14430.0	119271059.32617185
14440.0	117019683.34960935
14450.0	105338368.89648435
14460.0	116224297.60742185
14470.0	109110967.77343747
14480.0	117713401.85546872
14490.0	123657596.92382811
14500.0	114596568.11523435
14510.0	108001384.76562499
14520.0	131822561.52343749
14530.0	123203782.22656249
14540.0	111219080.56640622
14550.0	128511176.51367185
14560.0	115397666.99218747
14570.0	111682469.23828122
14580.0	124293284.66796872
14590.0	128355226.31835936
14600.0	127388525.14648435
14610.0	124872697.99804686
14620.0	117919801.26953124
14630.0	112176272.94921872
14640.0	125891991.45507811
