# Flux units: erg / (cm m2 s)
# Wavelength units: Angstrom
wave	flux
7000.0	536300.3158569335
7010.0	544746.929168701
7020.0	553318.9830780028
7030.0	562007.3814392089
7040.0	570776.7982482909
7050.0	579570.083618164
7060.0	588589.126586914
7070.0	597668.9662933348
7080.0	606899.0802764891
7090.0	616182.777404785
7100.0	625591.8464660643
7110.0	635138.2102966307
7120.0	644785.2153778075
7130.0	654494.0452575682
7140.0	664335.4187011716
7150.0	674303.2608032224
7160.0	684351.6960144042
7170.0	694489.7651672362
7180.0	704812.6144409179
7190.0	715244.2932128905
7200.0	725774.8184204099
7210.0	736401.8363952636
7220.0	747182.1670532225
7230.0	758077.2018432616
7240.0	769071.2852478026
7250.0	780215.7058715819
7260.0	791456.9206237792
7270.0	802836.0061645507
7280.0	814333.9691162107
7290.0	825968.9140319823
7300.0	837738.1057739257
7310.0	849595.6153869628
7320.0	861641.9563293455
7330.0	873786.3311767576
7340.0	885968.3265686034
7350.0	898274.2042541503
7360.0	910823.6351013182
7370.0	923506.7749023436
7380.0	936266.128540039
7390.0	949145.5268859862
7400.0	962229.579925537
7410.0	975386.6424560546
7420.0	988616.0888671874
7430.0	1002202.339172363
7440.0	1015805.9844970701
7450.0	1029478.5842895505
7460.0	1043405.8914184568
7470.0	1057452.3925781248
7480.0	1071600.1472473142
7490.0	1085987.407684326
7500.0	1100489.1395568845
7510.0	1115056.011199951
7520.0	1129815.6814575193
7530.0	1144768.7950134275
7540.0	1159838.6611938474
7550.0	1175068.0160522459
7560.0	1190357.696533203
7570.0	1205882.270812988
7580.0	1221591.556549072
7590.0	1237385.1661682127
7600.0	1253277.862548828
7610.0	1269372.2572326658
7620.0	1285570.2056884763
7630.0	1301717.5292968748
7640.0	1317704.8034667964
7650.0	1332952.5756835935
7660.0	1345470.909118652
7670.0	1232168.3063507078
7680.0	1382220.0546264646
7690.0	1400036.895751953
7700.0	1293627.798080444
7710.0	1435237.2055053709
7720.0	1455798.629760742
7730.0	1474990.3869628904
7740.0	1493753.311157226
7750.0	1512400.5203247068
7760.0	1531167.8543090818
7770.0	1550013.2751464841
7780.0	1569120.2163696287
7790.0	1588271.6293334956
7800.0	1606981.9107055662
7810.0	1627362.2970581052
7820.0	1647117.568969726
7830.0	1666848.54888916
7840.0	1686971.1761474607
7850.0	1707240.3869628902
7860.0	1727782.5241088865
7870.0	1748314.186096191
7880.0	1769258.0947875972
7890.0	1790316.4749145505
7900.0	1811442.5659179685
7910.0	1832430.7861328123
7920.0	1853767.036437988
7930.0	1875746.383666992
7940.0	1897817.8176879878
7950.0	1918858.7112426753
7960.0	1942369.9874877925
7970.0	1964565.2999877927
7980.0	1987355.9417724607
7990.0	2010163.3529663084
8000.0	2033168.563842773
8010.0	2056395.9121704097
8020.0	2079921.4172363277
8030.0	2103729.415893554
8040.0	2127594.2916870113
8050.0	2151420.3643798823
8060.0	2175814.3539428706
8070.0	2200357.872009277
8080.0	2225255.4397583003
8090.0	2250197.3114013667
8100.0	2275674.0570068355
8110.0	2300911.4761352534
8120.0	2326662.1398925777
8130.0	2352878.3187866206
8140.0	2379300.6057739253
8150.0	2405790.161132812
8160.0	2432686.7675781245
8170.0	2459468.7042236323
8180.0	2487242.8359985347
8190.0	2513573.5397338863
8200.0	2534644.882202148
8210.0	2565831.7184448238
8220.0	2594524.4140624995
8230.0	2621989.959716796
8240.0	2651048.110961913
8250.0	2678676.513671874
8260.0	2707581.649780273
8270.0	2736407.3791503897
8280.0	2764671.1730957027
8290.0	2792563.1713867183
8300.0	2823708.9538574214
8310.0	2852077.3468017573
8320.0	2882368.8507080073
8330.0	2912714.462280273
8340.0	2943159.744262695
8350.0	2972815.612792968
8360.0	3003690.353393554
8370.0	3034687.7746582027
8380.0	3066598.0377197256
8390.0	3095978.820800781
8400.0	3128328.8574218745
8410.0	3163773.1933593745
8420.0	3194105.545043945
8430.0	3226079.4372558584
8440.0	3254981.1096191397
8450.0	3286955.7952880855
8460.0	3319429.5043945303
8470.0	3352625.762939452
8480.0	3386565.689086913
8490.0	3419993.8049316397
8500.0	3454393.4478759756
8510.0	3488383.3465576167
8520.0	3523087.1582031245
8530.0	3556763.50402832
8540.0	3591003.5552978506
8550.0	3626997.5280761714
8560.0	3662820.8160400386
8570.0	3698169.5098876944
8580.0	3734469.3298339834
8590.0	3769017.822265624
8600.0	3804850.6317138667
8610.0	3841357.40661621
8620.0	3878268.8903808584
8630.0	3914865.585327148
8640.0	3952251.373291015
8650.0	3988936.401367187
8660.0	4028146.7742919913
8670.0	4065815.292358398
8680.0	4103072.6623535147
8690.0	4139889.175415038
8700.0	4179630.386352538
8710.0	4213815.917968749
8720.0	4256588.806152343
8730.0	4298391.250610351
8740.0	4335553.86352539
8750.0	4377072.692871093
8760.0	4420442.2454833975
8770.0	4460657.470703124
8780.0	4502118.164062499
8790.0	4543102.294921874
8800.0	4562195.190429687
8810.0	4631936.721801757
8820.0	4670481.613159179
8830.0	4714713.882446288
8840.0	4760281.799316405
8850.0	4805497.589111327
8860.0	4848093.719482421
8870.0	4882115.38696289
8880.0	4927359.512329101
8890.0	4972142.089843749
8900.0	5017038.040161132
8910.0	5065917.999267577
8920.0	5103079.605102538
8930.0	5156226.22680664
8940.0	5198591.766357421
8950.0	5237644.134521483
8960.0	5285979.278564451
8970.0	5334777.923583983
8980.0	5387026.245117187
8990.0	5430749.023437498
9000.0	5481809.478759765
9010.0	5537821.990966796
9020.0	5583244.93408203
9030.0	5624233.245849608
9040.0	5671925.933837889
9050.0	5734245.727539061
9060.0	5774514.80102539
9070.0	5824948.05908203
9080.0	5915922.515869139
9090.0	5946202.545166015
9100.0	5986936.279296874
9110.0	6044191.406249998
9120.0	6118184.783935545
9130.0	6160823.760986327
9140.0	6204693.786621093
9150.0	6274594.818115233
9160.0	6340765.136718749
9170.0	6390346.771240233
9180.0	6433037.506103515
9190.0	6520798.30932617
9200.0	6548564.849853515
9210.0	6560500.45776367
9220.0	6596155.883789062
9230.0	6626151.67236328
9240.0	6692131.256103514
9250.0	6750067.626953124
9260.0	6802255.523681639
9270.0	6854302.856445312
9280.0	6886504.913330077
9290.0	6941273.712158201
9300.0	7008200.805664061
9310.0	7057209.136962889
9320.0	7123921.53930664
9330.0	7169578.338623046
9340.0	7225340.057373046
9350.0	7269137.390136717
9360.0	7346269.653320311
9370.0	7393717.163085936
9380.0	7480268.066406248
9390.0	7527919.464111327
9400.0	7599102.172851562
9410.0	7653264.434814451
9420.0	7739684.082031249
9430.0	7793364.379882811
9440.0	7838519.073486327
9450.0	7896841.46118164
9460.0	7977961.791992186
9470.0	8005832.885742186
9480.0	8089212.310791014
9490.0	8199653.259277343
9500.0	8202825.256347655
9510.0	8280863.739013671
9520.0	8362461.639404296
9530.0	8421124.206542967
9540.0	8521503.72314453
9550.0	8556930.938720701
9560.0	8604537.200927733
9570.0	8687272.613525389
9580.0	8824410.217285154
9590.0	8869898.25439453
9600.0	8893442.077636717
9610.0	8999923.95019531
9620.0	9001932.403564451
9630.0	9156100.250244139
9640.0	9165509.490966795
9650.0	9285390.777587889
9660.0	9378539.550781248
9670.0	9444053.253173826
9680.0	9547138.214111326
9690.0	9627661.041259764
9700.0	9708999.48120117
9710.0	9744108.306884764
9720.0	9823926.788330076
9730.0	9803183.471679686
9740.0	9851817.657470701
9750.0	9947539.03198242
9760.0	10019727.142333983
9770.0	10086203.43017578
9780.0	10183546.630859373
9790.0	10309692.565917967
9800.0	10354513.366699217
9810.0	10380384.58251953
9820.0	10395606.323242184
9830.0	10495442.565917967
9840.0	10596618.408203123
9850.0	10683337.951660153
9860.0	10756763.244628903
9870.0	10875026.00097656
9880.0	10867901.794433592
9890.0	11091528.25927734
9900.0	10856846.618652342
9910.0	10781835.205078123
9920.0	10901903.564453123
9930.0	11030995.605468748
9940.0	11127440.06347656
9950.0	11248180.175781246
9960.0	11323374.14550781
9970.0	11467790.710449217
9980.0	11502398.193359373
9990.0	11456081.054687498
10000.0	11602140.869140623
10010.0	11705171.569824217
10020.0	11803970.428466793
10030.0	11946787.933349608
10040.0	11911055.14526367
10050.0	12088097.747802733
10060.0	12042008.483886717
10070.0	12162215.332031248
10080.0	12358874.511718748
10090.0	12386274.780273436
10100.0	12574682.067871092
10110.0	12533773.223876951
10120.0	12677852.142333983
10130.0	12856838.928222653
10140.0	12736444.824218748
10150.0	12965298.79760742
10160.0	12944445.465087887
10170.0	12999690.36865234
10180.0	13264909.881591795
10190.0	13228093.109130858
10200.0	13294398.25439453
10210.0	13528899.35302734
10220.0	13420248.046874996
10230.0	13689461.639404293
10240.0	13842327.514648434
10250.0	13807888.61083984
10260.0	13676149.871826168
10270.0	13798348.724365233
10280.0	13866469.543457028
10290.0	14057946.777343748
10300.0	14084161.987304686
10310.0	14361955.749511717
10320.0	14302716.918945309
10330.0	14448521.30126953
10340.0	14531589.843749998
10350.0	14680961.608886717
10360.0	14864178.863525387
10370.0	14970937.744140621
10380.0	14955201.354980465
10390.0	15064605.194091793
10400.0	15182558.715820309
10410.0	15496118.92700195
10420.0	15331685.15014648
10430.0	15256056.396484373
10440.0	15739444.213867184
10450.0	15933091.125488278
10460.0	16203703.70483398
10470.0	15619307.495117184
10480.0	15899157.196044918
10490.0	16237704.284667965
10500.0	16267084.777832028
10510.0	16221003.35693359
10520.0	16124407.53173828
10530.0	16754586.02905273
10540.0	16790225.799560543
10550.0	16839687.499999996
10560.0	16725101.68457031
10570.0	16677215.240478512
10580.0	17251653.533935543
10590.0	17265700.561523434
10600.0	17515091.73583984
10610.0	17275793.39599609
10620.0	17372585.20507812
10630.0	17675701.354980465
10640.0	18252358.306884762
10650.0	18072724.273681637
10660.0	18056902.374267574
10670.0	17847878.967285153
10680.0	18249029.05273437
10690.0	18669978.30200195
10700.0	18537528.5949707
10710.0	18766076.324462887
10720.0	19244771.72851562
10730.0	18896650.207519528
10740.0	19468764.373779293
10750.0	19646428.100585934
10760.0	19977753.2043457
10770.0	20189858.18481445
10780.0	20570992.553710934
10790.0	20269819.366455074
10800.0	20529389.038085934
10810.0	20327377.71606445
10820.0	20584889.190673824
10830.0	21314840.057373043
10840.0	21874163.848876946
10850.0	21606681.70166015
10860.0	21546572.87597656
10870.0	21430974.06005859
10880.0	21978670.104980465
10890.0	21148019.409179684
10900.0	21674428.039550778
10910.0	21811639.709472653
10920.0	22133907.47070312
10930.0	21926866.271972653
10940.0	22024719.909667965
10950.0	22363619.537353512
10960.0	21888808.929443352
10970.0	22443895.324707028
10980.0	22326343.50585937
10990.0	22286447.570800778
11000.0	22332346.13037109
11010.0	22602835.69335937
11020.0	23093423.889160153
11030.0	22227906.311035153
11040.0	22471511.535644528
11050.0	22576019.28710937
11060.0	22537916.320800778
11070.0	22560430.969238278
11080.0	22821900.878906246
11090.0	23113473.87695312
11100.0	22912473.75488281
11110.0	22922412.04833984
11120.0	23368367.370605465
11130.0	23604280.51757812
11140.0	23456210.81542968
11150.0	23568678.34472656
11160.0	24099873.718261715
11170.0	23738468.261718746
11180.0	24747830.32226562
11190.0	24367520.385742184
11200.0	24187999.084472653
11210.0	24524919.00634765
11220.0	24983267.761230465
11230.0	24958665.28320312
11240.0	25456395.690917965
11250.0	25667959.289550778
11260.0	25628099.304199215
11270.0	25836951.53808593
11280.0	26079829.406738278
11290.0	26218858.215332024
11300.0	25913006.347656246
11310.0	26469397.644042965
11320.0	26306607.727050778
11330.0	26461216.55273437
11340.0	26287834.89990234
11350.0	25281338.562011715
11360.0	26870767.700195305
11370.0	26887753.35693359
11380.0	26193288.879394528
11390.0	26869966.73583984
11400.0	27388324.035644528
11410.0	26815927.368164055
11420.0	27604318.29833984
11430.0	27879246.643066403
11440.0	26990614.074707028
11450.0	28118362.24365234
11460.0	28520948.12011718
11470.0	28287191.467285153
11480.0	28294251.159667965
11490.0	29282108.215332028
11500.0	29359616.638183586
11510.0	29215403.99169921
11520.0	29441803.222656243
11530.0	29487447.50976562
11540.0	29110736.8774414
11550.0	30357256.958007805
11560.0	30556393.676757805
11570.0	30039242.7368164
11580.0	30598093.505859368
11590.0	31233135.62011718
11600.0	30205326.965332028
11610.0	30557082.153320305
11620.0	31148022.460937493
11630.0	31361684.44824218
11640.0	30417150.146484368
11650.0	32421353.515624996
11660.0	31021054.38232421
11670.0	31904391.96777343
11680.0	31925820.8618164
11690.0	29931408.26416015
11700.0	31597624.572753903
11710.0	32207031.555175774
11720.0	32884300.659179684
11730.0	32579317.13867187
11740.0	32376821.47216796
11750.0	33089438.90380859
11760.0	32239781.616210934
11770.0	31622860.71777343
11780.0	30870333.496093743
11790.0	32880683.654785153
11800.0	33404924.804687493
11810.0	33463915.222167965
11820.0	33457402.46582031
11830.0	34513439.88037109
11840.0	34418144.77539062
11850.0	34695902.09960937
11860.0	34482847.41210937
11870.0	35571156.860351555
11880.0	35137975.58593749
11890.0	34754076.84326171
11900.0	35634520.629882805
11910.0	35571349.243164055
11920.0	35918104.67529296
11930.0	36722797.05810546
11940.0	35413429.56542968
11950.0	35408314.086914055
11960.0	35769268.371582024
11970.0	35356750.36621093
11980.0	34948363.22021484
11990.0	35863281.00585937
12000.0	35343147.277832024
12010.0	36028101.56249999
12020.0	36089088.4399414
12030.0	36305978.21044921
12040.0	37710828.61328124
12050.0	37467087.219238274
12060.0	39916053.77197265
12070.0	37611502.13623046
12080.0	39177458.67919921
12090.0	38038641.05224609
12100.0	39579787.719726555
12110.0	38037639.09912109
12120.0	38636164.672851555
12130.0	38956259.82666015
12140.0	40664375.122070305
12150.0	40902176.02539062
12160.0	40847574.829101555
12170.0	40804780.21240234
12180.0	41706390.68603515
12190.0	42067493.89648437
12200.0	41048064.88037109
12210.0	41423742.37060546
12220.0	41518599.426269524
12230.0	41562874.99999999
12240.0	42438256.652832024
12250.0	43776078.36914062
12260.0	43868533.08105467
12270.0	43698618.04199218
12280.0	44790834.594726555
12290.0	44792666.25976562
12300.0	44208822.02148437
12310.0	45460296.386718735
12320.0	43974072.50976562
12330.0	44687883.30078124
12340.0	45993661.743164055
12350.0	44652339.477539055
12360.0	45790344.48242187
12370.0	46144780.15136718
12380.0	46031118.774414055
12390.0	45020717.52929686
12400.0	45901138.671874985
12410.0	43328512.69531249
12420.0	42863028.93066405
12430.0	44092123.53515624
12440.0	43093764.282226555
12450.0	46638055.175781235
12460.0	46138669.555664055
12470.0	47258602.53906249
12480.0	46013837.524414055
12490.0	48008939.69726562
12500.0	46851754.51660155
12510.0	47899175.53710937
12520.0	45864057.00683593
12530.0	46044302.61230468
12540.0	49260079.101562485
12550.0	47494537.59765624
12560.0	48530188.23242187
12570.0	50449729.125976555
12580.0	48570416.50390624
12590.0	49680346.313476555
12600.0	49792682.37304687
12610.0	52034467.52929686
12620.0	49050791.38183592
12630.0	50609634.15527342
12640.0	50188066.65039062
12650.0	50703275.87890624
12660.0	51640203.613281235
12670.0	53024292.968749985
12680.0	52545115.11230467
12690.0	54008671.14257811
12700.0	52908932.86132811
12710.0	53084196.411132805
12720.0	54828716.06445312
12730.0	55201994.14062499
12740.0	53269609.497070305
12750.0	52989627.19726562
12760.0	54986600.7080078
12770.0	55018268.92089842
12780.0	54480725.09765624
12790.0	56197148.31542967
12800.0	55591865.23437499
12810.0	55446182.86132812
12820.0	57070814.81933593
12830.0	55635440.30761718
12840.0	56544876.098632805
12850.0	57740047.85156249
12860.0	54159910.52246093
12870.0	57521845.825195305
12880.0	57078588.37890624
12890.0	57149804.321289055
12900.0	58910630.61523437
12910.0	57562963.989257805
12920.0	57404098.99902342
12930.0	57983126.22070312
12940.0	61115748.41308593
12950.0	57451494.38476562
12960.0	60651001.70898437
12970.0	61481244.62890624
12980.0	62173630.004882805
12990.0	60735124.02343749
13000.0	62046312.011718735
13010.0	60982303.46679687
13020.0	62740723.51074218
13030.0	62080282.22656249
13040.0	64658083.00781249
13050.0	63364430.66406249
13060.0	64343386.8408203
13070.0	61903117.797851555
13080.0	62826707.76367186
13090.0	62187120.117187485
13100.0	63195007.56835937
13110.0	64588658.44726561
13120.0	65983018.31054687
13130.0	64096543.457031235
13140.0	64128835.449218735
13150.0	65293054.44335937
13160.0	64907515.38085937
13170.0	65609847.53417968
13180.0	63371145.019531235
13190.0	66343621.94824218
13200.0	64606799.316406235
13210.0	64415889.648437485
13220.0	65179036.49902343
13230.0	65336609.25292967
13240.0	64632775.512695305
13250.0	61288391.96777343
13260.0	64979352.78320311
13270.0	62226722.65624999
13280.0	62179889.89257811
13290.0	63592037.35351561
13300.0	61676890.86914061
13310.0	58962395.01953124
13320.0	56232756.835937485
13330.0	54558114.25781249
13340.0	57223287.35351562
13350.0	49641737.30468749
13360.0	53358734.61914061
13370.0	51886387.45117187
13380.0	52223322.14355468
13390.0	53158124.51171874
13400.0	54587420.043945305
13410.0	55758024.41406249
13420.0	51594187.01171874
13430.0	50733662.35351562
13440.0	54437324.829101555
13450.0	52148907.59277343
13460.0	53789042.84667967
13470.0	52521304.07714842
13480.0	51070705.688476555
13490.0	55445665.1611328
13500.0	54118217.04101561
13510.0	53028252.563476555
13520.0	52569110.10742187
13530.0	54360408.325195305
13540.0	50700157.83691405
13550.0	52168875.61035155
13560.0	54552249.99999999
13570.0	54475475.708007805
13580.0	53603372.558593735
13590.0	53704639.52636718
13600.0	54315069.335937485
13610.0	54989003.29589843
13620.0	51681380.61523437
13630.0	56627852.29492187
13640.0	55468696.899414055
13650.0	55259739.62402343
13660.0	56221119.62890624
13670.0	54884102.050781235
13680.0	55084504.516601555
13690.0	55197415.77148437
13700.0	55122920.043945305
13710.0	53903087.40234374
13720.0	55523635.62011717
13730.0	56074264.89257811
13740.0	54715927.73437499
13750.0	55527423.09570312
13760.0	56316298.461914055
13770.0	55331673.09570312
13780.0	59017266.47949218
13790.0	56781199.09667967
13800.0	59279033.44726562
13810.0	58276562.25585936
13820.0	59844015.50292968
13830.0	56140629.15039061
13840.0	59440208.61816405
13850.0	58398059.81445312
13860.0	58894101.92871092
13870.0	58633666.25976561
13880.0	57635723.266601555
13890.0	60403342.65136717
13900.0	59013963.86718749
13910.0	57705862.91503905
13920.0	58455936.15722655
13930.0	59372349.48730468
13940.0	58444223.63281249
13950.0	58477103.75976561
13960.0	59501502.19726562
13970.0	59775367.3095703
13980.0	58401077.75878905
13990.0	60519887.57324217
14000.0	58166525.26855468
14010.0	58358817.87109374
14020.0	61429767.08984374
14030.0	59913952.02636718
14040.0	58563758.42285155
14050.0	59346566.65039061
14060.0	63217447.3876953
14070.0	59021529.17480468
14080.0	60223431.03027343
14090.0	60010095.45898437
14100.0	59446321.89941405
14110.0	60519196.53320311
14120.0	59163687.011718735
14130.0	62279305.54199218
14140.0	60715989.50195312
14150.0	59765376.098632805
14160.0	62026166.74804686
14170.0	59915432.49511717
14180.0	58910799.43847655
14190.0	60731460.937499985
14200.0	60648748.168945305
14210.0	61378527.09960936
14220.0	61171456.66503905
14230.0	60832402.22167967
14240.0	61400113.89160155
14250.0	61594926.391601555
14260.0	60195550.17089843
14270.0	62411009.64355468
14280.0	61002792.48046874
14290.0	58850251.70898437
14300.0	65229701.17187499
14310.0	64761078.12499999
14320.0	61842245.727539055
14330.0	61818495.36132811
14340.0	60202335.69335936
14350.0	64645359.863281235
14360.0	64377470.58105467
14370.0	63989931.762695305
14380.0	64389572.50976561
14390.0	64778434.20410155
14400.0	63042743.16406249
14410.0	62582064.33105468
14420.0	63258958.98437499
14430.0	66938599.85351561
14440.0	65534078.49121093
14450.0	63352144.531249985
14460.0	65582790.77148437
14470.0	63890305.297851555
14480.0	66472453.97949217
14490.0	68584353.51562499
14500.0	66850403.68652343
14510.0	64273589.9658203
14520.0	70604212.28027342
14530.0	67897048.33984374
14540.0	65109326.04980467
14550.0	70002833.37402342
14560.0	66853264.89257812
14570.0	65964560.30273436
14580.0	68596463.13476561
14590.0	70300704.58984374
14600.0	70326694.82421874
14610.0	69805223.63281249
14620.0	67750825.92773436
14630.0	67026332.51953124
14640.0	70166809.44824217
14650.0	69979853.39355467
14660.0	72423930.29785155
14670.0	70864085.20507811
