# Flux units: erg / (cm m2 s)
# Wavelength units: Angstrom
wave	flux
7000.0	471709.54132080066
7010.0	479323.22883605945
7020.0	487406.83174133295
7030.0	495865.03601074213
7040.0	503493.8812255858
7050.0	511160.12573242176
7060.0	516787.8475189208
7070.0	524718.9025878905
7080.0	534577.5642395018
7090.0	541774.4560241698
7100.0	550362.2875213622
7110.0	559577.3811340331
7120.0	568789.7300720214
7130.0	575925.7831573485
7140.0	584563.6978149413
7150.0	594266.164779663
7160.0	604303.4896850585
7170.0	612835.027694702
7180.0	623106.5502166747
7190.0	632907.4535369872
7200.0	643046.194076538
7210.0	652029.5181274413
7220.0	663142.7040100096
7230.0	673408.1954956054
7240.0	683245.708465576
7250.0	694520.538330078
7260.0	704735.8398437499
7270.0	715655.6167602538
7280.0	726909.2712402341
7290.0	737815.1168823241
7300.0	750253.7269592284
7310.0	760758.804321289
7320.0	773835.8230590819
7330.0	785771.9078063964
7340.0	793677.1736145017
7350.0	801578.9985656737
7360.0	814643.6882019042
7370.0	827927.8335571287
7380.0	838216.0034179686
7390.0	848082.0198059081
7400.0	860767.1585083007
7410.0	872203.5827636718
7420.0	881578.342437744
7430.0	896348.1369018554
7440.0	909598.2971191405
7450.0	918791.6564941405
7460.0	932866.6191101072
7470.0	946794.1513061522
7480.0	959429.9163818358
7490.0	974788.0783081054
7500.0	990108.4861755369
7510.0	1001776.5731811522
7520.0	1015958.5914611814
7530.0	1032272.0680236814
7540.0	1046993.3090209959
7550.0	1062330.39855957
7560.0	1078470.317840576
7570.0	1094431.6101074216
7580.0	1108102.7908325193
7590.0	1122280.0979614255
7600.0	1137373.4207153318
7610.0	1153593.9140319822
7620.0	1171602.1995544431
7630.0	1184251.3999938963
7640.0	1199656.181335449
7650.0	1214098.4802246091
7660.0	1222436.2297058103
7670.0	1100709.0764045713
7680.0	1258394.1993713377
7690.0	1276837.074279785
7700.0	1154364.5458221433
7710.0	1308634.4757080076
7720.0	1329887.5350952144
7730.0	1353487.4038696287
7740.0	1370731.5597534177
7750.0	1386149.5361328123
7760.0	1403690.406799316
7770.0	1420227.325439453
7780.0	1440967.1783447263
7790.0	1458987.0452880857
7800.0	1479062.4160766597
7810.0	1501620.2239990232
7820.0	1520696.0372924802
7830.0	1538046.0433959959
7840.0	1555560.3103637693
7850.0	1575790.9317016597
7860.0	1597211.975097656
7870.0	1616683.7997436519
7880.0	1643529.6630859373
7890.0	1665436.9125366206
7900.0	1680896.7056274412
7910.0	1699402.2293090816
7920.0	1715105.7815551755
7930.0	1737626.9607543943
7940.0	1762184.2269897459
7950.0	1784548.0499267573
7960.0	1809859.5275878904
7970.0	1826596.267700195
7980.0	1849163.2385253902
7990.0	1870014.48059082
8000.0	1895485.9390258787
8010.0	1914005.3329467769
8020.0	1939114.2578124995
8030.0	1965773.75793457
8040.0	1993120.52154541
8050.0	2008644.882202148
8060.0	2035304.2221069331
8070.0	2065847.2976684566
8080.0	2095370.8953857417
8090.0	2126271.736145019
8100.0	2159801.7425537105
8110.0	2189694.198608398
8120.0	2218631.553649902
8130.0	2262523.117065429
8140.0	2308048.66027832
8150.0	2341346.5347290034
8160.0	2392924.7894287105
8170.0	2440543.3959960933
8180.0	2510627.853393554
8190.0	2518963.356018066
8200.0	2441931.2973022456
8210.0	2449882.5378417964
8220.0	2514015.7089233394
8230.0	2522178.4362792964
8240.0	2585849.647521972
8250.0	2596560.493469238
8260.0	2623904.205322265
8270.0	2664244.735717773
8280.0	2665777.236938476
8290.0	2665688.6596679683
8300.0	2732272.9797363277
8310.0	2733694.915771484
8320.0	2770699.9206542964
8330.0	2825098.541259765
8340.0	2845472.48840332
8350.0	2856079.1168212886
8360.0	2894041.7022705073
8370.0	2927919.9676513667
8380.0	2973661.1328124995
8390.0	2977525.4669189444
8400.0	3023391.906738281
8410.0	3130028.289794921
8420.0	3119411.743164062
8430.0	3147386.5356445303
8440.0	3109262.4206542964
8450.0	3129383.2855224605
8460.0	3159913.6962890616
8470.0	3191396.4385986323
8480.0	3230436.340332031
8490.0	3263839.1113281245
8500.0	3305312.9272460933
8510.0	3336801.391601562
8520.0	3376519.7143554683
8530.0	3400746.2158203116
8540.0	3427998.9166259756
8550.0	3475740.417480468
8560.0	3519623.550415038
8570.0	3555183.547973632
8580.0	3595498.672485351
8590.0	3610844.0093994136
8600.0	3642418.2739257803
8610.0	3686126.7700195303
8620.0	3736025.604248046
8630.0	3769017.1051025386
8640.0	3797881.6833496084
8650.0	3835916.503906249
8660.0	3879855.4687499995
8670.0	3914482.9559326163
8680.0	3937108.4594726553
8690.0	3984806.1523437495
8700.0	4029252.8533935538
8710.0	4066871.093749999
8720.0	4123273.925781249
8730.0	4179480.1177978506
8740.0	4226050.872802733
8750.0	4246031.1126708975
8760.0	4316856.185913085
8770.0	4359866.8060302725
8780.0	4418469.848632812
8790.0	4479773.91052246
8800.0	4463015.319824218
8810.0	4657739.837646483
8820.0	4633523.559570312
8830.0	4731446.578979491
8840.0	4832581.741333007
8850.0	4956667.800903319
8860.0	4903199.157714843
8870.0	4806661.544799804
8880.0	4827612.625122069
8890.0	4926444.229125976
8900.0	4963982.89489746
8910.0	5073376.983642577
8920.0	5035845.153808593
8930.0	5232842.483520507
8940.0	5185949.279785155
8950.0	5202008.850097655
8960.0	5244423.553466796
8970.0	5378097.32055664
8980.0	5447416.96166992
8990.0	5454187.469482421
9000.0	5681676.757812498
9010.0	5809754.241943358
9020.0	5757235.50415039
9030.0	5800520.355224608
9040.0	5754417.175292968
9050.0	6058376.037597655
9060.0	6241328.857421873
9070.0	6119686.309814452
9080.0	6955773.773193358
9090.0	6674913.269042968
9100.0	6433780.883789061
9110.0	6702724.456787108
9120.0	7069882.019042967
9130.0	7082644.409179686
9140.0	7178417.022705076
9150.0	7318285.12573242
9160.0	7652243.62182617
9170.0	7620022.857666014
9180.0	7684997.955322265
9190.0	8285191.619873045
9200.0	7949893.676757812
9210.0	7187053.8024902325
9220.0	6800019.622802733
9230.0	6703363.037109374
9240.0	6732611.48071289
9250.0	6859198.364257811
9260.0	6888568.542480467
9270.0	6979411.468505858
9280.0	6883202.331542967
9290.0	6936263.122558593
9300.0	7033343.994140624
9310.0	7067870.300292967
9320.0	7181639.80102539
9330.0	7197625.793457029
9340.0	7336776.763916015
9350.0	7393255.004882812
9360.0	7441575.927734374
9370.0	7453683.502197265
9380.0	7655080.200195312
9390.0	7688306.2438964825
9400.0	7878396.881103514
9410.0	7927103.057861327
9420.0	8255180.175781248
9430.0	8188040.252685546
9440.0	8155445.190429687
9450.0	8167292.846679686
9460.0	8510610.626220701
9470.0	8262659.942626952
9480.0	8606448.760986326
9490.0	9060848.93798828
9500.0	8762569.763183592
9510.0	8834389.251708983
9520.0	9099114.501953123
9530.0	9134113.006591795
9540.0	9572219.024658201
9550.0	9373187.46948242
9560.0	9372648.010253904
9570.0	9756680.63354492
9580.0	10469710.968017576
9590.0	10347803.68041992
9600.0	10130547.119140623
9610.0	10685026.855468748
9620.0	10122645.507812498
9630.0	10961411.315917967
9640.0	10487883.056640623
9650.0	11360276.062011717
9660.0	11529143.432617186
9670.0	11628637.81738281
9680.0	12019547.424316404
9690.0	12572387.207031248
9700.0	12540027.64892578
9710.0	12525441.772460936
9720.0	12880536.560058592
9730.0	11205751.159667967
9740.0	11118755.432128903
9750.0	11365313.720703123
9760.0	11682351.86767578
9770.0	11676290.405273436
9780.0	11908326.232910154
9790.0	13188616.82128906
9800.0	12715184.69238281
9810.0	12144686.64550781
9820.0	11562219.05517578
9830.0	12003829.528808592
9840.0	12406856.56738281
9850.0	12559805.603027342
9860.0	12782315.612792965
9870.0	13296000.488281246
9880.0	12653745.178222654
9890.0	14291117.675781246
9900.0	12459676.147460934
9910.0	11639627.25830078
9920.0	12112027.832031246
9930.0	12317159.973144528
9940.0	13011479.187011717
9950.0	13545223.510742184
9960.0	13745318.725585934
9970.0	14642551.330566404
9980.0	14267048.27880859
9990.0	13316134.09423828
10000.0	14015580.474853514
10010.0	14070613.06762695
10020.0	14181916.77856445
10030.0	14626208.557128904
10040.0	14107926.08642578
10050.0	15177059.997558592
10060.0	14335729.278564451
10070.0	15120360.32104492
10080.0	15481379.699707028
10090.0	15162975.06713867
10100.0	16271594.085693356
10110.0	15667709.045410153
10120.0	16942649.078369137
10130.0	17617561.27929687
10140.0	15499192.779541012
10150.0	16121158.050537108
10160.0	15936623.504638668
10170.0	15929231.658935543
10180.0	17084102.32543945
10190.0	16149513.458251951
10200.0	17093995.05615234
10210.0	17588944.366455074
10220.0	16420062.591552733
10230.0	17865225.67749023
10240.0	18311195.5871582
10250.0	17325099.273681637
10260.0	16166666.10717773
10270.0	16571111.663818358
10280.0	16490762.756347653
10290.0	17385562.499999996
10300.0	17104292.205810543
10310.0	18520684.35668945
10320.0	17636948.394775387
10330.0	17686607.910156246
10340.0	18761373.229980465
10350.0	19096624.542236324
10360.0	20245827.209472653
10370.0	20231910.61401367
10380.0	19217844.085693356
10390.0	19767930.023193356
10400.0	20011887.115478512
10410.0	20987716.88842773
10420.0	20645822.265624996
10430.0	19854467.52929687
10440.0	22595264.831542965
10450.0	23013322.753906246
10460.0	23012031.00585937
10470.0	20004653.320312496
10480.0	21610101.31835937
10490.0	22621141.113281246
10500.0	22290337.890624996
10510.0	22144216.003417965
10520.0	21236618.28613281
10530.0	23732952.636718746
10540.0	24770759.124755856
10550.0	23824942.84057617
10560.0	22911650.57373046
10570.0	22752975.52490234
10580.0	24743968.139648434
10590.0	24346039.6118164
10600.0	26265497.19238281
10610.0	24629336.791992184
10620.0	25380515.38085937
10630.0	25962486.57226562
10640.0	28414371.27685546
10650.0	27245366.455078118
10660.0	27073569.335937496
10670.0	26248899.169921868
10680.0	27549175.292968743
10690.0	29437029.846191403
10700.0	28783219.848632805
10710.0	28754299.011230465
10720.0	31944490.783691403
10730.0	29907521.72851562
10740.0	32344236.206054684
10750.0	32709786.499023434
10760.0	34414531.555175774
10770.0	35270265.258789055
10780.0	35539748.5961914
10790.0	33860599.243164055
10800.0	34749760.74218749
10810.0	33943680.05371093
10820.0	34148992.43164062
10830.0	38806497.375488274
10840.0	41792166.87011718
10850.0	39848755.493164055
10860.0	38748821.77734374
10870.0	36056055.54199218
10880.0	38706936.27929687
10890.0	32954716.613769528
10900.0	35697096.496582024
10910.0	36393254.76074218
10920.0	37314944.946289055
10930.0	34356355.89599609
10940.0	35295353.39355468
10950.0	37088318.35937499
10960.0	33030431.945800778
10970.0	35945532.65380859
10980.0	34924019.28710937
10990.0	33589963.74511718
11000.0	33995140.31982421
11010.0	34572392.27294921
11020.0	38277936.03515624
11030.0	30924774.10888671
11040.0	31073259.765624993
11050.0	31003561.340332024
11060.0	30530868.774414055
11070.0	30336729.37011718
11080.0	31331444.580078118
11090.0	32773014.404296868
11100.0	30475282.226562493
11110.0	31534786.804199215
11120.0	32365435.30273437
11130.0	33479067.81005859
11140.0	31976697.143554684
11150.0	32655403.442382805
11160.0	34741723.69384765
11170.0	32296169.067382805
11180.0	37295972.59521484
11190.0	34677362.06054687
11200.0	33475501.098632805
11210.0	35549385.49804687
11220.0	37392662.84179687
11230.0	35797469.360351555
11240.0	38036257.20214843
11250.0	39179548.88916015
11260.0	37672377.92968749
11270.0	38848651.489257805
11280.0	40299004.08935546
11290.0	39799809.75341796
11300.0	38819337.524414055
11310.0	40148372.192382805
11320.0	38286202.08740234
11330.0	39097728.57666015
11340.0	38661322.02148437
11350.0	32364557.373046868
11360.0	40420314.14794921
11370.0	39725107.78808593
11380.0	36491004.76074218
11390.0	38919206.23779296
11400.0	41482440.5517578
11410.0	39457912.231445305
11420.0	40483277.34374999
11430.0	42192582.641601555
11440.0	35933853.02734374
11450.0	41370091.67480468
11460.0	42526606.32324218
11470.0	41565010.864257805
11480.0	42296533.08105468
11490.0	44679575.317382805
11500.0	44909947.14355468
11510.0	43999013.18359374
11520.0	44166157.348632805
11530.0	45032240.72265624
11540.0	42770811.157226555
11550.0	47272478.02734374
11560.0	48505000.73242187
11570.0	44068413.57421874
11580.0	47399174.621582024
11590.0	51276904.35791014
11600.0	44878394.89746093
11610.0	46842159.179687485
11620.0	48144691.58935546
11630.0	47683660.94970702
11640.0	43521905.395507805
11650.0	53562502.075195305
11660.0	46148563.23242187
11670.0	48208592.77343749
11680.0	49511252.92968749
11690.0	42454885.559082024
11700.0	47758568.78662108
11710.0	47874340.20996093
11720.0	51250888.91601562
11730.0	49279924.56054687
11740.0	46762143.79882812
11750.0	51403914.672851555
11760.0	46356248.29101562
11770.0	46662652.28271484
11780.0	43734002.136230454
11790.0	48146647.583007805
11800.0	49295397.70507811
11810.0	48727410.278320305
11820.0	48131534.301757805
11830.0	53752379.63867186
11840.0	52880624.633789055
11850.0	53878040.161132805
11860.0	51733145.38574218
11870.0	56977951.90429687
11880.0	53551829.34570312
11890.0	52241215.08789061
11900.0	54691301.879882805
11910.0	53182428.40576171
11920.0	54141192.81005858
11930.0	58814174.438476555
11940.0	54426342.77343749
11950.0	54364409.05761717
11960.0	55133655.02929687
11970.0	53179553.710937485
11980.0	52102775.39062499
11990.0	55398280.3955078
12000.0	51716047.11914061
12010.0	56934792.23632811
12020.0	55955026.85546874
12030.0	55141266.84570311
12040.0	59256346.31347655
12050.0	60187626.46484374
12060.0	67405945.67871092
12070.0	56600119.62890624
12080.0	63020396.6064453
12090.0	59330324.829101555
12100.0	63963475.46386718
12110.0	60987257.56835936
12120.0	61062181.27441405
12130.0	60366510.00976562
12140.0	66148366.57714842
12150.0	68364507.08007811
12160.0	68946394.28710936
12170.0	64089653.19824217
12180.0	70462908.20312499
12190.0	71502939.08691405
12200.0	68251075.80566405
12210.0	69055483.5205078
12220.0	68737648.92578124
12230.0	68341056.64062499
12240.0	71101212.52441405
12250.0	74054446.89941405
12260.0	75048431.51855467
12270.0	72515898.43749999
12280.0	76031384.27734374
12290.0	78649420.89843749
12300.0	74838930.41992186
12310.0	79010536.86523436
12320.0	74094694.82421874
12330.0	76445854.12597655
12340.0	80757578.73535155
12350.0	77284932.7392578
12360.0	81692260.62011717
12370.0	80528803.58886717
12380.0	78776712.89062499
12390.0	76200992.06542967
12400.0	82768724.97558592
12410.0	71213207.64160155
12420.0	65540344.11621092
12430.0	71505835.93749999
12440.0	67676164.06249999
12450.0	76986196.89941405
12460.0	72862287.71972655
12470.0	77995126.46484374
12480.0	73789261.59667967
12490.0	82480865.60058592
12500.0	79070361.32812499
12510.0	81772534.66796874
12520.0	77765839.72167967
12530.0	78242067.26074217
12540.0	84687278.5644531
12550.0	78044414.91699217
12560.0	80674363.03710936
12570.0	83363335.69335935
12580.0	76619002.44140624
12590.0	82677238.76953124
12600.0	81914299.31640624
12610.0	88479373.04687499
12620.0	76872035.64453124
12630.0	86265435.30273435
12640.0	86053579.58984374
12650.0	85255692.38281249
12660.0	86698125.97656249
12670.0	89575803.46679686
12680.0	90058598.02246092
12690.0	92595820.67871092
12700.0	90610569.33593749
12710.0	91094261.23046874
12720.0	93156012.93945311
12730.0	94948714.72167966
12740.0	89297920.04394528
12750.0	89176328.61328124
12760.0	93737110.10742185
12770.0	96199960.32714842
12780.0	92223712.52441405
12790.0	96310990.23437499
12800.0	94054265.8691406
12810.0	95268226.31835936
12820.0	100232154.05273435
12830.0	93109603.14941405
12840.0	97696512.32910155
12850.0	98119371.09374999
12860.0	90440600.09765622
12870.0	96300082.51953122
12880.0	97377099.60937499
12890.0	96379257.81249999
12900.0	102895199.46289061
12910.0	98225776.12304686
12920.0	94959238.76953124
12930.0	99091563.72070311
12940.0	107504292.72460935
12950.0	94018081.78710935
12960.0	102938838.62304685
12970.0	106193238.03710935
12980.0	107352267.57812497
12990.0	103235495.3613281
13000.0	106844084.2285156
13010.0	102531326.4160156
13020.0	107344420.89843747
13030.0	103595835.44921874
13040.0	113440123.77929686
13050.0	109540349.36523436
13060.0	108695408.69140622
13070.0	103686580.56640622
13080.0	103368624.26757811
13090.0	101571875.73242185
13100.0	102730203.85742186
13110.0	104919898.19335935
13120.0	112370094.23828124
13130.0	104622223.38867186
13140.0	103470880.37109374
13150.0	106793354.24804685
13160.0	106566597.90039061
13170.0	106837499.51171872
13180.0	100527002.19726561
13190.0	108334562.25585936
13200.0	105977538.08593749
13210.0	101593189.45312499
13220.0	106849205.32226561
13230.0	105372984.37499997
13240.0	104896771.48437499
13250.0	90566574.46289061
13260.0	102357826.90429686
13270.0	96211191.40624999
13280.0	91502534.17968749
13290.0	97254787.35351561
13300.0	92004052.73437499
13310.0	81335471.67968749
13320.0	77667063.23242186
13330.0	68343054.68749999
13340.0	77542198.3642578
13350.0	55810333.98437499
13360.0	67598349.12109374
13370.0	64715563.35449217
13380.0	64820224.48730467
13390.0	66113034.301757805
13400.0	69872045.89843749
13410.0	70831722.7783203
13420.0	59600523.071289055
13430.0	56006181.762695305
13440.0	66834847.7783203
13450.0	60952684.082031235
13460.0	63364850.46386717
13470.0	60995374.38964843
13480.0	57544816.16210936
13490.0	70747842.65136717
13500.0	64687443.35937499
13510.0	60403596.43554687
13520.0	59642431.88476562
13530.0	64399768.6767578
13540.0	54936963.25683592
13550.0	61119913.2080078
13560.0	65786661.49902343
13570.0	63391194.64111327
13580.0	60785791.5649414
13590.0	60189459.777832024
13600.0	61878377.136230454
13610.0	62996470.58105468
13620.0	54667801.8798828
13630.0	67667970.21484374
13640.0	62057212.76855468
13650.0	63219166.015624985
13660.0	64255584.22851562
13670.0	59740595.21484374
13680.0	60485240.53955077
13690.0	63589893.85986327
13700.0	60070605.83496092
13710.0	56315420.532226555
13720.0	60298299.9267578
13730.0	61599130.859374985
13740.0	56924671.386718735
13750.0	59346742.55371093
13760.0	61148942.87109374
13770.0	58018925.65917967
13780.0	68824668.27392577
13790.0	61963096.374511704
13800.0	66868006.10351562
13810.0	66255143.79882811
13820.0	69996374.87792967
13830.0	62135320.25146484
13840.0	67817945.73974608
13850.0	65216037.84179687
13860.0	66935321.53320311
13870.0	63786095.94726561
13880.0	61775183.47167967
13890.0	67714397.70507811
13900.0	64630086.18164062
13910.0	62844877.31933592
13920.0	63409622.43652343
13930.0	65299176.51367186
13940.0	63338608.520507805
13950.0	63092767.21191405
13960.0	65549956.42089842
13970.0	65725049.07226562
13980.0	62286145.690917954
13990.0	67482797.42431639
14000.0	61446410.64453124
14010.0	61155126.34277343
14020.0	69679596.31347655
14030.0	64266473.87695311
14040.0	62744319.70214843
14050.0	63283531.12792968
14060.0	70351316.77246092
14070.0	61547170.532226555
14080.0	65411295.53222655
14090.0	64290189.20898436
14100.0	61655611.20605468
14110.0	64751417.72460936
14120.0	62924235.59570311
14130.0	67750556.64062499
14140.0	65331807.86132811
14150.0	61255271.36230467
14160.0	66307288.69628905
14170.0	62221045.77636718
14180.0	60878931.39648437
14190.0	64472297.9736328
14200.0	62766554.93164061
14210.0	64652923.9501953
14220.0	64186644.28710936
14230.0	62824042.35839842
14240.0	65303300.53710936
14250.0	64609100.95214842
14260.0	61894038.208007805
14270.0	65912474.85351561
14280.0	62274473.144531235
14290.0	57925820.31249999
14300.0	72134566.04003905
14310.0	70716081.05468749
14320.0	63589876.34277343
14330.0	63035748.41308593
14340.0	61036223.87695312
14350.0	68641033.44726561
14360.0	67962207.03124999
14370.0	67448927.97851561
14380.0	68080532.83691405
14390.0	68768319.94628905
14400.0	65026442.26074217
14410.0	64044937.74414061
14420.0	65154529.785156235
14430.0	73214289.1845703
14440.0	69553678.10058592
14450.0	65946777.70996092
14460.0	68545580.32226561
14470.0	65294187.988281235
14480.0	71055190.67382811
14490.0	75308070.31249999
14500.0	72983584.35058592
14510.0	66826307.25097655
14520.0	78162846.92382811
14530.0	72888077.63671874
14540.0	67754773.5595703
14550.0	77351112.18261717
14560.0	70263571.77734374
14570.0	69162929.68749999
14580.0	73145062.01171874
14590.0	77391873.1689453
14600.0	76767520.75195311
14610.0	75526231.93359374
14620.0	71251446.16699217
14630.0	70417123.53515624
14640.0	75979483.15429686
14650.0	75582099.7314453
14660.0	79363789.91699217
14670.0	75250002.56347655
14680.0	73168978.14941405
