# Flux units: erg / (cm m2 s)
# Wavelength units: Angstrom
wave	flux
7000.0	63494879999999.99
7010.0	64463330047999.99
7020.0	65481591807999.99
7030.0	66525511423999.984
7040.0	67539258879999.984
7050.0	68562042111999.984
7060.0	69533057279999.984
7070.0	70582187263999.98
7080.0	71696511487999.98
7090.0	72745739775999.98
7100.0	73837407743999.98
7110.0	74967520511999.98
7120.0	76100900351999.98
7130.0	77182995455999.98
7140.0	78317091071999.98
7150.0	79489681919999.98
7160.0	80681543935999.98
7170.0	81837933055999.98
7180.0	83061176063999.98
7190.0	84282174719999.98
7200.0	85518942719999.98
7210.0	86731126783999.98
7220.0	88018387967999.97
7230.0	89292481023999.98
7240.0	90560322047999.97
7250.0	91886930943999.98
7260.0	93187289087999.97
7270.0	94521053183999.98
7280.0	95878239743999.98
7290.0	97233272831999.98
7300.0	98654255615999.98
7310.0	100010870783999.98
7320.0	101478978047999.97
7330.0	102908518911999.98
7340.0	104234278399999.98
7350.0	105586678271999.98
7360.0	107074331647999.97
7370.0	108597341695999.98
7380.0	110037887487999.97
7390.0	111475045375999.98
7400.0	113005485055999.98
7410.0	114505677823999.97
7420.0	115967615999999.98
7430.0	117596493311999.98
7440.0	119182746623999.97
7450.0	120685315071999.98
7460.0	122318853631999.98
7470.0	123958953471999.98
7480.0	125580320255999.98
7490.0	127288826367999.97
7500.0	129006534655999.98
7510.0	130643225087999.97
7520.0	132358473215999.98
7530.0	134138930687999.97
7540.0	135889654783999.97
7550.0	137676641791999.98
7560.0	139474053119999.97
7570.0	141300785151999.97
7580.0	143085999103999.97
7590.0	144855196671999.97
7600.0	146650628607999.97
7610.0	148517154303999.97
7620.0	150409830399999.97
7630.0	152134599167999.97
7640.0	153809622015999.97
7650.0	155190087679999.97
7660.0	155603044863999.97
7670.0	140920454783999.97
7680.0	160412786175999.97
7690.0	162571773951999.97
7700.0	147565915647999.97
7710.0	166595755007999.97
7720.0	169578926591999.97
7730.0	172137452543999.97
7740.0	174427664383999.97
7750.0	176578271231999.97
7760.0	178768637951999.97
7770.0	180911542271999.97
7780.0	183208189951999.97
7790.0	185410456575999.94
7800.0	187507228671999.97
7810.0	190129522687999.97
7820.0	192418704383999.97
7830.0	194611439615999.94
7840.0	196912551935999.94
7850.0	199270043647999.97
7860.0	201731951615999.94
7870.0	204080999423999.97
7880.0	206723547135999.94
7890.0	209225096191999.97
7900.0	211550393343999.97
7910.0	213909977087999.97
7920.0	216180084735999.94
7930.0	218853646335999.94
7940.0	221515018239999.97
7950.0	223790767103999.97
7960.0	226829376511999.97
7970.0	229268076543999.97
7980.0	231920824319999.97
7990.0	234496831487999.94
8000.0	237263062015999.94
8010.0	239822034943999.97
8020.0	242667774975999.94
8030.0	245522745343999.97
8040.0	248401035263999.97
8050.0	250914287615999.94
8060.0	253845183487999.94
8070.0	256895403007999.94
8080.0	260004336639999.94
8090.0	263049676799999.94
8100.0	266423828479999.94
8110.0	269446840319999.94
8120.0	272640534527999.94
8130.0	276372229119999.94
8140.0	279989778431999.97
8150.0	283414117375999.94
8160.0	287227789311999.94
8170.0	290653886463999.94
8180.0	295153511423999.94
8190.0	297291518975999.94
8200.0	296688092159999.94
8210.0	299841457151999.94
8220.0	304499899391999.94
8230.0	307029455871999.94
8240.0	311457682431999.94
8250.0	314006089727999.94
8260.0	317484439551999.94
8270.0	321147893759999.94
8280.0	323473625087999.94
8290.0	325540567039999.94
8300.0	330641264639999.94
8310.0	332830546943999.94
8320.0	336602674175999.94
8330.0	340972113919999.94
8340.0	344155176959999.94
8350.0	346792824831999.94
8360.0	350604492799999.94
8370.0	354311845887999.94
8380.0	358582808575999.94
8390.0	360764399615999.94
8400.0	364982099967999.94
8410.0	372048578559999.94
8420.0	373967284223999.94
8430.0	377482493951999.9
8440.0	377939501055999.94
8450.0	381037735935999.94
8460.0	384630478847999.94
8470.0	388395823103999.94
8480.0	392494053375999.94
8490.0	396297687039999.94
8500.0	400541102079999.94
8510.0	404332337151999.9
8520.0	408515203071999.9
8530.0	412102631423999.94
8540.0	415892154367999.94
8550.0	420485937151999.9
8560.0	424877037567999.94
8570.0	428850479103999.94
8580.0	433302958079999.94
8590.0	436613894143999.94
8600.0	440570111999999.94
8610.0	444993697791999.9
8620.0	449572945919999.94
8630.0	453633847295999.9
8640.0	457733023743999.94
8650.0	461869000703999.94
8660.0	466782371839999.94
8670.0	470983090175999.9
8680.0	474722799615999.9
8690.0	479012990975999.9
8700.0	483529035775999.9
8710.0	486659246079999.94
8720.0	492481843199999.94
8730.0	498080753663999.94
8740.0	501968246783999.94
8750.0	506731098111999.9
8760.0	513143838719999.94
8770.0	517621452799999.9
8780.0	523032995839999.9
8790.0	528207421439999.9
8800.0	528250421247999.94
8810.0	541314951167999.94
8820.0	544709183487999.94
8830.0	551366703103999.94
8840.0	559136163839999.9
8850.0	565612621823999.9
8860.0	567789756415999.9
8870.0	565128337407999.9
8880.0	569766842367999.9
8890.0	576938506239999.9
8900.0	581773797375999.9
8910.0	589973600255999.9
8920.0	590864257023999.9
8930.0	602013491199999.9
8940.0	604061612031999.9
8950.0	607351273471999.9
8960.0	612528998399999.9
8970.0	620628051967999.9
8980.0	628202045439999.9
8990.0	632173805567999.9
9000.0	642331426815999.9
9010.0	652833019903999.9
9020.0	655491074047999.9
9030.0	657832189951999.9
9040.0	661500301311999.9
9050.0	677754169343999.9
9060.0	681067704319999.9
9070.0	685178683391999.9
9080.0	721178533887999.9
9090.0	713197821951999.9
9100.0	710568747007999.9
9110.0	722503479295999.9
9120.0	744973918207999.9
9130.0	746795925503999.8
9140.0	747335782399999.9
9150.0	765657485311999.9
9160.0	783067267071999.9
9170.0	787383828479999.9
9180.0	786266161151999.9
9190.0	817733074943999.8
9200.0	805149650943999.8
9210.0	781250637823999.8
9220.0	771569934335999.9
9230.0	770332512255999.9
9240.0	775684100095999.9
9250.0	785153507327999.9
9260.0	790198337535999.9
9270.0	797119844351999.9
9280.0	794724790271999.9
9290.0	801093292031999.9
9300.0	809777500159999.9
9310.0	814326689791999.9
9320.0	824612179967999.9
9330.0	827648192511999.9
9340.0	838558400511999.9
9350.0	839822843903999.8
9360.0	850796331007999.9
9370.0	854236188671999.9
9380.0	870119391231999.8
9390.0	873376260095999.9
9400.0	886586695679999.9
9410.0	891323138047999.9
9420.0	912649146367999.9
9430.0	914941194239999.9
9440.0	915338928127999.9
9450.0	920795049983999.8
9460.0	940146802687999.9
9470.0	931935313919999.9
9480.0	954388844543999.8
9490.0	981919764479999.9
9500.0	963208703999999.9
9510.0	974364897279999.9
9520.0	993404858367999.9
9530.0	998774169599999.9
9540.0	1025699602431999.8
9550.0	1018220924927999.9
9560.0	1023112810495999.9
9570.0	1039151767551999.8
9580.0	1084791496703999.8
9590.0	1081365012479999.8
9600.0	1069236834303999.8
9610.0	1100833067007999.9
9620.0	1078354137087999.9
9630.0	1130698579967999.8
9640.0	1105646784511999.8
9650.0	1143225819135999.8
9660.0	1166255738879999.8
9670.0	1176819486719999.8
9680.0	1199097221119999.8
9690.0	1215989964799999.8
9700.0	1230102323199999.8
9710.0	1218119720959999.8
9720.0	1238592954367999.8
9730.0	1185918078975999.8
9740.0	1185044885503999.8
9750.0	1199539728383999.8
9760.0	1218356744191999.8
9770.0	1220274794495999.8
9780.0	1239480582143999.8
9790.0	1282252685311999.8
9800.0	1277936181247999.8
9810.0	1259325083647999.8
9820.0	1234599174143999.8
9830.0	1260328767487999.8
9840.0	1286024314879999.8
9850.0	1297381568511999.8
9860.0	1310348816383999.8
9870.0	1343359815679999.8
9880.0	1311073939455999.8
9890.0	1394649014271999.8
9900.0	1265982795775999.8
9910.0	1221979832319999.8
9920.0	1241672036351999.8
9930.0	1266298937343999.8
9940.0	1286916722687999.8
9950.0	1311303307263999.8
9960.0	1318720827391999.8
9970.0	1356088827903999.8
9980.0	1342123241471999.8
9990.0	1316732690431999.8
10000.0	1350137212927999.8
10010.0	1364584110079999.8
10020.0	1380122259455999.8
10030.0	1413221115903999.8
10040.0	1384363581439999.8
10050.0	1427620909055999.8
10060.0	1388811350015999.8
10070.0	1421148545023999.8
10080.0	1469266976767999.5
10090.0	1457494614015999.8
10100.0	1511398354943999.8
10110.0	1474923649023999.8
10120.0	1509610194943999.8
10130.0	1549963599871999.8
10140.0	1483293941759999.8
10150.0	1552170967039999.8
10160.0	1518668812287999.5
10170.0	1521151823871999.8
10180.0	1598302875647999.5
10190.0	1560219185151999.8
10200.0	1563597287423999.8
10210.0	1631924772863999.8
10220.0	1572064698367999.5
10230.0	1642408919039999.8
10240.0	1684910399487999.5
10250.0	1650209734655999.8
10260.0	1585106616319999.8
10270.0	1605307252735999.8
10280.0	1608193519615999.8
10290.0	1658772398079999.8
10300.0	1646494695423999.8
10310.0	1719378423807999.5
10320.0	1682064154623999.8
10330.0	1712684351487999.5
10340.0	1719804305407999.5
10350.0	1756371189759999.8
10360.0	1799266840575999.8
10370.0	1816480677887999.5
10380.0	1792435843071999.8
10390.0	1801738960895999.8
10400.0	1826300399615999.8
10410.0	1923336740863999.5
10420.0	1836919169023999.5
10430.0	1789185351679999.8
10440.0	1941421244415999.8
10450.0	1997133262847999.5
10460.0	2082357678079999.5
10470.0	1833973620735999.8
10480.0	1907153391615999.8
10490.0	2013262807039999.8
10500.0	1996157366271999.8
10510.0	1959634882559999.8
10520.0	1903854395391999.8
10530.0	2124332879871999.8
10540.0	2107286245375999.8
10550.0	2101550505983999.5
10560.0	2025307144191999.8
10570.0	1984719192063999.5
10580.0	2184001114111999.8
10590.0	2160558354431999.8
10600.0	2231750615039999.5
10610.0	2113465573375999.8
10620.0	2120288280575999.8
10630.0	2213567180799999.5
10640.0	2427874992127999.5
10650.0	2323372060671999.5
10660.0	2284635725823999.5
10670.0	2174282170367999.5
10680.0	2308011335679999.5
10690.0	2459168354303999.5
10700.0	2367032029183999.5
10710.0	2440229720063999.5
10720.0	2592640643071999.5
10730.0	2421294755839999.5
10740.0	2631409295359999.5
10750.0	2672422641663999.5
10760.0	2773479890943999.5
10770.0	2824628269055999.0
10780.0	2936014491647999.5
10790.0	2793586241535999.0
10800.0	2857939447807999.5
10810.0	2745870798847999.5
10820.0	2832256020479999.5
10830.0	3082069700607999.5
10840.0	3270711840767999.5
10850.0	3132836724735999.0
10860.0	3083097358335999.0
10870.0	2996217184255999.0
10880.0	3164616736767999.5
10890.0	2817000357887999.5
10900.0	2987846500351999.5
10910.0	3022332452863999.5
10920.0	3107703324671999.5
10930.0	3003535572991999.5
10940.0	3014885548031999.5
10950.0	3105024897023999.5
10960.0	2914823393279999.5
10970.0	3081407397887999.5
10980.0	3018492223487999.5
10990.0	2973855506431999.5
11000.0	2960660836351999.5
11010.0	3028950396927999.5
11020.0	3182524706815999.0
11030.0	2847149527039999.5
11040.0	2869397938175999.0
11050.0	2888069111807999.5
11060.0	2855959592959999.5
11070.0	2833466146815999.0
11080.0	2902256877567999.5
11090.0	2975364308991999.5
11100.0	2876203630591999.5
11110.0	2889241866239999.5
11120.0	3002915147775999.0
11130.0	3045258293247999.5
11140.0	2979722485759999.5
11150.0	3009806774271999.5
11160.0	3132461604863999.5
11170.0	2996665470975999.0
11180.0	3304429154303999.5
11190.0	3161378095103999.5
11200.0	3073532887039999.5
11210.0	3155190046719999.5
11220.0	3288128339967999.5
11230.0	3242128302079999.5
11240.0	3381919334399999.5
11250.0	3428387774463999.5
11260.0	3384641544191999.5
11270.0	3421733158911999.5
11280.0	3473500184575999.0
11290.0	3503856123903999.5
11300.0	3388639084543999.5
11310.0	3535791812607999.0
11320.0	3461891911679999.5
11330.0	3465702948863999.5
11340.0	3387331125247999.5
11350.0	3085488480255999.0
11360.0	3530670964735999.0
11370.0	3504723607551999.5
11380.0	3295533604863999.5
11390.0	3472570753023999.5
11400.0	3603261693951999.5
11410.0	3426759499775999.0
11420.0	3618337193983999.5
11430.0	3677023453183999.5
11440.0	3385629425663999.5
11450.0	3700319256575999.0
11460.0	3787686002687999.0
11470.0	3698784886783999.5
11480.0	3692633260031999.5
11490.0	3961749045247999.0
11500.0	3952280707071999.5
11510.0	3884300967935999.0
11520.0	3921197572095999.0
11530.0	3894383329279999.5
11540.0	3792327950335999.0
11550.0	4126745657343999.5
11560.0	4148271505407999.0
11570.0	3975907188735999.0
11580.0	4111967682559999.5
11590.0	4288307593215999.0
11600.0	3977367748607999.0
11610.0	4049261846527999.0
11620.0	4175933300735999.0
11630.0	4225921581055999.0
11640.0	3947107540991999.5
11650.0	4468195860479999.0
11660.0	4076365324287999.0
11670.0	4268373442559999.0
11680.0	4285358587903999.5
11690.0	3712699858943999.5
11700.0	4128849002495999.0
11710.0	4288142999551999.5
11720.0	4453893881855999.0
11730.0	4364777644031999.5
11740.0	4247340400639999.0
11750.0	4426365460479999.0
11760.0	4170935345151999.5
11770.0	3994983579647999.0
11780.0	3795470180351999.5
11790.0	4317423288319999.0
11800.0	4414109753343999.5
11810.0	4407106117631999.5
11820.0	4393123430399999.0
11830.0	4668567715839999.0
11840.0	4589666942975999.0
11850.0	4689156808703999.0
11860.0	4587685584895999.0
11870.0	4857123807231999.0
11880.0	4725990670335999.0
11890.0	4587373248511999.0
11900.0	4785762885631999.0
11910.0	4763850055679999.0
11920.0	4832267984895999.0
11930.0	5027674841087999.0
11940.0	4635779391487999.0
11950.0	4599299334143999.0
11960.0	4684393783295999.0
11970.0	4544321093631999.0
11980.0	4408280735743999.5
11990.0	4623748841471999.0
12000.0	4457382494207999.0
12010.0	4602813136895999.0
12020.0	4601152471039999.0
12030.0	4652015984639999.0
12040.0	5013663039487999.0
12050.0	4916438056959999.0
12060.0	5586349809663999.0
12070.0	4917618540543999.0
12080.0	5318919053311999.0
12090.0	4987248713727999.0
12100.0	5373425483775999.0
12110.0	4907103584255999.0
12120.0	5063264575487999.0
12130.0	5136083509247999.0
12140.0	5588588412927999.0
12150.0	5599767248895999.0
12160.0	5563719884799999.0
12170.0	5541724200959999.0
12180.0	5759181176831998.0
12190.0	5804137021439999.0
12200.0	5503161712639999.0
12210.0	5577465626623999.0
12220.0	5572713627647999.0
12230.0	5569213095935999.0
12240.0	5777741996031998.0
12250.0	6138648133631998.0
12260.0	6114917449727999.0
12270.0	6052337811455999.0
12280.0	6330471038975999.0
12290.0	6283582783487999.0
12300.0	6101098856447999.0
12310.0	6404359569407999.0
12320.0	5978884718591998.0
12330.0	6141569597439999.0
12340.0	6466396176383999.0
12350.0	6068705755135999.0
12360.0	6342144491519999.0
12370.0	6423992418303999.0
12380.0	6381881901055999.0
12390.0	6089772728319999.0
12400.0	6275165700095999.0
12410.0	5597308911615999.0
12420.0	5449080799231999.0
12430.0	5735360856063999.0
12440.0	5471678873599999.0
12450.0	6340659355647999.0
12460.0	6183685857279999.0
12470.0	6463820431359999.0
12480.0	6093170278399999.0
12490.0	6585048432639999.0
12500.0	6264498601983999.0
12510.0	6503354433535999.0
12520.0	6001097220095999.0
12530.0	6074009952255999.0
12540.0	6784523575295999.0
12550.0	6315892432895999.0
12560.0	6546724143103999.0
12570.0	7029676883967999.0
12580.0	6512899080191998.0
12590.0	6763721424895999.0
12600.0	6759563444223999.0
12610.0	7333205360639999.0
12620.0	6535642677247999.0
12630.0	6881090191359999.0
12640.0	6761064382463999.0
12650.0	6858948739071998.0
12660.0	7083684364287999.0
12670.0	7405412548607999.0
12680.0	7285607776255998.0
12690.0	7599267004415998.0
12700.0	7289204113407999.0
12710.0	7311014756351998.0
12720.0	7713653932031998.0
12730.0	7769985171455998.0
12740.0	7278698856447999.0
12750.0	7186050023423999.0
12760.0	7640891916287999.0
12770.0	7624803713023999.0
12780.0	7476834697215998.0
12790.0	7862672752639999.0
12800.0	7697077313535998.0
12810.0	7621975760895998.0
12820.0	7998573035519999.0
12830.0	7585339686911998.0
12840.0	7796223475711998.0
12850.0	8055165796351998.0
12860.0	7205866045439999.0
12870.0	7988463665151998.0
12880.0	7848446181375998.0
12890.0	7848115339263999.0
12900.0	8249381781503999.0
12910.0	7898430898175998.0
12920.0	7810871459839999.0
12930.0	7971318939647999.0
12940.0	8682181640191998.0
12950.0	7782118981631998.0
12960.0	8499614793727999.0
12970.0	8648041824255998.0
12980.0	8815011856383999.0
12990.0	8447895404543999.0
13000.0	8710366527487999.0
13010.0	8441892995071998.0
13020.0	8813959036927999.0
13030.0	8653961560063999.0
13040.0	9216164380671998.0
13050.0	8904714043391998.0
13060.0	9108070367231998.0
13070.0	8492353978367999.0
13080.0	8716009914367999.0
13090.0	8538303348735998.0
13100.0	8736072187903999.0
13110.0	9033802678271998.0
13120.0	9296955211775998.0
13130.0	8833409875967999.0
13140.0	8847698984959998.0
13150.0	9038325448703998.0
13160.0	8948568522751998.0
13170.0	9092308549631998.0
13180.0	8586237296639998.0
13190.0	9171444465663998.0
13200.0	8801284456447999.0
13210.0	8726749364223999.0
13220.0	8860559982591998.0
13230.0	8886564421631998.0
13240.0	8723977191423999.0
13250.0	7970614198271998.0
13260.0	8727668277247999.0
13270.0	8114306891775998.0
13280.0	8095758385151998.0
13290.0	8372814528511998.0
13300.0	7932806365183999.0
13310.0	7328552779775998.0
13320.0	6770092441599999.0
13330.0	6442292707327999.0
13340.0	6931470188543999.0
13350.0	5535874285567999.0
13360.0	6157160366079999.0
13370.0	5905723842559999.0
13380.0	5929390153727999.0
13390.0	6090159407103999.0
13400.0	6364808429567999.0
13410.0	6509049815039999.0
13420.0	5776635633663999.0
13430.0	5617559764991998.0
13440.0	6245243650047999.0
13450.0	5840529260543999.0
13460.0	6124783370239999.0
13470.0	5887306973183999.0
13480.0	5626404298751998.0
13490.0	6361252397055999.0
13500.0	6120701042687999.0
13510.0	5926383951871998.0
13520.0	5835202740223999.0
13530.0	6150050488319999.0
13540.0	5515385339903999.0
13550.0	5743325020159999.0
13560.0	6150810353663999.0
13570.0	6105271459839999.0
13580.0	5953069817855999.0
13590.0	5966732533759999.0
13600.0	6074067066879999.0
13610.0	6135918346239999.0
13620.0	5585007099903999.0
13630.0	6427998732287999.0
13640.0	6207262392319999.0
13650.0	6140254437375999.0
13660.0	6326337404927999.0
13670.0	6084695670783999.0
13680.0	6116526710783999.0
13690.0	6136905277439999.0
13700.0	6088694382591998.0
13710.0	5882500792319999.0
13720.0	6138456334335999.0
13730.0	6214081175551998.0
13740.0	5974935158783999.0
13750.0	6113867792383999.0
13760.0	6229809905663999.0
13770.0	6054572261375999.0
13780.0	6670216896511998.0
13790.0	6279556440063999.0
13800.0	6681963200511998.0
13810.0	6508839256063999.0
13820.0	6795436343295999.0
13830.0	6153568280575999.0
13840.0	6680094253055999.0
13850.0	6499492429823999.0
13860.0	6561404944383999.0
13870.0	6521930809343999.0
13880.0	6334320246783999.0
13890.0	6790389080063999.0
13900.0	6562723848191998.0
13910.0	6340894441471998.0
13920.0	6440705867775999.0
13930.0	6581077344255999.0
13940.0	6425836060671998.0
13950.0	6419877289983999.0
13960.0	6590697480191998.0
13970.0	6604218466303999.0
13980.0	6375706591231998.0
13990.0	6696947990527999.0
14000.0	6344888008703999.0
14010.0	6335123455999999.0
14020.0	6850455257087999.0
14030.0	6589490790399999.0
14040.0	6382146060287999.0
14050.0	6464686899199999.0
14060.0	7078332153855998.0
14070.0	6389735456767999.0
14080.0	6580194869247999.0
14090.0	6544823271423999.0
14100.0	6434045001727999.0
14110.0	6613142380543999.0
14120.0	6393020604415999.0
14130.0	6872847122431998.0
14140.0	6605343817727999.0
14150.0	6452876410879999.0
14160.0	6804990623743999.0
14170.0	6475583504383999.0
14180.0	6317754466303999.0
14190.0	6577986994175999.0
14200.0	6554128596991998.0
14210.0	6662388891647999.0
14220.0	6613162262527999.0
14230.0	6567023247359999.0
14240.0	6637835796479999.0
14250.0	6664223080447999.0
14260.0	6444733743103999.0
14270.0	6765204144127999.0
14280.0	6554131464191998.0
14290.0	6226144444415999.0
14300.0	7189465874431998.0
14310.0	7126042361855998.0
14320.0	6641393270783999.0
14330.0	6636659113983999.0
14340.0	6386776457215999.0
14350.0	7059719831551998.0
14360.0	6989075120127999.0
14370.0	6925864763391998.0
14380.0	6998444752895998.0
14390.0	7053591945215998.0
14400.0	6778867851263999.0
14410.0	6708671528959999.0
14420.0	6793358786559999.0
14430.0	7338839654399999.0
14440.0	7149129334783999.0
14450.0	6774468771839999.0
14460.0	7087847997439999.0
14470.0	6845993189375999.0
14480.0	7232696385535998.0
14490.0	7562176151551998.0
14500.0	7256622219263999.0
14510.0	6892014370815999.0
14520.0	7838732566527999.0
