# Flux units: erg / (cm m2 s)
# Wavelength units: Angstrom
wave	flux
7000.0	79668251903999.98
7010.0	80797724671999.98
7020.0	82041769471999.98
7030.0	83376218879999.98
7040.0	84655412223999.98
7050.0	85950787839999.98
7060.0	87047642111999.98
7070.0	88306932223999.98
7080.0	89705708543999.98
7090.0	90942156799999.98
7100.0	92234445823999.98
7110.0	93648172543999.98
7120.0	95016490495999.98
7130.0	96257045503999.98
7140.0	97610435583999.98
7150.0	99027189759999.98
7160.0	100530220543999.98
7170.0	101895834623999.98
7180.0	103405328895999.98
7190.0	104868027903999.98
7200.0	106365189119999.98
7210.0	107785560063999.98
7220.0	109376702975999.98
7230.0	110916137983999.97
7240.0	112405052415999.98
7250.0	114010108927999.97
7260.0	115553357823999.97
7270.0	117158124031999.98
7280.0	118766239743999.97
7290.0	120381667839999.98
7300.0	122027999743999.97
7310.0	123639766015999.98
7320.0	125306788351999.98
7330.0	126960454143999.97
7340.0	128628517887999.97
7350.0	130331253759999.97
7360.0	132028946431999.98
7370.0	133748056063999.97
7380.0	135470525951999.98
7390.0	137221102079999.97
7400.0	138987352575999.98
7410.0	140758448127999.97
7420.0	142510211583999.97
7430.0	144337786879999.97
7440.0	146155061247999.97
7450.0	147956025343999.97
7460.0	149777739775999.97
7470.0	151647882239999.97
7480.0	153507166207999.97
7490.0	155348329983999.97
7500.0	157229019135999.97
7510.0	159143971839999.97
7520.0	161026753535999.97
7530.0	162909189631999.97
7540.0	164821016575999.97
7550.0	166754501119999.97
7560.0	168667016191999.97
7570.0	170609445887999.97
7580.0	172595152383999.97
7590.0	174463474687999.97
7600.0	176271907839999.97
7610.0	178134023167999.97
7620.0	179911787519999.97
7630.0	181490883583999.97
7640.0	183052191743999.97
7650.0	184881145855999.94
7660.0	187169569791999.97
7670.0	167755185791999.97
7680.0	191729168383999.97
7690.0	193899707391999.97
7700.0	178370228991999.97
7710.0	198535347199999.97
7720.0	200931411967999.97
7730.0	204018313215999.94
7740.0	207209034751999.97
7750.0	210296667135999.94
7760.0	213295635455999.94
7770.0	216221003775999.94
7780.0	219188115455999.94
7790.0	222083391487999.94
7800.0	223422507007999.94
7810.0	227728465919999.97
7820.0	230848389119999.97
7830.0	233738593279999.97
7840.0	236699544575999.94
7850.0	239606116351999.97
7860.0	242671887359999.97
7870.0	245677611007999.94
7880.0	248743323647999.94
7890.0	251798891519999.97
7900.0	254974840831999.97
7910.0	258058344447999.94
7920.0	261113048063999.97
7930.0	264297159679999.94
7940.0	267371251711999.97
7950.0	267624904703999.97
7960.0	273776005119999.94
7970.0	277105592319999.94
7980.0	280423353343999.97
7990.0	283697234943999.94
8000.0	286945451007999.94
8010.0	290330696703999.94
8020.0	293727544319999.94
8030.0	297136439295999.94
8040.0	300417208319999.94
8050.0	303884319743999.94
8060.0	307457820671999.94
8070.0	310885722111999.94
8080.0	314382132223999.94
8090.0	317821922303999.94
8100.0	321633879039999.94
8110.0	325035325439999.94
8120.0	328804294655999.94
8130.0	332539573247999.94
8140.0	336159323135999.94
8150.0	340058013695999.94
8160.0	343733130239999.94
8170.0	347257296895999.94
8180.0	351100903423999.94
8190.0	354455009279999.94
8200.0	356702889983999.94
8210.0	362571161599999.94
8220.0	366774077439999.94
8230.0	370611685375999.94
8240.0	374785187839999.94
8250.0	378287812607999.94
8260.0	382643083263999.94
8270.0	386846140415999.94
8280.0	390847467519999.94
8290.0	394760828927999.94
8300.0	399508125695999.94
8310.0	403402858495999.94
8320.0	407930511359999.94
8330.0	411993757695999.94
8340.0	416369442815999.94
8350.0	420807073791999.9
8360.0	425200769023999.94
8370.0	429592387583999.94
8380.0	434366691327999.94
8390.0	437736194047999.94
8400.0	442351050751999.9
8410.0	448208474111999.9
8420.0	452612155391999.9
8430.0	457042184191999.9
8440.0	459279968255999.9
8450.0	462930880511999.9
8460.0	466937616383999.94
8470.0	471642757119999.94
8480.0	476974008319999.94
8490.0	481427236863999.94
8500.0	486752743423999.94
8510.0	491470270463999.94
8520.0	496211380223999.94
8530.0	501085439999999.94
8540.0	506565625855999.9
8550.0	512701583359999.94
8560.0	517659271167999.94
8570.0	522725722111999.9
8580.0	528641771519999.9
8590.0	533457934335999.9
8600.0	538604679167999.94
8610.0	543330445311999.9
8620.0	548212719615999.9
8630.0	553265852415999.9
8640.0	558458206207999.94
8650.0	564322533375999.9
8660.0	571447363583999.9
8670.0	576956020735999.9
8680.0	582069182463999.9
8690.0	585635545087999.9
8700.0	585182560255999.9
8710.0	592259020799999.9
8720.0	597263808511999.9
8730.0	605732507647999.9
8740.0	607691788287999.9
8750.0	618059974655999.9
8760.0	627515078655999.9
8770.0	633611503615999.9
8780.0	640873009151999.9
8790.0	644270129151999.9
8800.0	641289644031999.9
8810.0	654565003263999.9
8820.0	666974562303999.9
8830.0	671688695807999.9
8840.0	685033723903999.9
8850.0	682491357183999.9
8860.0	690192969727999.9
8870.0	684116234239999.9
8880.0	692963753983999.9
8890.0	701957378047999.9
8900.0	706361757695999.9
8910.0	720196669439999.9
8920.0	717601366015999.9
8930.0	730581319679999.9
8940.0	738027335679999.9
8950.0	738180931583999.8
8960.0	747758055423999.8
8970.0	755768799231999.9
8980.0	767231377407999.9
8990.0	774099300351999.9
9000.0	784083169279999.9
9010.0	800798715903999.8
9020.0	804212195327999.9
9030.0	803930279935999.9
9040.0	815528427519999.9
9050.0	835196948479999.9
9060.0	825522524159999.9
9070.0	841716011007999.9
9080.0	876836876287999.9
9090.0	871013859327999.9
9100.0	870780678143999.8
9110.0	879191052287999.9
9120.0	906607890431999.8
9130.0	909049131007999.9
9140.0	912728666111999.8
9150.0	930649878527999.9
9160.0	943785586687999.9
9170.0	956059385855999.9
9180.0	948789489663999.8
9190.0	986508083199999.9
9200.0	972694888447999.9
9210.0	955085082623999.8
9220.0	962111578111999.8
9230.0	942748033023999.8
9240.0	964434223103999.8
9250.0	979163963391999.8
9260.0	986557755391999.8
9270.0	989261426687999.9
9280.0	979100205055999.9
9290.0	997477175295999.9
9300.0	1000589287423999.8
9310.0	1002170630143999.8
9320.0	1025946382335999.9
9330.0	1023038709759999.9
9340.0	1056579571711999.8
9350.0	1023778557951999.8
9360.0	1060914348031999.8
9370.0	1066580705279999.8
9380.0	1094745706495999.9
9390.0	1081148678143999.8
9400.0	1098471952383999.8
9410.0	1106298286079999.8
9420.0	1145513066495999.8
9430.0	1154371481599999.8
9440.0	1147860402175999.8
9450.0	1162825691135999.8
9460.0	1171521482751999.8
9470.0	1182245003263999.8
9480.0	1225807630335999.8
9490.0	1258098888703999.8
9500.0	1164176949247999.8
9510.0	1225356410879999.8
9520.0	1273917915135999.8
9530.0	1273072324607999.8
9540.0	1313297416191999.8
9550.0	1285106733055999.8
9560.0	1319811473407999.8
9570.0	1293550366719999.8
9580.0	1372204957695999.8
9590.0	1382801375231999.8
9600.0	1344743645183999.8
9610.0	1380936138751999.8
9620.0	1352288763903999.8
9630.0	1438857928703999.8
9640.0	1343461056511999.8
9650.0	1370620485631999.8
9660.0	1459596066815999.8
9670.0	1488312999935999.8
9680.0	1428911226879999.8
9690.0	1444012613631999.8
9700.0	1512781856767999.5
9710.0	1447437975551999.8
9720.0	1507380281343999.8
9730.0	1489250451455999.8
9740.0	1492391583743999.8
9750.0	1528871550975999.8
9760.0	1527290028031999.8
9770.0	1547392221183999.8
9780.0	1556072292351999.8
9790.0	1515721965567999.5
9800.0	1599840100351999.8
9810.0	1615092195327999.5
9820.0	1569229217791999.8
9830.0	1602516688895999.8
9840.0	1658193190911999.8
9850.0	1689615769599999.8
9860.0	1706213916671999.8
9870.0	1708515500031999.8
9880.0	1723575402495999.8
9890.0	1777653751807999.5
9900.0	1477847531519999.8
9910.0	1419104215039999.8
9920.0	1419129741311999.8
9930.0	1455260385279999.8
9940.0	1493223350271999.8
9950.0	1526274203647999.5
9960.0	1530839482367999.5
9970.0	1536351297535999.8
9980.0	1530492157951999.8
9990.0	1535489613823999.8
10000.0	1564066439167999.5
10010.0	1594845134847999.5
10020.0	1606906294271999.8
10030.0	1684868550655999.8
10040.0	1625307250687999.5
10050.0	1657708941311999.8
10060.0	1582930812927999.5
10070.0	1647080194047999.5
10080.0	1700632641535999.8
10090.0	1714343321599999.8
10100.0	1761593696255999.8
10110.0	1740795998207999.5
10120.0	1703388491775999.8
10130.0	1733836845055999.8
10140.0	1712917671935999.8
10150.0	1741779697663999.5
10160.0	1740017946623999.5
10170.0	1753329496063999.5
10180.0	1796682006527999.5
10190.0	1789638213631999.8
10200.0	1795270594559999.8
10210.0	1861567950847999.5
10220.0	1811080450047999.5
10230.0	1855184244735999.8
10240.0	1911290019839999.8
10250.0	1930555674623999.5
10260.0	1851259211775999.8
10270.0	1903516991487999.5
10280.0	1909959524351999.8
10290.0	1938791845887999.5
10300.0	1930290442239999.8
10310.0	2023163912191999.8
10320.0	1976924684287999.5
10330.0	2062782947327999.5
10340.0	1985346007039999.8
10350.0	2078750552063999.5
10360.0	2117347184639999.5
10370.0	2239715667967999.5
10380.0	2128831762431999.8
10390.0	2097628975103999.5
10400.0	2209893302271999.8
10410.0	2340965408767999.5
10420.0	2162855702527999.5
10430.0	2119230140415999.8
10440.0	2349138771967999.5
10450.0	2547262144511999.5
10460.0	2688452751359999.5
10470.0	2203141238783999.5
10480.0	2317111857151999.5
10490.0	2540775997439999.5
10500.0	2437455851519999.5
10510.0	2437491335167999.5
10520.0	2333899739135999.5
10530.0	2579149524991999.5
10540.0	2726631997439999.5
10550.0	2725901598719999.5
10560.0	2684897009663999.5
10570.0	2507605942271999.5
10580.0	2741461475327999.5
10590.0	2738859589631999.5
10600.0	2932950188031999.5
10610.0	2925533847551999.5
10620.0	2756365893631999.5
10630.0	3085035241471999.5
10640.0	3230134009855999.0
10650.0	2930898837503999.5
10660.0	2894624464895999.0
10670.0	2898983657471999.5
10680.0	3073504485375999.0
10690.0	3197564534783999.5
10700.0	3174701129727999.5
10710.0	3065688236031999.5
10720.0	3307422703615999.0
10730.0	3156590534655999.0
10740.0	3131865935871999.5
10750.0	3402902614015999.0
10760.0	3299758563327999.5
10770.0	3531364098047999.0
10780.0	3764126359551999.5
10790.0	3614977175551999.5
10800.0	3734850662399999.5
10810.0	3448010239999999.5
10820.0	3535320748031999.5
10830.0	3678189690879999.5
10840.0	4044209561599999.5
10850.0	3806873001983999.5
10860.0	3699678560255999.0
10870.0	3695526461439999.5
10880.0	3967771680767999.0
10890.0	3409290944511999.5
10900.0	3739394834431999.5
10910.0	3601541857279999.5
10920.0	3916710117375999.0
10930.0	4002090967039999.5
10940.0	3863595007999999.5
10950.0	3920317591551999.5
10960.0	3717040345087999.0
10970.0	3950467891199999.5
10980.0	3749462261759999.5
10990.0	3840194977791999.5
11000.0	3751406133247999.0
11010.0	3938466570239999.5
11020.0	3815484006399999.5
11030.0	3628905316351999.5
11040.0	3585827528703999.5
11050.0	3731694264319999.5
11060.0	3703336460287999.0
11070.0	3619192250367999.0
11080.0	3689108422655999.0
11090.0	3707164876799999.5
11100.0	3591966932991999.5
11110.0	3502505345023999.5
11120.0	3815700332543999.5
11130.0	3894967689215999.0
11140.0	3856742424575999.0
11150.0	3818864656383999.5
11160.0	3947485175807999.0
11170.0	3874979586047999.0
11180.0	4220837003263999.5
11190.0	3975909269503999.5
11200.0	3870193451007999.0
11210.0	3955025281023999.5
11220.0	4138662674431999.5
11230.0	4169403908095999.0
11240.0	4328655454207999.0
11250.0	4274961342463999.5
11260.0	4362988494847999.0
11270.0	4372221829119999.0
11280.0	4438614048767999.0
11290.0	4494826135551999.5
11300.0	4185222782975999.0
11310.0	4592869777407999.0
11320.0	4587287044095999.0
11330.0	4311252729855999.0
11340.0	4107091664895999.0
11350.0	3925826854911999.5
11360.0	4295354925055999.0
11370.0	4320901537791999.5
11380.0	3827914440703999.5
11390.0	4063370354687999.0
11400.0	4059165999103999.5
11410.0	3732359471103999.5
11420.0	4470548471807999.0
11430.0	4486972022783999.5
11440.0	4458037387263999.5
11450.0	4762966712319999.0
11460.0	4904127070207999.0
11470.0	4818231574527999.0
11480.0	4569503817727999.0
11490.0	5137796923391999.0
11500.0	5244598960127999.0
11510.0	5099295481855999.0
11520.0	5177595535359999.0
11530.0	4951441235967999.0
11540.0	4862975696895999.0
11550.0	5352838971391999.0
11560.0	5159951753215999.0
11570.0	5147285757951999.0
11580.0	5227089010687999.0
11590.0	5208296120319999.0
11600.0	5110203105279999.0
11610.0	4927920537599999.0
11620.0	5152001105919999.0
11630.0	5455435997183999.0
11640.0	5067946737663999.0
11650.0	5482534715391999.0
11660.0	4961408573439999.0
11670.0	5246840324095999.0
11680.0	4804863107071999.0
11690.0	3916292685823999.5
11700.0	4326233186303999.5
11710.0	5051415715839999.0
11720.0	5370886389759999.0
11730.0	5370174365695999.0
11740.0	5194893942783999.0
11750.0	5166398234623999.0
11760.0	4735504809983999.0
11770.0	4141079183359999.0
11780.0	3983262883839999.5
11790.0	4833715617791999.0
11800.0	5292311347199999.0
11810.0	5467220525055999.0
11820.0	5582277394431998.0
11830.0	5836159868927999.0
11840.0	5749031772159999.0
11850.0	5944022966271998.0
11860.0	5878307004415999.0
11870.0	6050369765375999.0
11880.0	5947231813631998.0
11890.0	5653200207871998.0
11900.0	6161197252607999.0
11910.0	6268433072127999.0
11920.0	6403973562367999.0
11930.0	6391984652287999.0
11940.0	6044381954047999.0
11950.0	6133315796991998.0
11960.0	6273991524351998.0
11970.0	5786854703103999.0
11980.0	5437522575359999.0
11990.0	6127668101119999.0
12000.0	5852210593791998.0
12010.0	6163292405759999.0
12020.0	6131665534975999.0
12030.0	6737672437759999.0
12040.0	6238403887103999.0
12050.0	6453191819263999.0
12060.0	7341263437823999.0
12070.0	6623630852095999.0
12080.0	6957896843263999.0
12090.0	6418099650559999.0
12100.0	7037360816127999.0
12110.0	6293489852415999.0
12120.0	6672429998079999.0
12130.0	6897132781567999.0
12140.0	7256374214655998.0
12150.0	7443891404799999.0
12160.0	7088290504703999.0
12170.0	7103895347199999.0
12180.0	7305486811135998.0
12190.0	7704753717247999.0
12200.0	7053410729983999.0
12210.0	7131049820159999.0
12220.0	7744378650623999.0
12230.0	7491662823423999.0
12240.0	7510950248447999.0
12250.0	7604593164287999.0
12260.0	7698812289023999.0
12270.0	7947739496447999.0
12280.0	7996250931199999.0
12290.0	7830453321727999.0
12300.0	7945509584895998.0
12310.0	8420571414527999.0
12320.0	7933376397311998.0
12330.0	7975646101503999.0
12340.0	8378998390783999.0
12350.0	8022274359295998.0
12360.0	8231816183807999.0
12370.0	8334760345599998.0
12380.0	7945597353983999.0
12390.0	7742018306047999.0
12400.0	8112946626559999.0
12410.0	7175167361023999.0
12420.0	6992938434559999.0
12430.0	6319249440767999.0
12440.0	5862806781951998.0
12450.0	7835797192703999.0
12460.0	7984654843903999.0
12470.0	8138774364159999.0
12480.0	8053169127423999.0
12490.0	8191881281535998.0
12500.0	7093122449407999.0
12510.0	7857395367935998.0
12520.0	6007156170751998.0
12530.0	6143488466943999.0
12540.0	7888108175359999.0
12550.0	7763405324287999.0
12560.0	8205606993919999.0
12570.0	8799620431871998.0
12580.0	8422566805503999.0
12590.0	8613484462079998.0
12600.0	8688665067519998.0
12610.0	9039844294655998.0
12620.0	8167748354047999.0
12630.0	8922365181951998.0
12640.0	8301833043967999.0
12650.0	8420703813631998.0
12660.0	8814996455423999.0
12670.0	9452695617535998.0
12680.0	9311821922303998.0
12690.0	9503822282751998.0
12700.0	9083508572159998.0
12710.0	9504988233727998.0
12720.0	9998474985471998.0
12730.0	9720707989503998.0
12740.0	9153870528511998.0
12750.0	9075935526911998.0
12760.0	9875458047999998.0
12770.0	9457049518079998.0
12780.0	9587448463359998.0
12790.0	9871651340287998.0
12800.0	9649016799231998.0
12810.0	9920175456255998.0
12820.0	9830624919551998.0
12830.0	9575435517951998.0
12840.0	9997470187519998.0
12850.0	9467332476927998.0
12860.0	8723478364159998.0
12870.0	9579841191935998.0
12880.0	9511451328511998.0
12890.0	9168852156415998.0
12900.0	1.0002693259263998e+16
12910.0	9874923601919998.0
12920.0	9603845128191998.0
12930.0	8901326487551998.0
12940.0	1.0093225246719998e+16
12950.0	9111191994367998.0
12960.0	1.0427174322175998e+16
12970.0	1.0159458467839998e+16
12980.0	1.0666538074111998e+16
12990.0	1.0033085808639998e+16
13000.0	1.0631274430463998e+16
13010.0	9933509984255998.0
13020.0	1.0177802239999998e+16
13030.0	1.0443781144575998e+16
13040.0	1.0535047725055998e+16
13050.0	1.0148328243199998e+16
13060.0	1.1108167467007998e+16
13070.0	9306478280703998.0
13080.0	1.1108162224127998e+16
13090.0	1.0049370816511998e+16
13100.0	1.0199085285375998e+16
13110.0	1.1058843942911998e+16
13120.0	1.1211839111167998e+16
13130.0	1.0727173980159998e+16
13140.0	1.0879801556991998e+16
13150.0	1.0945412235263998e+16
13160.0	1.0873119375359998e+16
13170.0	1.0799209332735998e+16
13180.0	1.0682474774527998e+16
13190.0	1.1317692727295998e+16
13200.0	1.0262933700607998e+16
13210.0	1.0826328309759998e+16
13220.0	1.0715639152639998e+16
13230.0	1.0641879072767998e+16
13240.0	1.0249764372479998e+16
13250.0	9858274705407998.0
13260.0	1.0673656709119998e+16
13270.0	9412764467199998.0
13280.0	1.0035713179647998e+16
13290.0	9915637710847998.0
13300.0	9503212011519998.0
13310.0	8797385932799998.0
13320.0	7207410057215998.0
13330.0	8089764724735998.0
13340.0	8033981267967999.0
13350.0	6351305293823999.0
13360.0	6470961856511998.0
13370.0	6144974700543999.0
13380.0	6211645014015999.0
13390.0	6444121227263999.0
13400.0	6439081869311998.0
13410.0	6948588814335998.0
13420.0	6193388912639999.0
13430.0	6165268529151998.0
13440.0	6619397079039999.0
13450.0	6264554192895999.0
13460.0	6811165835263999.0
13470.0	6318789410815999.0
13480.0	5853813669887999.0
13490.0	6577392648191998.0
13500.0	6586284130303999.0
13510.0	6379731894271998.0
13520.0	6210329632767999.0
13530.0	6687675342847999.0
13540.0	6034300649471998.0
13550.0	6093802602495999.0
13560.0	6444604162047999.0
13570.0	6450329649151998.0
13580.0	6499169206271998.0
13590.0	6590556209151998.0
13600.0	6690123530239999.0
13610.0	6592722141183999.0
13620.0	6095785492479999.0
13630.0	7100475899903999.0
13640.0	7217502191615998.0
13650.0	6706667962367999.0
13660.0	7458476113919999.0
13670.0	7140674174975998.0
13680.0	7004825059327999.0
13690.0	6854591234047999.0
13700.0	7131899641855998.0
13710.0	6973389881343999.0
13720.0	7232779976703999.0
13730.0	7197765812223999.0
13740.0	7245886701567999.0
13750.0	7458633875455998.0
13760.0	7578167640063999.0
13770.0	7427996762111998.0
13780.0	7753789079551998.0
13790.0	7652318740479999.0
13800.0	8078466990079999.0
13810.0	7225913278463999.0
13820.0	7877438980095998.0
13830.0	6737552457727999.0
13840.0	7968801423359999.0
13850.0	7198107959295998.0
13860.0	7112409923583999.0
13870.0	8075323932671998.0
13880.0	7060937097215998.0
13890.0	7747820945407999.0
13900.0	7488415662079999.0
13910.0	7129837600767999.0
13920.0	7126988062719999.0
13930.0	7383842521087999.0
13940.0	7310175911935998.0
13950.0	7139368566783999.0
13960.0	7118046969855998.0
13970.0	7275168022527999.0
13980.0	7073583398911998.0
13990.0	7533149536255998.0
14000.0	7168005079039999.0
14010.0	6927187787775998.0
14020.0	7831940579327999.0
14030.0	7717245616127999.0
14040.0	7342640955391998.0
14050.0	7154265686015998.0
14060.0	8585346564095998.0
14070.0	7248115482623999.0
14080.0	7407009169407999.0
14090.0	7209049645055998.0
14100.0	7459447939071998.0
14110.0	7533154779135998.0
14120.0	6967635755007999.0
14130.0	7730954977279999.0
14140.0	7103244517375998.0
14150.0	7447402594303999.0
14160.0	7972949999615998.0
14170.0	7385434013695998.0
14180.0	7175495892991998.0
14190.0	7106752348159999.0
14200.0	7579350450175998.0
14210.0	7730201788415998.0
14220.0	7580132868095998.0
14230.0	7377003823103999.0
14240.0	7108362600447999.0
14250.0	7707429748735998.0
14260.0	7348066697215998.0
14270.0	7774509039615998.0
14280.0	7578951368703999.0
14290.0	6982302449663999.0
14300.0	8337692524543999.0
14310.0	8187582988287999.0
14320.0	7539314950143999.0
14330.0	7908911316991998.0
14340.0	6947433414655998.0
14350.0	8011916771327999.0
14360.0	8179163987967999.0
14370.0	7885436338175998.0
14380.0	8009309945855998.0
14390.0	7983374548991998.0
14400.0	7750060736511998.0
14410.0	7736245010431998.0
14420.0	7928999362559999.0
14430.0	8504535269375998.0
14440.0	8303114092543999.0
14450.0	7424837828607999.0
14460.0	8395376017407999.0
14470.0	7926304636927999.0
