# Flux units: erg / (cm m2 s)
# Wavelength units: Angstrom
wave	flux
7000.0	634948.797225952
7010.0	644633.2893371581
7020.0	654815.9103393554
7030.0	665255.1155090331
7040.0	675392.593383789
7050.0	685620.4109191893
7060.0	695330.5664062499
7070.0	705821.8688964843
7080.0	716965.1260375975
7090.0	727457.3822021483
7100.0	738374.0806579589
7110.0	749675.2166748046
7120.0	761008.9988708495
7130.0	771829.9560546874
7140.0	783170.8946228026
7150.0	794896.8086242673
7160.0	806815.4335021971
7170.0	818379.3334960935
7180.0	830611.7591857908
7190.0	842821.7391967771
7200.0	855189.4302368163
7210.0	867311.2602233886
7220.0	880183.883666992
7230.0	892924.8046874999
7240.0	905603.2180786132
7250.0	918869.3008422849
7260.0	931872.8790283201
7270.0	945210.5216979978
7280.0	958782.3944091795
7290.0	972332.7217102048
7300.0	986542.5376892088
7310.0	1000108.7112426757
7320.0	1014789.7758483886
7330.0	1029085.1898193358
7340.0	1042342.7696228026
7350.0	1055866.775512695
7360.0	1070743.3090209959
7370.0	1085973.4115600584
7380.0	1100378.8833618162
7390.0	1114750.4425048826
7400.0	1130054.8439025877
7410.0	1145056.7703247068
7420.0	1159676.1550903318
7430.0	1175964.9314880369
7440.0	1191827.4650573728
7450.0	1206853.1494140623
7460.0	1223188.5261535642
7470.0	1239589.5271301267
7480.0	1255803.1921386716
7490.0	1272888.2637023923
7500.0	1290065.3381347654
7510.0	1306432.2433471677
7520.0	1323584.7167968748
7530.0	1341389.320373535
7540.0	1358896.545410156
7550.0	1376766.418457031
7560.0	1394740.509033203
7570.0	1413007.8201293943
7580.0	1430859.9777221675
7590.0	1448551.9943237302
7600.0	1466506.2713623045
7610.0	1485171.5316772459
7620.0	1504098.2894897459
7630.0	1521345.9701538081
7640.0	1538096.2142944334
7650.0	1551900.8712768552
7660.0	1556030.4412841795
7670.0	1409204.5207023616
7680.0	1604127.861022949
7690.0	1625717.7429199216
7700.0	1475659.1739654539
7710.0	1665957.5347900388
7720.0	1695789.2456054685
7730.0	1721374.5422363277
7740.0	1744276.641845703
7750.0	1765782.7148437495
7760.0	1787686.3784790034
7770.0	1809115.4022216792
7780.0	1832081.8786621091
7790.0	1854104.5532226558
7800.0	1875072.2808837886
7810.0	1901295.2041625974
7820.0	1924187.0193481443
7830.0	1946114.4027709956
7840.0	1969125.480651855
7850.0	1992700.4089355466
7860.0	2017319.4808959956
7870.0	2040809.9822998045
7880.0	2067235.4507446284
7890.0	2092250.9384155269
7900.0	2115503.9520263667
7910.0	2139099.731445312
7920.0	2161800.8117675777
7930.0	2188536.468505859
7940.0	2215150.1770019527
7950.0	2237907.6690673823
7960.0	2268293.7850952144
7970.0	2292680.740356445
7980.0	2319208.229064941
7990.0	2344968.2769775386
8000.0	2372630.6152343745
8010.0	2398220.3140258784
8020.0	2426677.726745605
8030.0	2455227.432250976
8040.0	2484010.345458984
8050.0	2509142.8527832027
8060.0	2538451.828002929
8070.0	2568953.994750976
8080.0	2600043.3197021475
8090.0	2630496.7346191397
8100.0	2664238.2507324214
8110.0	2694468.41430664
8120.0	2726405.3039550777
8130.0	2763722.244262695
8140.0	2799897.796630859
8150.0	2834141.189575195
8160.0	2872277.8778076167
8170.0	2906538.8641357417
8180.0	2951535.1104736323
8190.0	2972915.19165039
8200.0	2966880.9051513667
8210.0	2998414.5660400386
8220.0	3044998.992919921
8230.0	3070294.494628906
8240.0	3114576.828002929
8250.0	3140060.882568359
8260.0	3174844.375610351
8270.0	3211478.912353515
8280.0	3234736.221313476
8290.0	3255405.670166015
8300.0	3306412.5976562495
8310.0	3328305.4504394527
8320.0	3366026.763916015
8330.0	3409721.115112304
8340.0	3441551.727294921
8350.0	3467928.2073974605
8360.0	3506044.9371337886
8370.0	3543118.392944335
8380.0	3585828.0487060538
8390.0	3607643.966674804
8400.0	3649820.9838867183
8410.0	3720485.763549804
8420.0	3739672.83630371
8430.0	3774824.935913085
8440.0	3779394.9890136714
8450.0	3810377.3040771475
8460.0	3846304.748535156
8470.0	3883958.206176757
8480.0	3924940.536499023
8490.0	3962976.821899413
8500.0	4005411.041259765
8510.0	4043323.3642578116
8520.0	4085152.023315429
8530.0	4121026.2908935538
8540.0	4158921.524047851
8550.0	4204859.313964843
8560.0	4248770.355224608
8570.0	4288504.791259765
8580.0	4333029.571533202
8590.0	4366138.916015624
8600.0	4405701.110839843
8610.0	4449936.935424804
8620.0	4495729.431152343
8630.0	4536338.455200194
8640.0	4577330.215454101
8650.0	4618690.002441405
8660.0	4667823.71520996
8670.0	4709830.9173583975
8680.0	4747227.966308593
8690.0	4790129.837036132
8700.0	4835290.34423828
8710.0	4866592.407226562
8720.0	4924818.420410155
8730.0	4980807.510375976
8740.0	5019682.43408203
8750.0	5067310.974121093
8760.0	5131438.400268554
8770.0	5176214.477539062
8780.0	5230330.017089842
8790.0	5282074.218749999
8800.0	5282504.180908202
8810.0	5413149.505615233
8820.0	5447091.766357421
8830.0	5513667.083740233
8840.0	5591361.602783202
8850.0	5656126.190185546
8860.0	5677897.552490233
8870.0	5651283.416748046
8880.0	5697668.395996093
8890.0	5769384.948730468
8900.0	5817737.976074218
8910.0	5899735.900878905
8920.0	5908642.456054687
8930.0	6020134.979248046
8940.0	6040616.088867187
8950.0	6073512.756347655
8960.0	6125289.8864746075
8970.0	6206280.456542968
8980.0	6282020.32470703
8990.0	6321738.037109374
9000.0	6423314.239501952
9010.0	6528330.169677733
9020.0	6554910.675048827
9030.0	6578321.960449217
9040.0	6615002.990722655
9050.0	6777541.717529295
9060.0	6810677.001953123
9070.0	6851786.804199218
9080.0	7211785.278320312
9090.0	7131978.210449217
9100.0	7105687.347412108
9110.0	7225034.667968749
9120.0	7449739.166259765
9130.0	7467959.167480468
9140.0	7473357.849121093
9150.0	7656574.768066404
9160.0	7830672.637939452
9170.0	7873838.317871092
9180.0	7862661.621093749
9190.0	8177330.749511717
9200.0	8051496.520996093
9210.0	7812506.286621093
9220.0	7715699.340820312
9230.0	7703325.134277343
9240.0	7756840.911865233
9250.0	7851534.942626951
9260.0	7901983.398437498
9270.0	7971198.425292967
9280.0	7947247.86376953
9290.0	8010932.830810545
9300.0	8097774.932861326
9310.0	8143266.845703124
9320.0	8246121.795654295
9330.0	8276481.933593748
9340.0	8385583.984374999
9350.0	8398228.393554686
9360.0	8507963.256835936
9370.0	8542361.755371092
9380.0	8701193.847656248
9390.0	8733762.603759764
9400.0	8865866.82128906
9410.0	8913231.353759764
9420.0	9126491.424560545
9430.0	9149411.92626953
9440.0	9153389.160156248
9450.0	9207950.439453123
9460.0	9401467.926025389
9470.0	9319353.118896483
9480.0	9543888.366699217
9490.0	9819197.540283201
9500.0	9632087.066650389
9510.0	9743648.925781248
9520.0	9934048.583984373
9530.0	9987741.607666014
9540.0	10256995.758056639
9550.0	10182209.10644531
9560.0	10231128.021240233
9570.0	10391517.639160154
9580.0	10847914.916992186
9590.0	10813649.963378904
9600.0	10692368.10302734
9610.0	11008330.627441403
9620.0	10783541.259765623
9630.0	11306985.595703123
9640.0	11056467.89550781
9650.0	11432258.056640623
9660.0	11662557.43408203
9670.0	11768194.94628906
9680.0	11990972.29003906
9690.0	12159899.658203123
9700.0	12301023.07128906
9710.0	12181197.08251953
9720.0	12385929.199218746
9730.0	11859180.78613281
9740.0	11850448.547363278
9750.0	11995397.155761717
9760.0	12183567.321777342
9770.0	12202747.86376953
9780.0	12394805.78613281
9790.0	12822526.611328123
9800.0	12779361.93847656
9810.0	12593250.671386715
9820.0	12345991.577148436
9830.0	12603287.475585936
9840.0	12860243.103027342
9850.0	12973815.551757809
9860.0	13103488.220214842
9870.0	13433598.144531246
9880.0	13110739.196777342
9890.0	13946490.05126953
9900.0	12659827.75878906
9910.0	12219798.15673828
9920.0	12416720.397949217
9930.0	12662989.318847654
9940.0	12869167.297363278
9950.0	13113033.02001953
9960.0	13187208.190917965
9970.0	13560888.244628904
9980.0	13421232.299804686
9990.0	13167326.782226559
10000.0	13501372.131347654
10010.0	13645841.156005856
10020.0	13801222.442626951
10030.0	14132211.029052733
10040.0	13843635.742187498
10050.0	14276208.80126953
10060.0	13888113.342285153
10070.0	14211485.443115233
10080.0	14692669.769287106
10090.0	14574946.136474608
10100.0	15113983.489990233
10110.0	14749236.26708984
10120.0	15096101.806640621
10130.0	15499636.0168457
10140.0	14832939.270019528
10150.0	15521709.41162109
10160.0	15186687.988281248
10170.0	15211518.005371092
10180.0	15983028.62548828
10190.0	15602191.772460934
10200.0	15635972.62573242
10210.0	16319247.589111324
10220.0	15720646.820068356
10230.0	16424089.324951168
10240.0	16849103.912353512
10250.0	16502097.351074217
10260.0	15851066.009521483
10270.0	16053072.38769531
10280.0	16081935.119628903
10290.0	16587723.876953123
10300.0	16464946.929931639
10310.0	17193784.27124023
10320.0	16820641.479492184
10330.0	17126843.38378906
10340.0	17198042.785644528
10350.0	17563711.822509762
10360.0	17992668.273925778
10370.0	18164806.76269531
10380.0	17924358.306884762
10390.0	18017389.556884762
10400.0	18263003.936767574
10410.0	19233367.401123043
10420.0	18369191.34521484
10430.0	17891853.45458984
10440.0	19414212.37182617
10450.0	19971332.672119137
10460.0	20823576.721191403
10470.0	18339736.145019528
10480.0	19071533.81347656
10490.0	20132627.86865234
10500.0	19961573.455810543
10510.0	19596348.75488281
10520.0	19038543.88427734
10530.0	21243328.643798824
10540.0	21072862.304687496
10550.0	21015504.882812496
10560.0	20253071.22802734
10570.0	19847191.98608398
10580.0	21840010.83374023
10590.0	21605583.312988278
10600.0	22317506.10351562
10610.0	21134655.456542965
10620.0	21202882.690429684
10630.0	22135671.691894528
10640.0	24278749.5727539
10650.0	23233720.45898437
10660.0	22846357.116699215
10670.0	21742821.41113281
10680.0	23080113.281249996
10690.0	24591683.34960937
10700.0	23670320.312499993
10710.0	24402296.874999996
10720.0	25926406.066894528
10730.0	24212947.326660153
10740.0	26314092.834472653
10750.0	26724226.25732421
10760.0	27734798.828124993
10770.0	28246282.65380859
10780.0	29360144.714355465
10790.0	27935862.304687493
10800.0	28579394.348144528
10810.0	27458707.763671868
10820.0	28322559.997558586
10830.0	30820696.838378903
10840.0	32707118.103027336
10850.0	31328367.004394524
10860.0	30830973.388671868
10870.0	29962171.386718746
10880.0	31646167.11425781
10890.0	28170003.35693359
10900.0	29878464.96582031
10910.0	30223324.218749993
10920.0	31077033.020019524
10930.0	30035355.651855465
10940.0	30148855.346679684
10950.0	31050248.71826171
10960.0	29148233.764648434
10970.0	30814073.85253906
10980.0	30184921.936035153
10990.0	29738554.992675778
11000.0	29606607.971191403
11010.0	30289503.84521484
11020.0	31825247.00927734
11030.0	28471494.87304687
11040.0	28693979.431152336
11050.0	28880691.04003906
11060.0	28559596.008300778
11070.0	28334661.49902343
11080.0	29022568.847656243
11090.0	29753643.18847656
11100.0	28762036.193847653
11110.0	28892418.395996086
11120.0	30029151.30615234
11130.0	30452582.76367187
11140.0	29797224.426269528
11150.0	30098067.504882805
11160.0	31324615.84472656
11170.0	29966654.541015618
11180.0	33044291.38183593
11190.0	31613780.88378906
11200.0	30735328.6743164
11210.0	31551900.390624996
11220.0	32881283.020019528
11230.0	32421282.409667965
11240.0	33819193.11523437
11250.0	34283877.5024414
11260.0	33846415.344238274
11270.0	34217331.54296874
11280.0	34735002.075195305
11290.0	35038560.97412109
11300.0	33886390.747070305
11310.0	35357917.66357421
11320.0	34618918.94531249
11330.0	34657029.29687499
11340.0	33873310.91308593
11350.0	30854884.70458984
11360.0	35306709.65576171
11370.0	35047235.77880859
11380.0	32955335.571289055
11390.0	34725707.45849609
11400.0	36032616.39404296
11410.0	34267594.72656249
11420.0	36183371.887207024
11430.0	36770234.25292968
11440.0	33856293.94531249
11450.0	37003192.199707024
11460.0	37876860.168457024
11470.0	36987848.937988274
11480.0	36926332.45849609
11490.0	39617490.11230468
11500.0	39522806.57958984
11510.0	38843009.03320312
11520.0	39211975.34179687
11530.0	38943833.129882805
11540.0	37923279.29687499
11550.0	41267456.42089843
11560.0	41482715.20996092
11570.0	39759071.53320312
11580.0	41119676.63574218
11590.0	42883075.92773436
11600.0	39773677.00195312
11610.0	40492618.40820312
11620.0	41759332.64160155
11630.0	42259215.57617187
11640.0	39471074.70703124
11650.0	44681958.618164055
11660.0	40763652.58789062
11670.0	42683734.37499999
11680.0	42853584.89990234
11690.0	37126998.04687499
11700.0	41288489.562988274
11710.0	42881429.93164062
11720.0	44538938.72070312
11730.0	43647776.12304687
11740.0	42473403.68652342
11750.0	44263654.17480468
11760.0	41709353.149414055
11770.0	39949835.44921874
11780.0	37954702.02636718
11790.0	43174232.66601562
11800.0	44141097.41210937
11810.0	44071060.546874985
11820.0	43931234.37499999
11830.0	46685676.75781249
11840.0	45896669.31152343
11850.0	46891567.993164055
11860.0	45876855.83496092
11870.0	48571237.06054687
11880.0	47259906.49414062
11890.0	45873731.68945312
11900.0	47857627.929687485
11910.0	47638500.1220703
11920.0	48322679.56542968
11930.0	50276748.168945305
11940.0	46357793.579101555
11950.0	45992992.91992186
11960.0	46843937.622070305
11970.0	45443210.81542967
11980.0	44082807.12890624
11990.0	46237487.67089843
12000.0	44573824.70703124
12010.0	46028130.981445305
12020.0	46011524.78027343
12030.0	46520159.301757805
12040.0	50136630.12695312
12050.0	49164380.24902342
12060.0	55863497.43652343
12070.0	49176184.692382805
12080.0	53189190.30761718
12090.0	49872486.81640624
12100.0	53734255.004882805
12110.0	49071035.03417968
12120.0	50632645.141601555
12130.0	51360834.1064453
12140.0	55885883.78906249
12150.0	55997672.48535155
12160.0	55637197.875976555
12170.0	55417241.699218735
12180.0	57591812.011718735
12190.0	58041369.750976555
12200.0	55031616.699218735
12210.0	55774656.249999985
12220.0	55727136.59667967
12230.0	55692130.73730468
12240.0	57777419.43359374
12250.0	61386480.468749985
12260.0	61149174.07226561
12270.0	60523377.075195305
12280.0	63304709.960937485
12290.0	62835827.02636717
12300.0	61010987.67089843
12310.0	64043594.726562485
12320.0	59788847.41210936
12330.0	61415695.31249999
12340.0	64663961.30371093
12350.0	60687057.49511718
12360.0	63421444.82421874
12370.0	64239924.07226561
12380.0	63818818.72558592
12390.0	60897726.684570305
12400.0	62751656.12792968
12410.0	55973088.25683592
12420.0	54490808.10546874
12430.0	57353608.27636717
12440.0	54716788.45214843
12450.0	63406593.01757811
12460.0	61836857.78808592
12470.0	64638204.101562485
12480.0	60931702.636718735
12490.0	65850483.76464842
12500.0	62644985.839843735
12510.0	65033544.31152342
12520.0	60010971.313476555
12530.0	60740099.36523436
12540.0	67845235.4736328
12550.0	63158924.316406235
12560.0	65467241.45507812
12570.0	70296768.92089842
12580.0	65128990.47851561
12590.0	67637213.62304686
12600.0	67595634.27734374
12610.0	73332053.22265624
12620.0	65356426.51367187
12630.0	68810901.61132811
12640.0	67610642.94433592
12650.0	68589487.18261717
12660.0	70836843.13964842
12670.0	74054124.99999999
12680.0	72856077.39257811
12690.0	75992670.0439453
12700.0	72892040.1611328
12710.0	73110147.33886717
12720.0	77136538.33007811
12730.0	77699851.44042967
12740.0	72786987.91503905
12750.0	71860499.87792967
12760.0	76408918.33496092
12770.0	76248035.88867186
12780.0	74768346.67968749
12790.0	78626727.53906249
12800.0	76970772.46093749
12810.0	76219757.44628905
12820.0	79985729.00390624
12830.0	75853396.24023436
12840.0	77962234.4970703
12850.0	80551657.22656249
12860.0	72058660.15624999
12870.0	79884636.23046874
12880.0	78484460.81542967
12890.0	78481152.58789061
12900.0	82493817.01660155
12910.0	78984308.59374999
12920.0	78108714.11132811
12930.0	79713188.72070311
12940.0	86821815.67382811
12950.0	77821189.33105467
12960.0	84996147.09472655
12970.0	86480417.48046874
12980.0	88150118.40820311
12990.0	84478953.85742186
13000.0	87103664.30664061
13010.0	84418930.17578122
13020.0	88139589.84374999
13030.0	86539614.74609374
13040.0	92161643.55468749
13050.0	89047139.89257811
13060.0	91080703.12499999
13070.0	84923539.30664061
13080.0	87160098.02246092
13090.0	85383033.08105467
13100.0	87360721.43554686
13110.0	90338025.87890624
13120.0	92969551.8798828
13130.0	88334098.51074217
13140.0	88476989.25781247
13150.0	90383253.41796874
13160.0	89485684.57031249
13170.0	90923086.18164061
13180.0	85862372.55859372
13190.0	91714444.33593749
13200.0	88012844.11621092
13210.0	87267492.79785153
13220.0	88605598.8769531
13230.0	88865643.79882811
13240.0	87239770.75195311
13250.0	79706141.60156249
13260.0	87276682.8613281
13270.0	81143068.35937499
13280.0	80957583.25195311
13290.0	83728143.79882811
13300.0	79328063.11035155
13310.0	73285527.58789061
13320.0	67700923.70605467
13330.0	64422927.00195311
13340.0	69314701.41601561
13350.0	55358742.18749999
13360.0	61571603.51562499
13370.0	59057238.403320305
13380.0	59293901.24511717
13390.0	60901593.99414061
13400.0	63648084.22851562
13410.0	65090497.43652342
13420.0	57766356.32324218
13430.0	56175597.16796874
13440.0	62452436.03515624
13450.0	58405292.23632811
13460.0	61247832.82470702
13470.0	58873069.152832024
13480.0	56264042.602539055
13490.0	63612523.5595703
13500.0	61207010.13183593
13510.0	59263838.867187485
13520.0	58352026.977539055
13530.0	61500505.004882805
13540.0	55153852.53906249
13550.0	57433249.26757811
13560.0	61508103.27148437
13570.0	61052714.23339843
13580.0	59530696.89941405
13590.0	59667324.64599609
13600.0	60740670.4711914
13610.0	61359182.86132812
13620.0	55850070.67871092
13630.0	64279987.06054686
13640.0	62072623.77929686
13650.0	61402544.31152342
13660.0	63263373.1689453
13670.0	60846956.176757805
13680.0	61165266.723632805
13690.0	61369052.49023436
13700.0	60886943.72558592
13710.0	58825008.42285155
13720.0	61384562.98828124
13730.0	62140811.88964843
13740.0	59749350.58593749
13750.0	61138678.22265624
13760.0	62298098.632812485
13770.0	60545722.41210936
13780.0	66702168.457031235
13790.0	62795564.33105467
13800.0	66819631.347656235
13810.0	65088392.57812499
13820.0	67954362.54882811
13830.0	61535683.10546874
13840.0	66800942.504882805
13850.0	64994923.70605467
13860.0	65614048.9501953
13870.0	65219307.37304687
13880.0	63343201.78222655
13890.0	67903889.89257811
13900.0	65627238.03710936
13910.0	63408944.21386718
13920.0	64407057.61718749
13930.0	65810772.70507811
13940.0	64258360.4736328
13950.0	64198772.21679687
13960.0	65906974.60937499
13970.0	66042184.32617186
13980.0	63757065.551757805
13990.0	66969480.102539055
14000.0	63448879.882812485
14010.0	63351234.25292968
14020.0	68504552.00195311
14030.0	65894907.348632805
14040.0	63821460.083007805
14050.0	64646868.2861328
14060.0	70783321.04492186
14070.0	63897354.003906235
14080.0	65801948.242187485
14090.0	65448232.238769524
14100.0	64340450.25634765
14110.0	66131422.48535155
14120.0	63930205.44433592
14130.0	68728470.94726561
14140.0	66053437.74414062
14150.0	64528763.67187499
14160.0	68049906.12792967
14170.0	64755834.47265624
14180.0	63177544.31152342
14190.0	65779869.87304686
14200.0	65541285.88867186
14210.0	66623889.160156235
14220.0	66131622.80273436
14230.0	65670232.055664055
14240.0	66378358.27636718
14250.0	66642230.34667968
14260.0	64447337.0361328
14270.0	67652041.38183592
14280.0	65541314.5751953
14290.0	62261443.96972655
14300.0	71894657.71484374
14310.0	71260422.48535155
14320.0	66413932.37304686
14330.0	66366591.06445311
14340.0	63867764.40429687
14350.0	70597198.12011717
14360.0	69890750.85449217
14370.0	69258647.70507811
14380.0	69984447.14355467
14390.0	70535918.82324217
14400.0	67788677.61230467
14410.0	67086714.59960937
14420.0	67933587.64648436
14430.0	73388396.85058592
14440.0	71491292.96874999
14450.0	67744686.76757811
14460.0	70878479.73632811
14470.0	68459931.51855467
14480.0	72326963.74511717
14490.0	75621761.71874999
14500.0	72566221.92382811
14510.0	68920143.18847655
14520.0	78387325.43945311
14530.0	74337843.38378905
14540.0	69921746.33789061
14550.0	77372161.13281249
14560.0	72324343.01757811
14570.0	71158766.60156249
14580.0	74871293.45703124
14590.0	77477851.07421874
14600.0	77436122.07031249
14610.0	76357554.56542967
14620.0	73279644.40917967
14630.0	72048871.70410155
14640.0	76899729.12597655
14650.0	76465117.91992186
14660.0	80078740.60058592
14670.0	77425403.68652342
14680.0	74356681.27441405
